1520258107.00
64.000000
-0.00
-0.00
-0.00
-0.00
-0.00
-0.00
-0.00
-0.00
-0.00
-0.00
0.00
0.01
0.01
-0.00
-0.03
-0.05
-0.05
0.00
0.13
0.36
0.66
1.01
1.37
1.72
2.06
2.40
2.79
3.24
3.80
4.42
5.06
5.66
6.20
6.68
7.15
7.68
8.31
9.14
10.09
11.04
11.88
12.56
13.14
13.76
14.65
15.96
17.91
20.32
22.90
25.38
27.58
29.57
31.68
34.32
37.81
42.54
48.15
54.10
59.83
64.97
69.58
74.14
79.34
85.71
93.76
103.00
112.62
121.73
129.77
136.75
143.30
150.75
157.77
166.64
177.95
191.79
206.97
220.57
228.25
225.36
208.53
176.87
132.76
80.05
23.07
-34.94
-92.44
-149.16
-205.23
-260.37
-313.74
-363.87
-409.83
-450.91
-486.50
-515.74
-537.23
-549.22
-549.96
-538.37
-514.21
-478.67
-433.88
-382.45
-327.02
-269.84
-212.63
-156.66
-102.95
-52.37
-5.90
35.58
71.43
101.35
125.50
144.38
158.69
169.15
176.37
180.75
182.57
182.07
179.51
175.23
169.65
163.18
156.15
148.81
141.30
133.69
126.02
118.33
110.69
103.16
95.80
88.68
81.83
75.25
68.95
62.95
57.25
51.86
46.78
42.03
37.59
33.45
29.61
26.07
22.81
19.83
17.11
14.67
12.48
10.54
8.83
7.35
6.07
4.97
4.05
3.27
2.62
2.09
1.65
1.30
1.01
0.79
0.61
0.47
0.37
0.29
0.23
0.19
0.17
0.16
0.16
0.17
0.18
0.21
0.24
0.27
0.31
0.35
0.39
0.44
0.49
0.53
0.58
0.64
0.69
0.75
0.81
0.89
0.96
1.04
1.14
1.24
1.35
1.48
1.63
1.79
1.97
2.17
2.39
2.64
2.91
3.21
3.54
3.90
4.30
4.73
5.20
5.70
6.24
6.82
7.45
8.12
8.83
9.58
10.38
11.23
12.12
13.05
14.04
15.09
16.20
17.38
18.61
19.87
21.13
22.33
23.38
24.19
24.64
24.60
23.97
22.67
20.65
17.93
14.57
10.64
6.33
1.84
-2.65
-6.91
-10.75
-14.04
-16.66
-18.55
-19.70
-20.16
-20.00
-19.33
-18.26
-16.89
-15.30
-13.56
-11.70
-9.74
-7.68
-5.54
-3.36
-1.12
1.17
3.50
5.90
8.36
10.93
13.66
16.47
19.30
22.12
24.94
27.74
30.55
33.40
36.41
39.74
43.25
46.89
50.67
54.59
58.66
62.88
67.32
72.10
77.42
82.99
88.67
94.38
100.07
105.67
111.17
116.63
122.16
128.05
133.87
139.35
144.23
148.08
150.38
150.36
146.99
138.69
128.43
117.05
105.07
92.71
80.00
66.81
53.00
38.55
23.66
8.83
-6.01
-20.78
-35.46
-50.22
-65.40
-81.37
-98.30
-116.14
-134.46
-153.15
-171.90
-190.40
-208.57
-226.69
-245.49
-266.02
-289.24
-315.38
-343.65
-371.55
-395.14
-409.95
-412.13
-399.42
-371.70
-330.78
-279.87
-223.10
-164.69
-108.50
-57.78
-14.82
19.25
44.49
61.96
73.28
80.14
83.94
85.72
86.08
85.33
83.65
81.24
78.37
75.41
72.80
70.85
69.58
68.58
67.03
63.94
58.46
50.28
39.75
27.76
15.45
3.70
-7.11
-17.30
-27.73
-39.54
-53.71
-70.66
-89.82
-109.40
-126.45
-137.38
-138.81
-128.63
-106.72
-75.15
-37.65
1.41
38.10
69.69
94.86
113.39
125.64
132.14
133.48
130.46
124.19
116.07
107.57
99.84
93.37
88.01
83.19
78.34
73.26
68.14
63.41
59.33
55.73
51.92
46.85
39.53
29.39
16.58
1.96
-13.21
-27.69
-40.76
-52.49
-63.73
-75.89
-90.48
-108.38
-129.28
-151.27
-170.94
-184.10
-186.90
-177.03
-154.45
-121.44
-81.89
-40.14
-0.02
35.77
65.68
89.00
105.59
115.62
119.63
118.60
113.93
107.25
100.12
93.67
88.29
83.72
79.26
74.26
68.52
62.36
56.51
51.58
47.62
43.93
39.33
32.66
23.38
11.82
-0.96
-13.65
-25.30
-35.59
-44.94
-54.35
-65.04
-78.15
-94.29
-113.19
-133.33
-151.86
-164.97
-168.77
-160.42
-139.16
-106.63
-66.49
-23.38
18.35
55.51
86.40
110.46
127.74
138.50
143.15
142.49
137.85
131.15
124.33
118.80
115.03
112.42
109.87
106.35
101.49
95.74
90.06
85.35
81.95
79.34
76.27
71.25
63.16
51.78
37.86
22.88
8.46
-4.31
-15.19
-24.83
-34.45
-45.42
-58.93
-75.63
-95.36
-116.77
-137.15
-152.67
-159.25
-153.80
-135.36
-105.75
-69.03
-30.41
5.31
34.72
56.23
69.74
76.02
76.22
71.68
63.93
54.63
45.40
37.43
31.25
26.65
22.90
19.18
14.99
10.30
5.39
0.64
-3.89
-8.50
-13.82
-20.52
-29.01
-39.28
-50.87
-63.03
-75.00
-86.22
-96.58
-106.56
-117.20
-129.74
-144.98
-162.53
-180.20
-194.18
-199.80
-193.05
-171.95
-137.37
-92.77
-43.07
6.82
53.28
94.46
129.99
160.38
186.44
209.00
228.90
246.92
263.66
279.11
292.52
302.54
307.79
307.64
302.59
294.15
284.30
274.59
265.70
257.37
248.81
239.17
227.88
214.72
199.64
182.60
163.48
142.07
118.23
91.84
63.01
32.10
-0.10
-32.17
-62.15
-87.59
-106.07
-115.61
-115.29
-105.44
-87.66
-64.35
-38.21
-11.76
12.93
34.12
50.11
58.91
58.37
46.64
23.16
-10.32
-49.25
-86.64
-114.73
-127.23
-121.64
-100.28
-69.58
-37.74
-11.82
4.45
11.14
10.90
6.87
1.03
-6.43
-16.44
-29.93
-46.86
-66.12
-86.08
-105.34
-123.28
-139.93
-155.53
-170.19
-183.79
-196.20
-207.59
-218.15
-227.53
-234.19
-235.25
-227.20
-207.42
-175.60
-134.29
-88.34
-43.29
-3.77
27.50
49.68
63.35
69.77
70.58
67.62
62.82
57.94
54.19
52.11
51.50
51.64
51.42
49.56
44.92
36.84
25.67
12.88
0.44
-10.22
-19.10
-27.71
-38.04
-51.01
-65.49
-78.39
-86.06
-85.91
-77.69
-63.64
-47.67
-34.42
-28.24
-32.56
-49.10
-77.12
-112.91
-150.30
-182.11
-202.33
-208.04
-200.04
-182.03
-158.78
-134.49
-111.81
-92.03
-75.62
-62.83
-53.77
-48.11
-44.91
-42.73
-40.22
-36.67
-32.26
-27.85
-24.37
-22.21
-20.86
-19.19
-16.05
-10.95
-4.55
1.42
4.77
3.62
-2.86
-14.19
-28.75
-44.41
-59.15
-71.68
-81.70
-90.01
-98.08
-107.65
-119.79
-134.15
-148.46
-158.79
-160.65
-150.58
-127.72
-94.39
-55.55
-17.24
15.18
38.47
51.80
56.35
54.44
48.68
41.53
35.07
30.97
30.49
34.38
42.79
55.20
70.45
86.92
102.80
116.54
127.27
135.06
140.74
145.48
150.04
154.35
157.53
158.44
156.38
151.68
145.59
139.73
135.25
132.22
129.53
125.31
117.72
105.66
89.34
70.41
51.83
37.25
30.33
33.73
48.29
72.52
102.85
134.53
162.98
184.94
199.09
205.81
206.49
202.64
195.40
185.34
172.60
157.07
138.59
116.99
92.35
65.31
37.25
10.36
-12.73
-29.48
-38.14
-38.07
-29.84
-15.07
3.85
24.16
42.98
57.55
65.51
65.09
55.48
36.96
11.03
-19.77
-52.39
-84.03
-113.01
-139.22
-164.17
-190.16
-218.94
-250.32
-281.51
-307.30
-321.43
-318.41
-295.39
-253.31
-196.96
-133.91
-72.70
-20.87
16.55
37.72
43.76
37.86
24.18
6.95
-10.24
-24.76
-35.00
-40.36
-41.18
-38.35
-32.98
-25.92
-17.50
-7.53
4.37
18.30
33.57
48.42
60.25
66.25
64.56
55.18
40.37
24.04
10.45
2.51
0.69
3.08
6.48
8.03
6.70
3.76
2.23
5.57
16.19
34.42
58.26
83.82
106.35
121.47
126.10
118.94
100.52
72.64
37.81
-1.38
-42.41
-82.90
-120.61
-153.49
-179.81
-198.54
-209.48
-213.34
-211.46
-205.58
-197.35
-188.26
-179.56
-172.43
-167.93
-166.83
-169.20
-174.23
-180.31
-185.49
-188.24
-188.05
-185.52
-182.20
-179.89
-179.98
-182.97
-188.23
-194.12
-198.35
-198.54
-192.88
-180.71
-162.69
-140.65
-116.76
-92.89
-69.92
-47.75
-25.71
-3.08
20.39
44.55
68.97
93.41
118.01
143.22
169.66
198.03
229.14
263.78
302.16
343.27
384.33
421.08
448.81
464.03
465.60
454.92
435.09
409.33
379.70
346.83
310.42
270.25
226.86
181.66
136.38
92.49
50.92
12.18
-23.38
-55.37
-83.50
-107.79
-128.97
-148.44
-167.85
-188.21
-209.18
-228.67
-243.32
-249.48
-244.46
-227.50
-199.99
-165.10
-126.78
-88.90
-54.55
-25.92
-4.24
10.00
17.02
17.80
14.04
7.91
1.62
-3.11
-5.47
-5.60
-4.32
-2.59
-1.05
0.22
1.47
2.98
4.71
6.21
6.83
6.03
3.58
-0.33
-5.20
-10.47
-15.72
-20.73
-25.56
-30.46
-35.82
-42.26
-50.70
-62.17
-77.42
-96.36
-117.42
-137.48
-152.34
-157.79
-150.87
-130.83
-99.42
-60.32
-18.11
23.03
60.08
91.44
116.70
135.97
149.53
157.58
160.38
158.46
152.81
144.83
135.97
127.39
119.71
113.06
107.34
102.49
98.59
95.68
93.55
91.59
88.92
84.71
78.52
70.50
61.30
51.69
42.24
33.00
23.50
12.85
-0.04
-16.03
-35.46
-57.68
-80.85
-101.94
-117.34
-123.74
-119.10
-103.37
-78.68
-48.68
-17.56
11.02
34.72
52.63
65.00
72.66
76.51
77.28
75.55
71.86
66.85
61.19
55.48
50.08
45.11
40.48
36.08
31.80
27.50
23.01
18.03
12.30
5.88
-0.71
-6.38
-9.90
-10.51
-8.50
-5.44
-3.86
-6.41
-14.78
-28.82
-46.33
-63.59
-76.29
-80.77
-74.81
-58.09
-32.01
0.82
37.19
73.91
108.20
138.07
162.34
180.61
193.15
200.58
203.61
202.81
198.49
190.85
180.11
166.76
151.66
135.90
120.58
106.44
93.71
82.05
70.87
59.61
48.00
36.21
24.67
13.91
4.27
-4.25
-12.12
-20.22
-29.77
-41.99
-57.59
-76.24
-96.24
-114.65
-127.96
-133.26
-129.15
-116.26
-96.96
-74.48
-51.93
-31.60
-14.78
-1.99
6.59
10.93
11.18
7.90
2.11
-4.75
-11.14
-15.88
-18.35
-18.45
-16.43
-12.56
-7.09
-0.27
7.36
14.79
20.59
23.26
21.70
15.58
5.50
-7.35
-21.49
-35.56
-48.61
-60.19
-70.32
-79.36
-87.86
-96.22
-104.34
-111.40
-115.79
-115.54
-108.84
-94.72
-73.39
-46.33
-15.88
15.28
44.66
70.39
91.37
107.23
118.16
124.73
127.67
127.84
126.08
123.20
119.88
116.55
113.36
110.23
106.92
103.24
99.19
94.95
90.80
86.89
83.05
78.76
73.20
65.55
55.31
42.62
28.24
13.33
-0.95
-13.89
-25.41
-36.02
-46.68
-58.41
-72.04
-87.86
-105.33
-122.84
-137.84
-147.21
-148.11
-138.87
-119.57
-92.12
-59.77
-26.17
5.54
33.18
55.67
72.80
84.79
92.03
94.95
94.05
90.08
84.03
77.09
70.42
64.84
60.60
57.40
54.60
51.57
48.02
43.98
39.65
35.09
29.99
23.72
15.59
5.20
-7.27
-21.15
-35.38
-48.92
-61.06
-71.58
-80.82
-89.52
-98.69
-109.31
-121.99
-136.67
-152.23
-166.50
-176.58
-179.44
-172.78
-155.81
-129.51
-96.49
-60.29
-24.52
7.85
34.97
56.06
71.19
80.92
86.05
87.44
86.04
82.80
78.64
74.26
70.09
66.15
62.14
57.72
52.67
47.14
41.53
36.28
31.62
27.36
22.91
17.54
10.66
2.06
-7.96
-18.75
-29.51
-39.61
-48.77
-57.18
-65.44
-74.45
-85.07
-97.77
-112.25
-127.17
-140.23
-148.50
-149.21
-140.50
-122.04
-95.22
-62.82
-28.33
5.00
34.73
59.54
79.10
93.66
103.62
109.27
110.86
108.76
103.65
96.58
88.81
81.44
75.15
70.04
65.74
61.64
57.19
52.15
46.64
40.98
35.54
30.44
25.46
20.09
13.71
5.89
-3.42
-13.82
-24.55
-34.76
-43.82
-51.45
-57.89
-63.89
-70.65
-79.50
-91.49
-106.79
-124.21
-141.20
-154.31
-160.06
-156.02
-141.48
-117.66
-87.27
-53.68
-20.20
10.48
36.58
57.10
71.85
81.16
85.88
87.04
85.74
82.94
79.39
75.60
71.86
68.23
64.65
61.00
57.20
53.28
49.41
45.76
42.38
39.07
35.40
30.87
25.17
18.29
10.53
2.31
-6.09
-14.64
-23.51
-32.83
-42.55
-52.39
-61.95
-70.93
-79.27
-87.30
-95.60
-104.97
-116.04
-128.99
-143.04
-156.37
-166.17
-169.35
-163.44
-147.45
-122.27
-90.48
-55.57
-21.01
10.51
37.39
59.07
75.65
87.56
95.31
99.46
100.67
99.72
97.46
94.65
91.85
89.35
87.23
85.59
84.56
84.29
84.64
84.97
84.18
81.00
74.54
64.68
52.22
38.50
24.94
12.46
1.31
-8.87
-18.77
-28.97
-39.73
-50.94
-62.13
-72.73
-82.28
-90.68
-98.29
-105.90
-114.56
-125.20
-138.18
-152.91
-167.60
-179.48
-185.29
-182.18
-168.59
-144.81
-113.00
-76.64
-39.62
-5.27
24.21
47.89
65.88
78.85
87.60
92.91
95.41
95.74
94.55
92.53
90.28
88.18
86.32
84.59
82.84
81.06
79.41
78.14
77.32
76.66
75.51
73.06
68.65
62.12
53.82
44.46
34.81
25.36
16.20
7.08
-2.37
-12.45
-23.22
-34.50
-45.91
-57.04
-67.64
-77.78
-87.99
-99.16
-112.25
-127.70
-144.87
-161.69
-174.95
-180.98
-176.79
-161.11
-134.80
-100.70
-62.76
-24.96
9.52
38.76
61.92
78.96
90.25
96.37
98.11
96.54
92.87
88.32
83.87
80.11
77.20
75.03
73.41
72.11
70.94
69.64
67.89
65.35
61.72
56.93
51.09
44.43
37.16
29.32
20.77
11.31
0.85
-10.49
-22.29
-34.03
-45.28
-55.88
-65.95
-75.89
-86.24
-97.59
-110.47
-125.15
-141.30
-157.61
-171.70
-180.38
-180.49
-169.86
-148.17
-117.17
-80.26
-41.53
-4.70
27.55
53.89
74.05
88.42
97.64
102.46
103.72
102.36
99.38
95.72
92.08
88.77
85.86
83.26
80.91
78.88
77.29
76.15
75.27
74.24
72.49
69.53
65.00
58.75
50.78
41.17
30.06
17.69
4.44
-9.19
-22.60
-35.26
-46.90
-57.54
-67.57
-77.68
-88.75
-101.68
-117.09
-134.89
-153.80
-171.31
-183.84
-187.70
-180.15
-160.35
-129.78
-91.88
-51.05
-11.48
23.67
52.63
74.86
90.60
100.52
105.48
106.49
104.65
101.11
96.84
92.54
88.57
85.06
82.01
79.51
77.66
76.52
75.94
75.56
74.86
73.35
70.68
66.69
61.30
54.45
46.07
36.07
24.47
11.45
-2.61
-17.25
-31.88
-45.96
-59.09
-71.09
-82.21
-93.10
-104.77
-118.22
-133.97
-151.45
-168.75
-182.71
-189.67
-186.49
-171.54
-145.31
-110.31
-70.37
-29.63
8.43
41.50
68.49
89.23
104.12
113.77
118.92
120.39
119.13
116.13
112.38
108.67
105.49
103.01
101.11
99.52
97.93
96.14
93.97
91.32
88.10
84.25
79.66
74.14
67.45
59.20
49.02
36.72
22.44
6.76
-9.42
-25.07
-39.42
-52.09
-63.24
-73.42
-83.52
-94.54
-107.37
-122.30
-138.61
-154.30
-166.23
-170.74
-164.86
-147.24
-118.90
-82.95
-43.71
-5.47
28.62
56.91
79.07
95.50
106.75
113.29
115.63
114.48
110.90
106.13
101.25
96.98
93.50
90.72
88.46
86.61
85.11
83.90
82.72
81.21
78.92
75.50
70.73
64.56
57.07
48.36
38.53
27.62
15.63
2.65
-11.15
-25.37
-39.40
-52.64
-64.66
-75.48
-85.64
-96.14
-108.11
-122.34
-138.73
-155.90
-171.19
-181.08
-182.13
-172.02
-150.37
-119.02
-81.50
-42.11
-4.77
27.81
54.39
74.93
90.03
100.49
107.00
110.15
110.59
109.06
106.39
103.31
100.33
97.59
94.98
92.36
89.73
87.25
85.16
83.55
82.11
80.27
77.28
72.64
66.19
58.19
49.10
39.32
29.02
18.13
6.55
-5.70
-18.33
-30.86
-42.79
-53.81
-63.98
-73.75
-83.96
-95.57
-109.29
-125.03
-141.48
-156.10
-165.50
-166.43
-156.82
-136.54
-107.52
-73.24
-37.64
-4.18
24.84
48.45
66.61
79.84
88.75
93.87
95.70
94.81
91.98
88.14
84.18
80.78
78.17
76.21
74.50
72.62
70.31
67.53
64.35
60.89
57.14
53.03
48.41
43.08
36.85
29.59
21.20
11.68
1.22
-9.85
-21.07
-32.01
-42.35
-52.09
-61.56
-71.44
-82.65
-95.97
-111.59
-128.65
-145.01
-157.56
-162.95
-158.57
-143.52
-118.93
-87.67
-53.56
-20.37
9.09
33.23
51.63
64.56
72.61
76.37
76.42
73.42
68.25
61.98
55.72
50.38
46.44
43.83
42.03
40.35
38.19
35.29
31.82
28.12
24.49
20.89
16.76
11.25
3.53
-6.76
-19.29
-33.15
-47.14
-60.29
-72.06
-82.46
-91.80
-100.53
-109.09
-117.90
-127.18
-136.79
-145.77
-152.26
-153.69
-147.60
-132.55
-108.84
-78.64
-45.29
-12.31
17.61
43.04
63.68
79.87
91.94
100.12
104.55
105.55
103.81
100.36
96.26
92.36
88.97
85.95
82.83
79.17
74.83
70.13
65.63
61.84
58.80
55.88
51.86
45.39
35.53
22.12
5.87
-11.94
-29.92
-47.05
-62.82
-77.26
-90.71
-103.67
-116.57
-129.56
-142.25
-153.47
-161.21
-163.00
-156.63
-140.90
-116.18
-84.56
-49.25
-13.76
19.00
47.27
70.48
88.95
103.26
113.84
120.80
124.11
123.92
120.74
115.52
109.34
103.06
97.01
90.97
84.49
77.18
69.14
60.90
53.20
46.62
41.21
36.48
31.57
25.58
17.95
8.63
-1.86
-12.77
-23.32
-33.02
-41.87
-50.32
-59.22
-69.53
-81.91
-96.30
-111.61
-125.65
-135.55
-138.53
-132.73
-117.81
-95.12
-67.32
-37.68
-9.26
15.71
36.10
51.72
62.98
70.41
74.39
75.06
72.53
67.18
59.89
51.99
44.87
39.54
36.26
34.51
33.35
31.86
29.46
26.02
21.63
16.29
9.79
1.67
-8.45
-20.63
-34.41
-48.83
-62.73
-75.02
-84.98
-92.44
-97.81
-101.96
-106.11
-111.55
-119.37
-130.06
-143.09
-156.71
-168.03
-173.65
-170.57
-157.19
-133.88
-102.97
-67.99
-32.70
-0.12
27.94
50.78
68.44
81.30
89.77
94.34
95.65
94.59
92.18
89.38
86.94
85.20
84.15
83.52
82.92
82.03
80.69
78.94
76.97
74.96
72.93
70.60
67.40
62.69
56.04
47.44
37.44
26.92
16.76
7.49
-0.90
-8.97
-17.59
-27.63
-39.76
-54.14
-70.26
-86.80
-101.64
-112.09
-115.41
-109.53
-93.72
-69.00
-37.91
-3.88
29.62
59.85
85.22
105.13
119.68
129.19
134.03
134.60
131.53
125.80
118.74
111.76
105.97
101.92
99.52
98.13
96.85
94.89
91.81
87.58
82.46
76.81
70.76
64.14
56.42
46.94
35.20
21.09
5.00
-12.30
-29.91
-47.03
-63.14
-78.09
-92.11
-105.70
-119.51
-133.98
-148.90
-163.04
-174.08
-179.08
-175.37
-161.49
-137.90
-106.91
-72.00
-36.78
-4.16
24.12
47.25
65.03
77.38
84.29
85.98
83.18
77.23
69.88
62.95
57.79
54.92
54.04
54.24
54.45
53.91
52.41
50.25
47.96
45.94
44.17
42.19
39.25
34.66
28.05
19.52
9.56
-1.18
-12.15
-23.08
-34.03
-45.35
-57.54
-71.11
-86.34
-103.00
-120.05
-135.50
-146.60
-150.45
-144.88
-129.17
-104.43
-73.33
-39.36
-5.86
24.56
50.38
70.94
86.14
96.13
101.20
101.90
99.15
94.25
88.66
83.66
79.99
77.67
76.09
74.36
71.77
68.11
63.73
59.22
55.02
51.11
46.84
41.27
33.48
23.05
10.24
-4.09
-18.71
-32.51
-44.75
-55.28
-64.51
-73.23
-82.46
-93.15
-105.79
-120.09
-134.64
-146.99
-154.06
-152.95
-141.89
-120.92
-91.92
-58.21
-23.51
8.97
37.12
60.04
77.68
90.37
98.46
102.29
102.25
99.10
93.92
88.04
82.65
78.50
75.74
73.99
72.64
71.14
69.21
66.86
64.24
61.43
58.28
54.43
49.32
42.47
33.60
22.87
10.84
-1.67
-13.74
-24.79
-34.66
-43.82
-53.21
-64.06
-77.50
-94.16
-113.71
-134.55
-153.88
-168.19
-174.22
-169.84
-154.82
-130.88
-101.20
-69.55
-39.42
-13.38
7.09
21.53
30.24
34.03
34.07
31.73
28.43
25.47
23.86
24.22
26.73
31.20
37.11
43.79
50.52
56.62
61.55
64.98
66.64
66.38
64.00
59.31
52.16
42.68
31.36
19.03
6.73
-4.62
-14.53
-23.06
-30.77
-38.49
-47.13
-57.42
-69.65
-83.51
-97.76
-110.23
-118.09
-118.60
-109.94
-92.06
-66.84
-37.61
-8.15
18.43
40.45
57.70
71.09
81.87
91.12
99.46
107.09
114.03
120.21
125.56
129.86
132.72
133.55
131.79
127.24
120.23
111.72
103.00
95.32
89.34
84.87
80.84
75.74
68.11
57.10
42.77
26.03
8.26
-9.17
-25.34
-39.96
-53.37
-66.36
-79.97
-95.13
-112.43
-131.63
-151.44
-169.46
-182.60
-187.87
-183.31
-168.68
-145.64
-117.31
-87.35
-59.13
-35.10
-16.58
-3.97
2.93
4.66
2.03
-3.93
-11.93
-20.54
-28.30
-34.12
-37.52
-38.71
-38.45
-37.72
-37.23
-37.14
-37.02
-36.13
-33.88
-30.28
-26.08
-22.58
-21.15
-22.66
-27.18
-33.88
-41.43
-48.41
-53.82
-57.35
-59.46
-61.19
-63.83
-68.49
-75.68
-84.91
-94.47
-101.71
-103.50
-97.25
-81.70
-57.47
-26.97
6.37
39.04
68.44
93.28
113.41
129.31
141.43
149.89
154.45
154.89
151.30
144.33
135.05
124.70
114.21
104.03
94.11
84.19
74.11
64.02
54.31
45.40
37.36
29.81
22.00
13.12
2.68
-9.27
-22.19
-35.30
-47.88
-59.41
-69.64
-78.47
-85.91
-92.09
-97.34
-102.20
-107.29
-112.88
-118.56
-122.96
-123.89
-118.96
-106.34
-85.44
-57.21
-23.89
11.53
46.10
77.43
104.03
125.22
140.95
151.49
157.28
158.86
156.82
151.87
144.75
136.23
127.02
117.66
108.61
100.29
93.14
87.68
84.38
83.54
85.05
88.38
92.57
96.36
98.35
97.17
91.64
81.00
65.04
44.19
19.43
-8.02
-36.93
-66.34
-95.56
-124.10
-151.49
-177.02
-199.68
-218.09
-230.58
-235.42
-231.23
-217.55
-195.20
-166.48
-134.82
-104.05
-77.50
-57.29
-44.07
-37.24
-35.54
-37.62
-42.35
-48.84
-56.24
-63.48
-69.30
-72.47
-72.14
-68.19
-61.24
-52.36
-42.67
-32.84
-22.97
-12.74
-1.76
9.96
21.90
33.00
42.07
48.10
50.64
49.84
46.31
40.88
34.27
27.04
19.51
11.86
4.18
-3.61
-11.78
-20.71
-30.59
-41.00
-50.53
-56.83
-57.15
-49.23
-32.18
-6.82
24.48
58.65
92.68
124.36
152.33
175.88
194.57
207.97
215.66
217.50
213.82
205.55
194.15
181.30
168.48
156.71
146.35
137.22
128.76
120.35
111.50
101.91
91.45
80.08
67.79
54.63
40.80
26.58
12.28
-1.85
-15.72
-29.38
-42.94
-56.50
-70.13
-83.92
-98.10
-113.07
-129.39
-147.44
-167.11
-187.33
-205.96
-220.04
-226.31
-222.12
-206.21
-179.12
-143.15
-101.83
-59.13
-18.77
16.28
43.96
63.12
73.51
75.69
70.97
61.33
49.08
36.55
25.61
17.32
11.85
8.41
5.73
2.39
-2.61
-9.62
-18.30
-27.81
-37.22
-45.90
-53.71
-60.96
-68.18
-75.82
-83.93
-92.22
-100.16
-107.26
-113.34
-118.68
-123.86
-129.71
-136.99
-146.30
-157.78
-170.87
-184.08
-195.00
-200.58
-197.87
-184.68
-160.32
-125.69
-83.08
-35.63
13.28
60.53
103.45
140.07
169.09
190.03
203.16
209.48
210.51
207.94
203.42
198.25
193.27
188.87
185.12
181.91
179.06
176.33
173.22
168.83
161.81
150.61
133.86
110.88
82.08
48.96
13.88
-20.50
-51.82
-78.42
-99.68
-115.98
-128.53
-139.02
-149.11
-159.85
-171.21
-181.87
-189.47
-191.12
-184.35
-167.86
-141.96
-108.54
-70.57
-31.30
6.41
40.64
70.41
95.54
116.27
132.97
146.03
155.91
163.05
167.90
170.78
171.75
170.62
167.15
161.23
153.14
143.59
133.56
123.99
115.46
107.91
100.71
92.89
83.56
72.28
59.17
44.76
29.59
13.85
-2.75
-20.92
-41.41
-64.78
-90.98
-119.15
-147.38
-172.71
-191.46
-199.98
-195.72
-178.15
-149.07
-112.25
-72.33
-33.68
0.58
28.82
50.69
66.60
77.23
83.30
85.50
84.54
81.19
76.27
70.47
64.26
57.76
50.79
43.13
34.69
25.80
17.09
9.29
2.80
-2.55
-7.54
-13.30
-20.76
-30.38
-41.91
-54.61
-67.56
-80.04
-91.74
-102.83
-113.84
-125.50
-138.42
-152.80
-168.11
-182.83
-194.50
-200.18
-197.17
-183.84
-160.14
-127.83
-89.90
-49.90
-11.08
24.16
54.45
79.27
98.67
113.04
122.92
129.07
132.38
133.84
134.39
134.66
134.78
134.39
132.84
129.57
124.43
117.77
110.27
102.52
94.77
86.74
77.81
67.35
55.06
41.17
26.30
11.19
-3.60
-17.89
-31.86
-45.96
-60.73
-76.61
-93.81
-112.03
-130.17
-146.18
-157.21
-160.24
-152.92
-134.52
-106.35
-71.48
-33.95
2.31
34.38
60.70
80.89
95.26
104.41
108.99
109.72
107.57
103.72
99.47
95.91
93.61
92.46
91.80
90.74
88.65
85.40
81.29
76.81
72.23
67.33
61.40
53.59
43.35
30.75
16.49
1.74
-12.41
-25.27
-36.82
-47.69
-58.91
-71.60
-86.62
-104.08
-123.14
-141.78
-157.09
-165.86
-165.43
-154.48
-133.54
-104.84
-71.75
-37.84
-6.06
21.74
44.84
63.25
77.33
87.38
93.55
96.02
95.22
91.99
87.52
83.02
79.31
76.59
74.40
72.00
68.77
64.54
59.65
54.66
50.00
45.65
41.09
35.56
28.41
19.41
8.84
-2.63
-14.20
-25.22
-35.42
-44.91
-54.06
-63.43
-73.59
-84.90
-97.33
-110.16
-121.87
-130.28
-132.91
-127.72
-113.69
-91.36
-62.74
-30.90
0.81
29.50
53.34
71.65
84.65
93.04
97.59
98.93
97.71
94.58
90.37
85.98
82.13
79.21
77.19
75.77
74.63
73.49
72.21
70.69
68.78
66.23
62.81
58.32
52.62
45.60
37.22
27.47
16.52
4.70
-7.49
-19.52
-30.91
-41.41
-51.04
-60.04
-68.94
-78.38
-88.94
-100.89
-113.82
-126.42
-136.59
-141.76
-139.69
-129.11
-110.25
-84.76
-55.35
-25.05
3.44
28.17
48.14
63.08
73.35
79.58
82.51
82.90
81.41
78.60
74.98
70.96
66.88
62.94
59.24
55.71
52.19
48.52
44.55
40.21
35.52
30.52
25.28
19.85
14.23
8.33
2.00
-4.93
-12.57
-20.94
-29.94
-39.31
-48.71
-57.75
-66.04
-73.34
-79.66
-85.34
-91.14
-97.97
-106.58
-117.01
-128.21
-137.95
-143.32
-141.51
-130.74
-110.93
-83.83
-52.51
-20.58
8.74
33.26
52.00
65.06
73.11
77.06
77.75
75.93
72.34
67.80
63.19
59.29
56.51
54.77
53.55
52.07
49.68
46.00
41.06
35.19
28.87
22.59
16.71
11.43
6.75
2.49
-1.62
-5.82
-10.27
-14.93
-19.63
-24.20
-28.57
-32.87
-37.41
-42.63
-48.95
-56.76
-66.22
-77.03
-88.22
-98.05
-104.23
-104.48
-97.23
-82.25
-60.84
-35.53
-9.28
15.18
36.01
52.32
64.02
71.40
74.89
74.89
71.85
66.36
59.23
51.41
43.87
37.38
32.35
28.81
26.43
24.66
22.90
20.61
17.49
13.48
8.74
3.59
-1.70
-7.05
-12.61
-18.63
-25.32
-32.71
-40.57
-48.51
-56.19
-63.43
-70.26
-76.82
-83.32
-90.00
-97.20
-105.20
-114.05
-123.25
-131.44
-136.55
-136.19
-128.43
-112.55
-89.40
-61.16
-30.83
-1.29
25.22
47.47
65.13
78.49
88.15
94.81
99.13
101.65
102.81
102.95
102.27
100.98
99.29
97.42
95.61
93.93
92.24
90.10
86.91
82.05
75.07
65.82
54.46
41.39
27.10
12.11
-3.08
-18.12
-32.73
-46.70
-59.90
-72.15
-83.26
-92.97
-101.13
-107.77
-113.31
-118.48
-124.32
-131.76
-141.23
-152.14
-162.73
-170.20
-171.43
-163.85
-146.34
-119.68
-86.36
-49.96
-14.18
18.01
44.76
65.51
80.59
90.92
97.55
101.49
103.50
104.13
103.81
102.92
101.87
101.09
100.87
101.32
102.31
103.46
104.33
104.42
103.37
100.88
96.85
91.23
84.06
75.46
65.53
54.43
42.31
29.27
15.47
1.04
-13.75
-28.52
-42.87
-56.47
-69.26
-81.55
-94.03
-107.63
-123.06
-140.35
-158.48
-175.18
-187.37
-191.81
-186.13
-169.55
-143.14
-109.61
-72.54
-35.54
-1.46
27.83
51.48
69.30
81.50
88.50
90.91
89.63
85.83
80.80
75.78
71.57
68.48
66.24
64.34
62.24
59.66
56.58
53.21
49.74
46.17
42.27
37.61
31.70
24.09
14.60
3.32
-9.39
-23.00
-36.94
-50.80
-64.32
-77.49
-90.46
-103.54
-117.15
-131.66
-147.11
-162.78
-176.96
-187.05
-190.08
-183.55
-166.36
-139.22
-104.56
-65.93
-27.09
8.76
39.42
63.77
81.62
93.35
99.63
101.36
99.51
95.16
89.48
83.60
78.44
74.45
71.58
69.28
66.96
64.22
61.14
58.17
55.87
54.34
53.09
51.02
46.87
39.74
29.52
16.94
3.26
-10.26
-22.82
-34.25
-45.00
-55.88
-67.75
-81.36
-97.05
-114.42
-132.11
-147.69
-158.00
-159.91
-151.32
-131.86
-103.15
-68.43
-31.62
3.56
34.38
59.37
78.21
91.36
99.65
103.93
105.02
103.70
100.86
97.45
94.36
92.11
90.67
89.52
87.87
85.18
81.45
77.23
73.33
70.31
68.11
65.94
62.65
57.07
48.61
37.37
24.08
9.78
-4.60
-18.48
-31.70
-44.48
-57.25
-70.59
-84.98
-100.65
-117.08
-132.76
-145.14
-151.07
-147.77
-133.75
-109.52
-77.55
-41.58
-5.56
27.31
55.18
77.47
94.43
106.62
114.49
118.41
118.79
116.33
112.04
107.09
102.47
98.67
95.64
92.87
89.73
85.82
81.12
76.01
71.01
66.47
62.33
58.10
52.99
46.25
37.51
26.90
15.02
2.70
-9.32
-20.63
-31.19
-41.28
-51.38
-62.06
-73.90
-87.29
-102.03
-117.03
-130.14
-138.48
-139.22
-130.50
-112.19
-85.97
-54.92
-22.55
8.08
34.93
57.06
74.35
87.12
95.73
100.59
102.06
100.69
97.17
92.41
87.35
82.74
79.01
76.16
73.82
71.47
68.74
65.57
62.14
58.77
55.57
52.37
48.68
43.86
37.41
29.15
19.30
8.42
-2.80
-13.76
-24.10
-33.88
-43.51
-53.68
-65.18
-78.58
-93.98
-110.71
-127.23
-141.16
-149.67
-150.15
-140.94
-122.04
-95.23
-63.61
-30.83
-0.07
26.61
48.35
65.09
77.09
84.50
87.40
86.04
81.03
73.46
64.62
55.71
47.46
40.08
33.38
27.06
20.95
15.19
10.15
6.28
3.73
2.25
1.15
-0.51
-3.53
-8.26
-14.45
-21.42
-28.39
-34.85
-40.83
-46.86
-53.85
-62.75
-74.17
-88.16
-103.94
-119.76
-133.05
-140.84
-140.47
-130.39
-110.69
-83.25
-51.23
-18.29
12.35
38.49
59.18
74.39
84.61
90.39
92.28
90.79
86.69
81.02
74.93
69.43
65.02
61.55
58.40
54.83
50.41
45.27
40.03
35.49
32.24
30.25
28.92
27.23
24.15
19.09
12.04
3.60
-5.40
-14.20
-22.50
-30.49
-38.77
-48.09
-59.01
-71.69
-85.56
-99.30
-110.89
-117.93
-118.25
-110.49
-94.65
-72.12
-45.32
-17.00
10.42
35.40
57.23
75.88
91.50
104.22
114.04
121.02
125.38
127.59
128.23
127.80
126.49
124.09
120.05
113.75
104.75
93.09
79.50
65.26
52.01
41.27
33.97
30.17
28.99
28.90
28.19
25.46
19.98
11.74
1.23
-10.89
-24.04
-37.93
-52.55
-68.00
-84.26
-100.90
-116.91
-130.59
-139.70
-141.86
-135.17
-118.88
-93.84
-62.43
-28.13
5.39
35.10
59.31
77.60
90.51
98.99
103.85
105.65
104.86
102.10
98.27
94.46
91.53
89.85
89.13
88.60
87.40
85.00
81.38
76.94
72.24
67.66
63.22
58.70
53.65
47.69
40.56
32.19
22.71
12.35
1.37
-10.08
-21.87
-34.01
-46.55
-59.61
-73.47
-88.43
-104.66
-121.81
-138.67
-153.02
-162.13
-163.38
-155.27
-137.96
-113.40
-84.68
-55.20
-27.81
-4.33
14.43
28.44
38.09
43.89
46.42
46.33
44.38
41.39
38.19
35.42
33.44
32.22
31.38
30.41
28.80
26.32
23.10
19.44
15.70
11.96
7.94
3.05
-3.42
-11.97
-22.67
-35.11
-48.52
-62.01
-74.89
-86.84
-97.96
-108.74
-119.84
-131.99
-145.69
-160.94
-176.99
-192.11
-203.72
-208.86
-204.95
-190.68
-166.55
-134.86
-99.13
-63.20
-30.28
-2.42
19.48
35.40
45.80
51.31
52.66
50.71
46.48
41.11
35.70
31.15
28.00
26.44
26.34
27.41
29.30
31.72
34.41
37.18
39.75
41.82
42.99
42.87
41.13
37.48
31.70
23.67
13.32
0.71
-13.91
-30.09
-47.12
-64.23
-80.62
-95.75
-109.39
-121.59
-132.38
-141.38
-147.42
-148.46
-142.06
-126.04
-99.25
-61.95
-15.62
37.50
94.85
153.85
211.88
266.26
314.34
353.89
383.62
403.54
414.81
419.29
418.75
414.42
406.94
396.66
383.99
369.51
353.71
336.61
317.54
295.35
269.07
238.45
204.39
168.61
132.96
98.72
66.16
34.61
3.04
-29.49
-63.48
-99.00
-135.64
-172.65
-208.86
-242.93
-273.55
-299.97
-322.36
-341.84
-359.97
-377.71
-394.60
-408.29
-415.17
-411.52
-395.00
-365.68
-326.08
-280.41
-233.32
-188.76
-149.36
-116.42
-90.33
-70.98
-57.96
-50.56
-47.64
-47.52
-48.32
-48.23
-46.09
-41.62
-35.37
-28.49
-22.22
-17.59
-15.04
-14.46
-15.24
-16.48
-17.37
-17.38
-16.54
-15.30
-14.37
-14.32
-15.24
-16.73
-18.01
-18.44
-17.76
-16.35
-15.10
-15.08
-17.27
-22.22
-29.75
-38.76
-47.16
-51.97
-49.96
-38.40
-16.02
16.41
56.09
98.93
140.67
177.94
208.80
232.72
249.96
261.01
266.17
265.56
259.44
248.52
234.10
217.75
200.85
184.05
167.11
149.03
128.61
104.95
77.94
48.24
17.09
-14.28
-44.98
-74.62
-103.02
-129.90
-154.45
-175.44
-191.62
-202.25
-207.68
-209.37
-209.58
-210.68
-214.52
-221.89
-232.33
-244.19
-254.77
-260.76
-258.79
-246.24
-221.99
-186.85
-143.49
-95.85
-48.24
-4.38
33.08
62.77
84.27
97.83
103.99
103.58
97.68
87.72
75.48
62.88
51.69
43.13
37.63
34.90
34.02
33.99
33.84
32.89
30.57
26.35
19.61
9.78
-3.44
-19.77
-38.36
-57.96
-77.32
-95.58
-112.49
-128.40
-144.05
-160.29
-177.69
-196.14
-214.50
-230.39
-240.51
-241.42
-230.52
-206.89
-171.59
-127.30
-77.64
-26.39
23.02
67.76
105.72
135.58
156.94
170.33
177.09
178.95
177.67
174.71
171.09
167.45
164.05
160.86
157.58
153.77
149.03
143.10
135.93
127.48
117.68
106.27
92.89
77.32
59.63
40.26
19.98
-0.41
-20.36
-39.70
-58.71
-77.96
-98.19
-120.11
-144.14
-170.08
-196.51
-220.69
-238.76
-246.61
-241.13
-221.16
-187.92
-144.57
-95.45
-44.96
3.06
45.74
81.22
108.67
128.12
140.40
146.92
149.28
148.97
147.21
144.87
142.53
140.42
138.43
136.14
133.05
128.81
123.48
117.54
111.64
106.25
101.33
96.28
90.13
81.90
71.02
57.54
42.10
25.64
9.13
-6.73
-21.67
-35.80
-49.60
-63.84
-79.35
-96.73
-115.82
-135.27
-152.40
-163.63
-165.45
-155.55
-133.75
-102.13
-64.46
-25.06
12.31
45.06
71.91
92.48
106.92
115.58
119.05
118.25
114.42
109.01
103.32
98.26
94.16
90.81
87.75
84.46
80.67
76.37
71.84
67.39
63.29
59.50
55.66
51.11
45.10
37.04
26.76
14.68
1.62
-11.40
-23.58
-34.54
-44.48
-54.06
-64.17
-75.72
-89.30
-104.86
-121.43
-136.97
-148.59
-153.18
-148.31
-133.06
-108.44
-77.15
-42.78
-8.83
22.01
48.23
69.40
85.73
97.68
105.72
110.22
111.49
109.95
106.20
101.05
95.41
90.16
85.93
82.97
81.18
80.22
79.76
79.50
79.27
78.86
77.92
76.00
72.51
66.99
59.17
49.16
37.41
24.64
11.70
-0.66
-11.94
-21.97
-30.91
-39.20
-47.47
-56.47
-66.87
-79.02
-92.58
-106.23
-117.67
-123.97
-122.36
-111.09
-90.11
-61.17
-27.40
7.60
40.61
69.41
92.88
110.83
123.67
132.05
136.75
138.62
138.57
137.47
136.08
134.89
134.02
133.28
132.30
130.68
128.18
124.73
120.34
114.99
108.56
100.82
91.59
80.91
69.14
56.82
44.58
32.77
21.41
10.18
-1.34
-13.38
-25.78
-38.02
-49.42
-59.43
-67.89
-75.21
-82.29
-90.31
-100.35
-112.86
-127.16
-141.27
-152.26
-156.86
-152.57
-138.40
-115.26
-85.74
-53.25
-21.19
7.85
32.33
51.73
66.13
75.98
81.87
84.50
84.67
83.18
80.80
78.07
75.26
72.38
69.29
65.94
62.40
58.95
55.88
53.32
51.08
48.68
45.44
40.85
34.68
27.23
19.06
10.82
2.92
-4.70
-12.48
-20.97
-30.50
-40.96
-51.83
-62.37
-71.95
-80.32
-87.69
-94.71
-102.18
-110.92
-121.36
-133.24
-145.35
-155.52
-160.97
-159.05
-148.08
-128.01
-100.56
-68.76
-36.10
-5.64
20.58
41.65
57.51
68.59
75.47
78.78
79.21
77.56
74.67
71.35
68.24
65.80
64.23
63.51
63.44
63.64
63.68
63.18
61.91
59.87
57.17
53.98
50.36
46.22
41.36
35.55
28.65
20.67
11.81
2.43
-7.03
-16.10
-24.41
-31.74
-38.17
-44.10
-50.31
-57.71
-66.98
-77.92
-89.09
-97.82
-100.89
-95.71
-81.41
-59.49
-33.37
-7.34
14.87
31.07
40.86
45.16
45.37
42.63
37.62
30.67
22.12
12.47
2.42
-7.33
-16.15
-23.61
-29.34
-33.01
-34.30
-33.16
-29.93
-25.38
-20.52
-16.23
-12.95
-10.56
-8.75
-7.33
-6.70
-7.72
-11.39
-18.32
-28.32
-40.41
-53.21
-65.61
-77.14
-88.16
-99.53
-112.21
-126.85
-143.48
-161.40
-179.01
-193.93
-203.22
-204.04
-194.45
-174.26
-145.33
-111.14
-75.99
-43.69
-16.84
3.61
17.98
27.34
32.92
35.78
36.73
36.42
35.47
34.42
33.77
33.73
34.24
34.94
35.33
35.00
33.69
31.48
28.65
25.57
22.49
19.46
16.19
12.27
7.18
0.58
-7.59
-17.11
-27.48
-38.13
-48.49
-58.24
-67.34
-76.04
-84.85
-94.51
-105.75
-119.00
-134.00
-149.40
-162.69
-170.71
-170.41
-159.89
-139.07
-109.90
-75.81
-40.79
-8.37
19.15
40.87
57.15
69.06
77.86
84.57
89.82
93.86
96.83
98.86
100.28
101.52
103.01
105.04
107.70
110.90
114.33
117.58
120.12
121.46
121.16
118.92
114.62
108.29
100.14
90.56
80.11
69.55
59.61
50.89
43.65
37.73
32.63
27.62
21.91
14.74
5.47
-6.20
-19.96
-34.59
-47.83
-56.69
-58.15
-50.04
-31.81
-4.81
27.98
62.68
95.40
123.00
143.55
156.43
162.09
161.60
156.30
147.37
135.73
122.11
107.18
91.77
76.89
63.54
52.51
44.15
38.36
34.78
33.09
33.17
35.18
39.37
45.84
54.38
64.27
74.34
83.10
88.91
90.41
86.74
77.74
63.98
46.50
26.44
4.81
-17.80
-41.21
-65.65
-91.57
-119.32
-148.75
-178.71
-206.85
-229.85
-244.20
-247.37
-238.76
-220.08
-194.85
-167.42
-141.56
-119.68
-102.52
-89.59
-79.84
-72.31
-66.40
-61.72
-57.85
-54.18
-49.91
-44.40
-37.47
-29.59
-21.66
-14.68
-9.28
-5.51
-2.84
-0.54
1.86
4.29
6.10
6.31
3.96
-1.35
-9.34
-19.06
-29.31
-39.03
-47.73
-55.59
-63.32
-71.85
-82.01
-94.36
-108.89
-124.86
-140.57
-153.41
-160.29
-158.39
-146.00
-123.23
-92.11
-56.11
-19.19
15.12
44.46
67.78
85.17
97.32
105.15
109.41
110.70
109.56
106.62
102.74
98.90
95.91
94.12
93.34
92.92
92.15
90.61
88.26
85.43
82.48
79.48
76.12
71.71
65.46
56.82
45.68
32.50
18.13
3.59
-10.33
-23.18
-34.99
-46.15
-57.26
-69.01
-82.05
-96.82
-113.18
-130.15
-145.63
-156.65
-160.05
-153.43
-136.05
-109.17
-75.80
-39.76
-4.69
26.74
53.22
74.53
91.15
103.74
112.85
118.95
122.46
123.95
124.12
123.75
123.47
123.61
124.20
125.06
125.92
126.58
126.90
126.70
125.71
123.59
120.04
115.02
108.77
101.73
94.29
86.62
78.62
69.99
60.46
50.00
38.88
27.57
16.60
6.32
-3.21
-12.34
-21.78
-32.48
-45.28
-60.39
-76.88
-92.46
-103.72
-107.09
-99.94
-81.57
-53.52
-18.96
18.27
54.78
88.24
117.36
141.54
160.37
173.44
180.47
181.50
177.22
168.97
158.65
148.36
139.94
134.53
132.27
132.30
133.19
133.49
132.20
129.04
124.25
118.23
111.19
102.95
93.15
81.43
67.67
52.00
34.73
16.04
-4.05
-25.69
-49.04
-73.93
-99.78
-125.57
-150.18
-172.83
-193.49
-212.99
-232.80
-254.52
-279.26
-306.99
-336.24
-364.07
-386.59
-399.79
-400.65
-388.15
-363.72
-330.98
-294.71
-259.52
-228.60
-203.15
-182.59
-165.23
-149.14
-132.66
-114.64
-94.51
-72.14
-47.86
-22.38
3.23
27.84
50.48
70.64
88.29
103.72
117.34
129.35
139.67
148.00
153.91
157.07
157.39
155.03
150.33
143.71
135.56
126.07
115.35
103.42
90.38
76.45
61.96
47.29
32.72
18.24
3.53
-11.98
-28.84
-47.06
-65.75
-82.91
-95.76
-101.39
-97.67
-83.99
-61.58
-33.19
-2.33
27.60
54.06
75.70
92.23
104.01
111.67
115.74
116.66
114.86
110.89
105.51
99.60
93.92
88.87
84.50
80.51
76.52
72.21
67.42
62.13
56.30
49.83
42.52
34.18
24.65
13.84
1.75
-11.59
-26.03
-41.32
-57.06
-72.72
-87.78
-101.90
-115.01
-127.28
-139.15
-151.20
-164.14
-178.63
-194.95
-212.49
-229.44
-242.79
-248.99
-245.02
-229.41
-202.83
-167.90
-128.35
-87.95
-49.67
-15.44
13.82
37.80
56.65
70.75
80.79
87.69
92.49
96.08
99.11
101.90
104.40
106.45
107.92
108.82
109.36
109.86
110.50
111.19
111.49
110.69
108.15
103.53
96.98
89.03
80.28
71.12
61.53
51.13
39.50
26.47
12.37
-2.06
-15.87
-28.27
-38.93
-48.07
-56.45
-65.22
-75.54
-88.17
-103.02
-118.69
-132.68
-141.78
-143.08
-134.84
-117.03
-91.38
-60.71
-28.23
3.27
31.77
56.10
75.77
90.78
101.47
108.41
112.32
113.95
113.97
112.94
111.26
109.26
107.20
105.32
103.90
103.17
103.22
103.95
104.89
105.27
104.25
101.09
95.47
87.55
77.93
67.39
56.66
46.14
35.94
25.90
15.82
5.65
-4.51
-14.40
-23.76
-32.47
-40.67
-48.72
-57.18
-66.73
-77.89
-90.72
-104.52
-117.55
-127.22
-130.59
-125.24
-110.09
-85.87
-54.96
-20.70
13.49
44.85
71.61
92.83
108.18
117.67
121.57
120.48
115.36
107.42
97.94
88.04
78.52
69.84
62.13
55.43
49.69
44.80
40.62
36.90
33.39
29.80
25.90
21.52
16.56
10.88
4.42
-2.74
-10.34
-17.88
-24.66
-30.06
-33.59
-35.20
-35.14
-33.96
-32.32
-31.03
-30.95
-32.91
-37.47
-44.43
-52.51
-59.32
-61.83
-57.28
-44.10
-22.48
5.75
37.68
70.18
100.55
126.89
148.07
163.53
173.16
177.18
176.19
171.11
163.11
153.39
142.98
132.65
122.76
113.41
104.56
96.16
88.17
80.56
73.06
65.16
56.11
45.10
31.66
15.85
-1.69
-20.01
-38.11
-55.34
-71.49
-86.64
-100.89
-114.04
-125.53
-134.67
-141.05
-144.79
-146.67
-147.93
-149.94
-153.80
-160.14
-168.86
-178.96
-188.48
-194.68
-194.53
-185.59
-166.68
-138.52
-103.54
-65.29
-27.53
6.74
35.66
58.59
75.77
87.94
95.98
100.75
103.02
103.41
102.43
100.42
97.58
93.91
89.35
83.84
77.49
70.60
63.61
56.94
50.80
45.04
39.15
32.47
24.48
15.05
4.54
-6.37
-17.06
-27.20
-36.87
-46.41
-56.08
-65.83
-75.33
-84.04
-91.53
-97.63
-102.46
-106.42
-110.09
-114.19
-119.39
-126.03
-133.72
-141.02
-145.51
-144.44
-135.58
-118.16
-93.26
-63.57
-32.59
-3.58
21.20
40.74
55.12
65.07
71.46
75.09
76.57
76.42
75.08
72.95
70.45
67.98
65.96
64.86
65.08
66.97
70.58
75.71
81.84
88.30
94.41
99.60
103.46
105.70
106.19
104.77
101.35
95.84
88.18
78.39
66.55
52.82
37.40
20.41
1.82
-18.59
-41.32
-66.87
-95.46
-126.61
-158.66
-188.78
-213.27
-228.50
-231.92
-222.84
-202.72
-174.64
-142.45
-109.74
-79.18
-52.31
-29.71
-11.37
2.93
13.46
20.51
24.45
25.83
25.33
23.80
22.12
20.99
20.88
21.90
23.92
26.57
29.50
32.25
34.40
35.56
35.42
33.89
31.04
27.11
22.29
16.72
10.36
3.20
-4.66
-12.97
-21.32
-29.32
-36.75
-43.67
-50.48
-57.83
-66.50
-77.10
-89.74
-103.60
-116.77
-126.45
-129.53
-123.62
-107.78
-82.99
-51.93
-18.15
14.83
44.37
68.96
88.13
102.02
111.01
115.57
116.24
113.74
109.01
103.20
97.38
92.42
88.81
86.65
85.72
85.64
85.95
86.20
85.94
84.76
82.34
78.52
73.38
67.23
60.48
53.44
46.17
38.47
29.98
20.46
9.96
-1.09
-11.99
-22.06
-30.94
-38.79
-46.32
-54.69
-65.20
-78.87
-96.02
-115.79
-135.93
-153.11
-163.64
-164.43
-154.04
-133.17
-104.46
-71.81
-39.32
-10.38
12.83
29.45
39.63
44.11
43.93
40.19
34.04
26.64
19.13
12.44
7.18
3.48
1.10
-0.45
-1.53
-2.34
-2.82
-2.79
-2.29
-1.58
-1.18
-1.64
-3.33
-6.33
-10.50
-15.59
-21.45
-28.14
-35.79
-44.54
-54.23
-64.41
-74.35
-83.35
-91.01
-97.53
-103.74
-110.93
-120.40
-132.84
-147.81
-163.34
-176.18
-182.55
-179.17
-164.37
-138.70
-104.71
-66.30
-27.50
8.37
39.23
64.21
83.25
96.76
105.35
109.73
110.73
109.26
106.22
102.38
98.37
94.60
91.31
88.64
86.65
85.29
84.41
83.67
82.61
80.69
77.47
72.67
66.25
58.41
49.45
39.63
29.09
17.81
5.82
-6.70
-19.38
-31.65
-43.02
-53.19
-62.28
-70.80
-79.62
-89.83
-102.42
-117.83
-135.41
-153.16
-167.85
-175.72
-173.60
-159.97
-135.53
-102.99
-66.22
-29.11
5.32
35.26
60.03
79.60
94.19
104.08
109.65
111.45
110.37
107.46
103.86
100.52
98.05
96.72
96.42
96.82
97.34
97.30
95.96
92.70
87.18
79.42
69.84
59.09
47.87
36.70
25.80
15.18
4.60
-6.24
-17.68
-29.87
-42.72
-55.82
-68.52
-80.18
-90.46
-99.58
-108.45
-118.41
-130.80
-146.30
-164.30
-182.59
-197.56
-205.01
-201.36
-184.76
-155.79
-117.31
-73.67
-29.48
11.45
46.74
75.47
97.77
114.28
125.75
132.88
136.39
137.06
135.87
133.76
131.45
129.30
127.23
124.98
122.36
119.46
116.59
114.08
111.96
109.78
106.76
102.13
95.45
86.88
77.00
66.60
56.29
46.28
36.32
25.89
14.49
1.89
-11.65
-25.46
-38.68
-50.64
-61.16
-70.71
-80.40
-91.58
-105.45
-122.37
-141.41
-160.16
-175.07
-182.27
-178.63
-162.75
-135.45
-99.51
-58.94
-17.97
19.87
52.24
78.01
97.02
109.71
116.92
119.65
119.04
116.25
112.30
108.06
104.02
100.33
96.92
93.65
90.45
87.53
85.22
83.75
83.09
82.80
82.09
80.03
75.91
69.50
61.11
51.47
41.44
31.59
22.07
12.57
2.56
-8.35
-20.18
-32.50
-44.64
-55.96
-66.10
-75.24
-84.06
-93.59
-104.91
-118.63
-134.42
-150.65
-164.43
-172.14
-170.51
-157.59
-133.51
-100.53
-62.42
-23.40
12.89
44.03
68.89
87.41
100.07
107.60
110.81
110.58
107.93
103.95
99.68
95.91
93.08
91.20
90.06
89.42
89.14
89.22
89.67
90.26
90.50
89.69
87.18
82.72
76.54
69.33
61.90
54.83
48.20
41.53
34.05
25.11
14.47
2.41
-10.42
-23.42
-36.28
-49.23
-62.85
-78.01
-95.42
-115.49
-137.87
-161.16
-182.77
-199.18
-206.69
-202.50
-185.79
-158.07
-122.94
-85.01
-48.64
-16.97
8.46
27.45
40.61
48.84
53.03
54.06
52.82
50.28
47.31
44.69
42.90
42.22
42.73
44.41
47.18
50.79
54.86
58.76
61.83
63.51
63.47
61.65
58.21
53.36
47.29
40.17
32.11
23.24
13.72
3.71
-6.66
-17.22
-27.82
-38.28
-48.51
-58.64
-69.18
-80.97
-94.80
-110.85
-128.18
-144.42
-156.20
-159.98
-153.24
-135.37
-107.96
-74.38
-38.71
-4.78
24.66
48.15
65.32
76.49
82.33
83.69
81.56
77.02
71.13
64.84
58.82
53.46
48.97
45.40
42.72
40.84
39.55
38.51
37.33
35.59
32.99
29.39
24.74
19.06
12.29
4.31
-4.98
-15.59
-27.32
-39.77
-52.40
-64.67
-76.24
-87.00
-97.08
-106.83
-116.80
-127.68
-140.09
-154.30
-169.65
-184.32
-195.38
-199.48
-193.79
-177.07
-150.14
-115.73
-77.64
-39.76
-5.13
24.41
48.15
66.18
78.94
87.03
91.08
91.83
90.14
87.03
83.55
80.56
78.64
77.92
78.23
79.15
80.25
81.13
81.52
81.23
80.18
78.40
75.90
72.69
68.67
63.68
57.51
50.11
41.57
32.21
22.43
12.63
3.06
-6.21
-15.35
-24.80
-35.24
-47.48
-62.04
-78.66
-95.84
-110.84
-120.17
-120.61
-110.26
-89.24
-59.69
-25.13
10.59
44.19
73.50
97.44
115.72
128.41
135.70
137.90
135.54
129.57
121.29
112.24
103.81
96.96
92.00
88.57
85.91
83.20
79.89
75.78
71.10
66.23
61.49
56.90
52.16
46.66
39.68
30.68
19.54
6.70
-6.99
-20.57
-33.29
-44.94
-55.88
-66.88
-78.81
-92.41
-108.03
-125.29
-142.87
-158.43
-168.90
-171.19
-163.10
-144.23
-116.22
-82.41
-46.92
-13.43
15.52
38.77
56.27
68.55
76.23
79.88
80.00
77.17
72.10
65.60
58.45
51.24
44.30
37.76
31.65
26.00
20.82
16.05
11.55
7.10
2.47
-2.43
-7.59
-12.97
-18.58
-24.59
-31.26
-38.81
-47.35
-56.68
-66.44
-76.14
-85.41
-94.03
-102.10
-110.02
-118.53
-128.44
-140.34
-154.03
-168.11
-179.95
-186.12
-183.34
-169.53
-144.59
-110.56
-71.03
-30.18
8.32
42.01
69.84
91.86
108.64
120.85
128.99
133.41
134.51
132.90
129.42
125.02
120.51
116.44
112.97
110.03
107.42
104.96
102.49
99.86
96.85
93.13
88.38
82.34
74.95
66.30
56.62
46.09
34.80
22.70
9.74
-3.93
-17.92
-31.64
-44.48
-56.15
-66.82
-77.23
-88.52
-101.85
-117.85
-136.08
-154.63
-170.26
-179.09
-177.71
-164.32
-139.44
-105.80
-67.59
-29.11
6.21
36.45
61.09
80.41
94.97
105.28
111.77
115.01
115.73
114.83
113.12
111.11
108.94
106.52
103.78
100.86
98.14
96.02
94.70
93.96
93.20
91.64
88.61
83.79
77.28
69.49
60.91
51.89
42.55
32.79
22.49
11.61
0.34
-11.00
-22.01
-32.47
-42.44
-52.31
-62.80
-74.74
-88.76
-104.85
-121.91
-137.65
-148.90
-152.34
-145.51
-127.75
-100.41
-66.65
-30.41
4.52
35.38
60.69
80.12
94.03
103.06
107.88
109.09
107.37
103.48
98.30
92.74
87.51
83.10
79.71
77.32
75.74
74.69
73.83
72.71
70.84
67.75
63.12
56.85
49.12
40.28
30.79
20.99
11.08
1.06
-9.20
-19.86
-30.95
-42.27
-53.46
-64.12
-74.03
-83.36
-92.74
-103.19
-115.59
-130.22
-146.16
-161.15
-171.90
-174.94
-167.69
-149.33
-121.14
-86.25
-48.68
-12.35
19.81
46.28
66.82
82.03
92.80
99.90
103.89
105.17
104.16
101.45
97.72
93.62
89.59
85.86
82.51
79.58
77.17
75.35
74.04
72.90
71.37
68.81
64.74
58.98
51.66
43.11
33.77
23.97
13.92
3.65
-6.87
-17.64
-28.52
-39.27
-49.60
-59.38
-68.74
-78.22
-88.68
-100.97
-115.48
-131.63
-147.62
-160.53
-167.03
-164.31
-151.08
-128.00
-97.55
-63.33
-29.09
2.14
28.47
49.20
64.47
74.93
81.32
84.40
84.85
83.34
80.52
76.96
73.14
69.35
65.69
62.15
58.74
55.48
52.45
49.71
47.16
44.45
41.07
36.59
30.75
23.72
15.94
7.99
0.25
-7.22
-14.75
-22.83
-31.82
-41.74
-52.19
-62.51
-72.05
-80.45
-87.83
-94.90
-102.72
-112.47
-124.86
-139.53
-154.76
-167.52
-174.18
-171.54
-157.89
-133.72
-101.57
-65.31
-29.08
3.78
31.24
52.68
68.42
79.16
85.73
88.79
88.99
86.99
83.58
79.57
75.65
72.27
69.63
67.71
66.35
65.42
64.78
64.25
63.65
62.66
60.94
58.08
53.85
48.13
41.01
32.74
23.62
13.87
3.61
-7.08
-18.08
-29.13
-39.89
-50.03
-59.43
-68.37
-77.52
-87.82
-100.07
-114.38
-129.69
-143.63
-152.93
-154.24
-145.22
-125.36
-96.23
-61.11
-23.97
11.45
42.41
67.38
86.00
98.66
106.13
109.30
109.01
106.03
101.19
95.39
89.58
84.67
81.19
79.27
78.58
78.53
78.51
78.12
77.19
75.78
74.00
71.90
69.39
66.14
61.64
55.26
46.53
35.31
21.99
7.41
-7.37
-21.41
-34.21
-45.83
-56.87
-68.38
-81.51
-97.10
-115.19
-134.54
-152.46
-165.26
-169.19
-161.57
-141.84
-111.78
-75.06
-36.17
0.63
32.17
56.61
73.43
83.05
86.49
85.16
80.54
74.00
66.68
59.51
53.24
48.50
45.82
45.47
47.37
51.07
55.85
60.92
65.61
69.46
72.22
73.70
73.74
72.08
68.48
62.77
55.01
45.44
34.50
22.65
10.17
-2.89
-16.85
-32.21
-49.53
-69.32
-91.90
-117.36
-145.37
-174.85
-203.79
-229.13
-247.27
-254.76
-249.31
-230.58
-200.44
-162.65
-121.99
-83.15
-49.84
-24.29
-7.22
1.75
3.59
-0.32
-8.13
-17.18
-23.93
-24.47
-15.52
4.20
33.20
67.44
101.62
130.94
152.41
165.40
170.99
170.96
166.88
159.81
150.53
140.12
130.22
122.87
119.96
122.72
131.37
145.21
163.09
183.61
205.34
226.58
245.24
258.74
264.36
259.86
244.27
218.51
185.52
149.90
117.06
91.96
77.99
76.05
84.35
98.92
114.81
127.50
134.05
133.54
126.72
115.25
100.77
84.40
66.66
47.72
27.79
7.39
-12.77
-31.95
-49.65
-65.66
-80.05
-93.08
-105.07
-116.55
-128.17
-140.81
-155.25
-171.91
-190.45
-209.63
-227.43
-241.60
-250.29
-252.48
-248.09
-237.81
-222.67
-203.96
-183.41
-163.63
-148.26
-141.57
-147.35
-167.39
-200.24
-240.77
-280.86
-311.29
-323.90
-313.55
-279.09
-223.18
-151.30
-70.44
12.20
90.06
157.82
211.73
249.84
272.08
279.98
276.18
263.65
245.11
222.70
197.90
171.81
145.23
118.69
92.52
66.91
42.05
18.31
-3.73
-23.41
-40.25
-54.17
-65.58
-75.25
-84.09
-92.95
-102.44
-112.99
-124.73
-137.55
-151.17
-165.15
-179.05
-192.49
-205.31
-217.40
-228.63
-238.50
-245.86
-248.93
-245.71
-234.44
-214.46
-186.58
-153.05
-116.97
-81.48
-48.97
-20.71
2.95
22.11
36.80
46.93
52.63
54.54
53.98
52.57
51.48
50.91
49.94
46.92
40.21
28.98
13.59
-4.45
-22.93
-39.72
-53.19
-62.85
-69.29
-74.03
-79.07
-86.16
-96.28
-109.37
-124.48
-140.23
-155.30
-168.81
-180.55
-190.93
-200.86
-211.64
-224.51
-240.15
-258.01
-275.91
-290.31
-297.12
-293.16
-277.30
-250.81
-216.85
-179.07
-140.28
-101.69
-63.11
-23.97
15.53
53.84
88.32
116.19
135.65
146.55
150.43
149.74
147.01
144.00
141.50
139.56
137.96
136.61
135.60
135.00
134.56
133.59
131.09
125.99
117.64
105.94
91.56
75.66
59.58
44.40
30.61
17.99
5.64
-7.54
-22.60
-40.19
-60.47
-83.06
-107.00
-130.59
-151.34
-166.30
-172.68
-168.62
-153.94
-130.16
-99.94
-66.03
-30.34
6.47
44.60
84.05
123.80
161.43
193.81
218.15
233.20
239.71
240.04
237.13
233.38
230.02
227.13
224.19
220.76
216.79
212.64
208.70
204.94
200.88
195.51
187.68
176.43
161.30
142.55
121.08
98.16
75.04
52.58
31.13
10.54
-9.70
-30.38
-52.46
-76.88
-104.03
-133.17
-161.84
-186.00
-200.84
-202.18
-187.87
-158.69
-118.03
-70.97
-22.81
22.09
60.96
92.49
116.38
132.88
142.36
145.39
142.79
135.85
126.29
116.01
106.68
99.27
93.93
90.09
86.96
83.90
80.72
77.62
74.85
72.32
69.46
65.31
58.78
49.16
36.35
21.00
4.27
-12.45
-28.07
-42.04
-54.60
-66.67
-79.63
-94.86
-113.25
-134.57
-157.12
-177.64
-191.90
-195.62
-185.74
-161.33
-124.06
-77.72
-27.26
22.43
67.55
105.85
136.53
159.84
176.54
187.53
193.70
195.93
195.15
192.39
188.68
184.91
181.68
179.24
177.49
176.16
174.85
173.20
170.97
168.02
164.39
160.12
155.16
149.27
141.99
132.82
121.48
108.19
93.65
78.90
64.98
52.51
41.51
31.34
20.92
8.83
-6.36
-25.85
-50.07
-78.13
-107.43
-133.80
-152.34
-158.78
-150.95
-129.57
-98.21
-62.16
-26.86
3.53
27.00
43.46
54.02
60.03
62.32
61.16
56.51
48.51
37.75
25.32
12.49
0.39
-10.22
-19.08
-26.19
-31.73
-35.94
-39.06
-41.37
-43.15
-44.67
-46.18
-47.96
-50.39
-53.95
-59.14
-66.27
-75.32
-85.79
-96.87
-107.63
-117.34
-125.79
-133.39
-141.07
-149.99
-161.17
-175.07
-191.18
-207.71
-221.67
-229.25
-226.69
-211.45
-183.12
-143.90
-98.12
-51.17
-7.99
28.06
55.69
75.40
88.63
96.95
101.53
103.06
102.08
99.28
95.59
92.06
89.48
88.08
87.52
87.06
85.95
83.78
80.54
76.59
72.35
67.97
63.21
57.53
50.30
41.13
30.03
17.48
4.28
-8.75
-21.00
-32.21
-42.49
-52.20
-61.82
-71.87
-82.98
-95.70
-110.25
-126.06
-141.37
-153.22
-158.06
-152.77
-135.83
-108.01
-72.38
-33.37
4.44
37.56
64.12
83.78
97.22
105.40
109.20
109.30
106.34
101.13
94.75
88.34
82.84
78.65
75.62
73.16
70.64
67.73
64.54
61.52
59.04
57.07
54.98
51.67
46.06
37.55
26.32
13.35
0.01
-12.47
-23.43
-32.96
-41.86
-51.32
-62.55
-76.41
-92.92
-111.02
-128.33
-141.48
-146.71
-141.03
-123.24
-94.52
-58.30
-19.28
17.89
49.80
74.86
93.04
105.26
112.58
115.84
115.65
112.66
107.76
102.07
96.55
91.67
87.29
82.83
77.67
71.50
64.55
57.45
50.95
45.48
41.00
36.89
32.16
25.82
17.23
6.44
-5.78
-18.19
-29.50
-38.92
-46.43
-52.75
-59.13
-66.85
-76.96
-89.86
-105.10
-121.06
-134.97
-143.28
-142.47
-130.26
-106.50
-73.51
-35.53
2.46
36.07
62.49
80.76
91.32
95.44
94.44
89.49
81.49
71.25
59.72
47.96
37.07
27.96
21.06
16.29
13.14
10.90
9.08
7.46
6.21
5.55
5.49
5.66
5.29
3.45
-0.62
-7.17
-15.83
-25.68
-35.57
-44.57
-52.25
-58.91
-65.42
-73.01
-82.91
-95.89
-111.80
-129.24
-145.39
-156.49
-158.60
-148.80
-126.09
-91.82
-49.37
-3.18
42.34
83.82
119.25
147.92
170.07
186.45
198.04
205.98
211.43
215.49
219.15
223.15
227.98
233.73
240.10
246.35
251.30
253.59
251.93
245.45
233.87
217.54
197.15
173.37
146.65
117.15
85.02
50.67
14.90
-21.14
-56.33
-89.91
-121.59
-151.53
-180.02
-207.43
-234.14
-260.83
-288.51
-318.30
-350.64
-384.34
-416.15
-441.04
-453.41
-448.74
-425.26
-384.49
-330.92
-270.62
-209.77
-153.57
-105.66
-68.17
-41.82
-26.17
-19.78
-20.52
-26.04
-34.12
-43.00
-51.41
-58.34
-62.94
-64.41
-62.23
-56.33
-47.26
-36.11
-24.44
-14.02
-6.69
-3.98
-6.56
-13.86
-24.06
-34.81
-44.13
-51.44
-57.88
-65.97
-78.82
-99.17
-128.63
-167.18
-212.79
-261.23
-306.57
-342.24
-362.82
-365.71
-351.94
-325.67
-292.57
-257.80
-224.78
-194.88
-168.10
-143.96
-121.98
-101.70
-82.45
-63.25
-43.15
-21.58
1.21
24.26
46.36
66.55
84.71
101.74
119.36
139.42
162.90
189.19
215.71
238.53
253.55
258.00
251.43
235.76
214.33
190.60
166.96
144.32
122.40
100.37
77.53
53.53
28.54
3.34
-20.55
-40.82
-54.72
-59.84
-54.86
-40.01
-16.88
12.26
45.21
80.15
115.53
149.57
180.08
204.71
221.60
230.06
230.91
226.13
218.13
209.07
200.41
192.83
186.51
181.37
177.30
174.17
171.76
169.73
167.57
164.67
160.38
154.21
145.93
135.63
123.76
110.98
97.95
85.04
72.24
59.07
44.83
28.71
10.11
-11.20
-34.82
-59.41
-82.66
-101.35
-112.00
-111.68
-99.08
-75.06
-42.61
-6.02
30.29
62.95
90.17
111.75
128.32
140.65
149.20
154.09
155.53
154.18
151.32
148.52
147.08
147.57
149.65
152.37
154.80
156.46
157.51
158.45
159.70
161.19
162.30
162.14
159.89
155.21
148.28
139.65
129.90
119.31
107.76
94.69
79.35
61.05
39.22
13.52
-16.04
-48.83
-83.29
-116.70
-145.39
-165.45
-173.81
-169.28
-153.12
-128.76
-100.78
-73.56
-50.25
-32.22
-19.41
-10.99
-6.07
-4.12
-4.87
-7.98
-12.75
-18.02
-22.52
-25.30
-26.07
-25.33
-23.92
-22.67
-21.92
-21.42
-20.61
-18.97
-16.49
-13.82
-12.14
-12.74
-16.49
-23.57
-33.28
-44.38
-55.57
-65.92
-75.20
-83.81
-92.68
-102.82
-115.06
-129.58
-145.62
-161.30
-173.83
-180.01
-177.12
-163.81
-140.56
-109.76
-74.95
-40.01
-8.09
18.83
40.00
55.58
66.12
72.28
74.73
74.25
71.84
68.58
65.39
62.71
60.33
57.63
53.90
48.86
42.80
36.53
30.90
26.42
23.03
20.05
16.60
11.85
5.33
-2.94
-12.47
-22.48
-32.11
-40.78
-48.30
-55.07
-61.95
-70.03
-80.20
-92.66
-106.53
-119.77
-129.43
-132.44
-126.45
-110.67
-86.23
-55.90
-23.30
8.10
35.74
58.31
75.52
87.67
95.18
98.43
97.78
93.79
87.30
79.42
71.32
63.97
57.91
53.22
49.58
46.48
43.51
40.44
37.33
34.33
31.56
28.93
26.10
22.51
17.64
11.13
2.94
-6.61
-16.95
-27.47
-37.67
-47.37
-56.74
-66.24
-76.56
-88.38
-102.16
-117.87
-134.63
-150.63
-163.22
-169.42
-166.72
-153.85
-131.38
-101.68
-68.25
-34.87
-4.65
20.57
40.23
54.73
64.96
71.78
75.88
77.71
77.68
76.21
73.88
71.34
69.14
67.58
66.62
65.93
65.01
63.45
61.01
57.68
53.57
48.82
43.47
37.47
30.71
23.08
14.54
5.20
-4.75
-15.03
-25.29
-35.18
-44.43
-52.91
-60.73
-68.21
-75.90
-84.47
-94.52
-106.11
-118.41
-129.48
-136.50
-136.48
-127.33
-108.66
-82.03
-50.65
-18.35
11.50
36.70
56.44
70.95
80.91
86.98
89.61
89.19
86.26
81.65
76.42
71.64
68.02
65.81
64.72
64.18
63.53
62.31
60.32
57.64
54.46
51.01
47.41
43.56
39.16
33.75
26.87
18.34
8.34
-2.55
-13.55
-23.98
-33.41
-41.80
-49.45
-56.96
-65.04
-74.37
-85.25
-97.23
-108.82
-117.52
-120.38
-114.77
-99.49
-75.27
-44.77
-11.83
19.65
46.75
68.02
83.31
93.24
98.62
100.06
98.02
93.02
85.92
77.90
70.21
63.77
58.94
55.44
52.53
49.50
45.95
41.96
37.89
34.16
30.75
27.15
22.48
15.87
6.87
-4.33
-16.94
-29.89
-42.22
-53.36
-63.26
-72.36
-81.39
-91.25
-102.81
-116.64
-132.59
-149.41
-164.68
-175.08
-177.31
-169.05
-149.85
-121.36
-86.92
-50.52
-15.87
14.41
38.93
57.29
69.65
76.44
78.25
75.90
70.51
63.37
55.78
48.75
42.82
38.00
33.95
30.27
26.74
23.47
20.83
19.14
18.33
17.77
16.32
12.70
5.89
-4.39
-17.57
-32.42
-47.49
-61.63
-74.27
-85.57
-96.27
-107.45
-120.23
-135.45
-153.17
-172.33
-190.62
-204.67
-210.81
-206.16
-189.55
-162.01
-126.56
-87.36
-48.58
-13.47
16.03
39.21
56.11
67.10
72.64
73.34
70.13
64.42
57.90
52.20
48.46
47.05
47.51
48.95
50.46
51.48
51.84
51.65
50.91
49.28
46.08
40.56
32.21
21.11
8.02
-5.74
-18.77
-30.04
-39.29
-47.19
-55.12
-64.78
-77.58
-94.10
-113.64
-134.17
-152.50
-164.95
-168.21
-160.20
-140.65
-111.25
-75.21
-36.48
1.18
34.87
62.83
84.30
99.27
108.14
111.57
110.47
106.04
99.69
92.88
86.80
82.11
78.87
76.63
74.71
72.60
70.19
67.73
65.60
63.99
62.52
60.31
56.20
49.21
39.12
26.49
12.66
-0.92
-13.23
-24.11
-34.33
-45.19
-58.13
-74.05
-93.01
-113.87
-134.33
-151.14
-160.74
-160.06
-147.47
-123.32
-89.99
-51.32
-11.60
25.44
57.24
82.54
101.07
113.17
119.45
120.74
118.09
112.84
106.46
100.38
95.64
92.65
91.19
90.58
90.09
89.24
87.98
86.54
85.10
83.48
81.00
76.71
69.79
60.01
47.86
34.53
21.41
9.60
-0.48
-9.33
-18.11
-28.33
-41.16
-56.79
-74.04
-90.30
-102.02
-105.62
-98.56
-80.19
-51.98
-17.20
19.98
55.48
86.14
110.11
126.78
136.45
139.95
138.36
132.85
124.60
114.78
104.43
94.33
85.02
76.69
69.33
62.85
57.07
51.67
46.24
40.16
32.78
23.63
12.54
-0.23
-14.06
-28.15
-41.74
-54.28
-65.66
-76.25
-86.85
-98.42
-111.61
-126.18
-140.58
-151.99
-156.94
-152.37
-136.81
-110.98
-77.74
-41.22
-5.68
25.58
50.68
69.15
81.42
88.36
90.88
89.86
86.18
80.74
74.42
68.01
62.03
56.78
52.37
48.75
45.82
43.38
41.07
38.34
34.51
28.92
21.13
11.13
-0.66
-13.45
-26.38
-38.81
-50.51
-61.82
-73.51
-86.46
-101.17
-117.23
-132.92
-145.36
-151.14
-147.30
-132.40
-107.07
-73.91
-36.77
0.29
33.94
61.98
83.49
98.47
107.55
111.76
112.28
110.34
107.11
103.53
100.20
97.39
95.07
93.10
91.26
89.47
87.72
86.03
84.29
82.15
78.99
74.09
66.85
57.03
44.95
31.34
17.16
3.27
-9.85
-22.24
-34.48
-47.48
-62.15
-78.92
-97.24
-115.31
-130.32
-139.05
-138.84
-128.56
-108.99
-82.72
-53.29
-24.33
1.37
22.18
37.62
47.88
53.59
55.41
54.10
50.44
45.37
39.87
34.81
30.73
27.64
25.11
22.45
19.06
14.69
9.49
3.86
-1.94
-8.02
-14.93
-23.33
-33.59
-45.44
-57.96
-69.91
-80.28
-88.78
-95.95
-102.99
-111.23
-121.65
-134.47
-148.95
-163.45
-175.60
-182.74
-182.39
-172.98
-154.30
-127.71
-95.90
-62.16
-29.68
-0.82
23.11
41.82
55.59
64.91
70.27
72.09
70.93
67.48
62.65
57.34
52.23
47.61
43.45
39.48
35.43
31.11
26.48
21.46
15.83
9.25
1.36
-8.01
-18.74
-30.36
-42.18
-53.53
-63.92
-73.11
-81.24
-88.70
-96.00
-103.49
-110.99
-117.58
-121.58
-120.93
-113.77
-99.19
-77.66
-51.02
-22.06
6.19
31.16
51.22
65.74
74.91
79.41
80.15
78.07
74.09
69.07
63.77
58.74
54.19
50.04
45.95
41.65
37.03
32.26
27.72
23.73
20.35
17.32
14.16
10.40
5.78
0.39
-5.48
-11.49
-17.50
-23.72
-30.76
-39.44
-50.58
-64.52
-80.75
-97.71
-112.75
-122.78
-124.82
-117.07
-99.33
-73.24
-41.87
-8.82
22.51
49.72
71.54
87.74
98.65
104.85
106.93
105.45
101.17
95.06
88.28
81.97
76.86
73.06
70.15
67.43
64.35
60.79
57.03
53.48
50.25
46.96
42.78
36.80
28.54
18.14
6.40
-5.66
-17.14
-27.58
-37.09
-46.20
-55.70
-66.40
-78.95
-93.38
-108.90
-123.68
-135.01
-139.92
-136.02
-122.24
-99.34
-69.66
-36.56
-3.44
26.93
52.86
73.61
89.03
99.26
104.53
105.23
102.13
96.49
89.84
83.65
78.91
75.85
74.06
72.77
71.32
69.44
67.20
64.87
62.61
60.22
57.17
52.75
46.33
37.66
26.92
14.74
1.92
-10.75
-22.81
-34.18
-45.27
-56.83
-69.67
-84.36
-100.74
-117.60
-132.67
-142.94
-145.44
-138.14
-120.64
-94.49
-62.76
-29.24
2.43
29.55
50.64
65.31
74.01
77.58
77.07
73.56
68.18
61.92
55.65
49.94
45.03
40.89
37.29
34.11
31.34
29.13
27.60
26.68
25.94
24.65
22.04
17.55
11.13
3.30
-5.03
-12.94
-19.85
-25.85
-31.77
-38.88
-48.42
-60.79
-75.16
-89.26
-99.87
-103.72
-98.43
-83.34
-59.65
-30.11
1.80
32.66
59.78
81.54
97.29
107.13
111.65
111.65
108.11
102.09
94.70
87.02
79.90
73.82
68.88
64.88
61.52
58.62
56.11
53.93
51.84
49.32
45.71
40.40
33.14
24.13
13.95
3.36
-7.02
-16.90
-26.40
-36.12
-46.93
-59.73
-75.01
-92.22
-109.57
-124.07
-132.18
-130.87
-118.63
-96.06
-65.73
-31.47
2.68
33.34
58.37
76.87
88.85
94.92
96.01
93.22
87.79
81.04
74.22
68.29
63.75
60.57
58.29
56.31
54.16
51.68
48.99
46.22
43.33
39.89
35.22
28.62
19.75
8.79
-3.47
-16.02
-27.89
-38.58
-48.19
-57.35
-67.01
-78.02
-90.81
-104.97
-119.09
-130.80
-137.21
-135.61
-124.35
-103.43
-74.66
-41.27
-7.04
24.57
51.13
71.39
85.14
92.77
94.99
92.70
86.93
78.90
69.93
61.23
53.66
47.58
42.85
39.04
35.71
32.58
29.68
27.09
24.80
22.52
19.64
15.50
9.66
2.11
-6.71
-16.06
-25.24
-33.90
-42.16
-50.60
-60.04
-71.13
-83.87
-97.24
-109.08
-116.49
-116.55
-107.35
-88.72
-62.39
-31.52
0.19
29.53
54.33
73.58
87.11
95.20
98.32
97.10
92.46
85.65
78.04
70.89
65.03
60.64
57.42
54.76
52.20
49.54
46.87
44.36
42.05
39.64
36.58
32.18
25.90
17.58
7.48
-3.74
-15.23
-26.14
-35.92
-44.48
-52.29
-60.25
-69.39
-80.25
-92.40
-104.15
-112.77
-115.34
-109.68
-95.26
-73.40
-46.93
-19.24
6.66
28.71
45.95
58.20
65.73
68.94
68.37
64.76
59.13
52.74
46.94
42.88
41.24
42.04
44.60
47.73
50.08
50.56
48.65
44.41
38.30
30.84
22.36
13.04
3.00
-7.40
-17.57
-26.82
-34.56
-40.63
-45.33
-49.37
-53.68
-59.20
-66.60
-76.03
-86.85
-97.49
-105.59
-108.49
-103.93
-90.85
-69.65
-42.28
-11.54
19.55
48.42
73.28
93.15
107.61
116.58
120.20
118.85
113.22
104.32
93.33
81.42
69.53
58.20
47.69
38.13
29.77
23.06
18.53
16.56
17.01
19.02
21.18
21.76
19.29
12.93
2.78
-10.24
-24.72
-39.26
-52.88
-65.25
-76.72
-87.98
-99.82
-112.67
-126.26
-139.49
-150.38
-156.46
-155.25
-144.96
-125.15
-96.93
-62.94
-26.80
7.67
37.10
59.18
72.83
78.13
76.13
68.53
57.35
44.72
32.55
22.41
15.29
11.58
10.99
12.75
15.80
19.06
21.73
23.36
23.96
23.77
23.12
22.17
20.89
19.04
16.48
13.31
9.88
6.70
3.92
1.05
-3.15
-10.32
-21.70
-37.32
-55.55
-73.23
-86.56
-92.40
-89.28
-77.90
-60.80
-41.39
-22.83
-7.28
4.43
12.44
17.35
19.69
19.80
17.94
14.58
10.57
7.00
4.88
4.80
6.69
9.96
13.83
17.57
20.84
23.49
25.38
26.21
25.44
22.53
17.24
9.83
1.09
-7.86
-15.97
-22.64
-27.93
-32.61
-38.00
-45.46
-55.94
-69.51
-84.98
-100.06
-111.73
-117.06
-114.05
-102.26
-83.01
-58.96
-33.32
-9.02
11.94
28.58
40.77
48.73
52.83
53.47
51.21
46.90
41.69
36.81
33.33
31.80
32.11
33.57
35.21
36.14
35.84
34.29
31.79
28.69
25.11
20.68
14.82
6.95
-3.09
-14.91
-27.55
-39.90
-51.07
-60.70
-69.00
-76.67
-84.62
-93.62
-103.99
-115.33
-126.31
-134.78
-138.07
-133.74
-120.33
-98.00
-68.55
-35.10
-1.21
30.02
56.51
77.44
92.92
103.60
110.20
113.29
113.33
110.81
106.36
100.81
95.00
89.56
84.80
80.63
76.68
72.62
68.25
63.61
58.95
54.53
50.49
46.70
42.79
38.17
32.28
24.79
15.80
5.82
-4.29
-13.72
-21.92
-28.86
-35.03
-41.33
-48.74
-58.14
-70.04
-84.27
-99.78
-114.59
-125.96
-131.00
-127.44
-114.39
-92.67
-64.67
-33.75
-3.31
23.92
46.34
63.41
75.45
83.14
87.24
88.43
87.34
84.60
80.94
77.13
73.83
71.38
69.76
68.54
67.14
65.03
61.94
57.93
53.29
48.37
43.35
38.15
32.33
25.33
16.60
5.93
-6.45
-19.86
-33.33
-45.84
-56.63
-65.33
-71.97
-77.04
-81.32
-85.80
-91.48
-99.00
-108.17
-117.65
-125.01
-127.23
-121.67
-107.07
-84.09
-55.23
-24.01
6.03
32.31
53.53
69.53
80.75
87.79
91.11
91.17
88.61
84.41
79.75
75.69
72.84
71.16
70.02
68.55
66.07
62.38
57.72
52.62
47.51
42.49
37.20
31.03
23.36
13.92
2.93
-8.89
-20.55
-31.20
-40.37
-48.21
-55.31
-62.54
-70.79
-80.72
-92.61
-106.07
-119.87
-131.82
-139.04
-138.71
-128.93
-109.51
-82.21
-50.31
-17.65
12.46
37.85
57.73
72.27
82.16
88.15
90.86
90.81
88.56
84.70
79.94
74.98
70.39
66.47
63.21
60.30
57.35
54.04
50.33
46.45
42.72
39.40
36.47
33.62
30.29
25.97
20.33
13.37
5.45
-2.85
-10.94
-18.37
-24.99
-31.01
-36.97
-43.54
-51.39
-60.96
-72.19
-84.25
-95.44
-103.37
-105.40
-99.47
-84.78
-62.31
-34.54
-4.92
23.15
47.10
65.63
78.61
86.71
90.84
91.88
90.49
87.20
82.52
77.02
71.30
65.92
61.20
57.26
54.03
51.34
48.99
46.85
44.76
42.50
39.76
36.21
31.65
26.04
19.56
12.49
5.08
-2.60
-10.60
-19.07
-28.04
-37.36
-46.66
-55.42
-63.19
-69.76
-75.39
-80.81
-87.07
-95.18
-105.50
-117.34
-128.80
-137.09
-139.24
-133.03
-117.71
-94.34
-65.39
-34.17
-3.90
22.84
44.53
60.67
71.49
77.67
80.05
79.47
76.81
72.89
68.53
64.36
60.78
57.85
55.43
53.34
51.47
49.89
48.71
47.95
47.36
46.44
44.61
41.42
36.72
30.72
23.85
16.62
9.38
2.25
-4.90
-12.32
-20.19
-28.50
-37.02
-45.28
-52.84
-59.46
-65.24
-70.69
-76.63
-83.93
-93.15
-104.17
-115.86
-126.15
-132.32
-131.76
-122.74
-105.04
-80.17
-50.91
-20.63
7.68
31.99
51.38
65.86
75.86
81.88
84.29
83.45
79.92
74.58
68.50
62.72
57.91
54.23
51.43
49.16
47.20
45.61
44.57
44.16
44.08
43.69
42.18
38.92
33.77
27.10
19.70
12.47
6.02
0.47
-4.55
-9.69
-15.56
-22.37
-29.87
-37.46
-44.48
-50.58
-55.78
-60.53
-65.54
-71.56
-79.18
-88.60
-99.36
-110.13
-118.67
-122.30
-118.58
-106.20
-85.58
-58.84
-29.19
-0.07
25.83
46.85
62.41
72.57
77.78
78.66
75.99
70.75
64.05
56.98
50.40
44.87
40.58
37.54
35.61
34.62
34.37
34.65
35.20
35.71
35.82
35.14
33.40
30.45
26.35
21.32
15.60
9.40
2.80
-4.22
-11.71
-19.65
-27.84
-35.94
-43.52
-50.18
-55.78
-60.46
-64.78
-69.55
-75.61
-83.40
-92.55
-101.60
-108.23
-109.72
-103.90
-89.77
-67.99
-40.62
-10.57
19.12
45.92
68.10
84.76
95.64
100.97
101.35
97.70
91.15
82.94
74.22
65.90
58.58
52.55
47.86
44.37
41.90
40.21
39.04
38.06
36.89
35.10
32.36
28.48
23.54
17.83
11.78
5.77
-0.06
-5.86
-12.04
-19.03
-27.12
-36.26
-46.06
-55.95
-65.41
-74.14
-82.24
-90.18
-98.72
-108.62
-120.21
-133.00
-145.42
-154.96
-158.75
-154.41
-140.90
-118.89
-90.63
-59.32
-28.18
0.21
24.21
43.16
57.07
66.29
71.39
72.96
71.70
68.30
63.55
58.17
52.88
48.23
44.63
42.24
41.01
40.71
40.97
41.41
41.69
41.55
40.72
38.98
36.10
31.96
26.57
20.11
12.86
5.07
-3.06
-11.45
-20.07
-28.77
-37.35
-45.57
-53.34
-60.92
-68.89
-78.02
-88.91
-101.40
-114.30
-125.30
-131.49
-130.11
-119.52
-99.75
-72.64
-41.31
-9.25
20.45
45.69
65.55
79.96
89.43
94.67
96.41
95.32
92.06
87.34
81.97
76.76
72.37
69.16
67.09
65.80
64.84
63.85
62.71
61.40
59.91
58.01
55.35
51.55
46.38
39.86
32.16
23.49
13.98
3.78
-6.92
-17.75
-28.23
-37.91
-46.57
-54.29
-61.56
-69.15
-77.88
-88.33
-100.40
-113.00
-123.98
-130.55
-129.96
-120.48
-102.05
-76.44
-46.76
-16.54
11.17
34.44
52.51
65.50
73.93
78.42
79.55
77.93
74.33
69.69
64.98
60.94
57.98
56.11
55.10
54.64
54.50
54.47
54.36
53.90
52.83
50.88
47.91
43.83
38.57
32.06
24.24
15.26
5.43
-4.73
-14.64
-23.86
-32.20
-39.82
-47.11
-54.65
-63.08
-72.93
-84.38
-96.99
-109.47
-119.69
-125.15
-123.51
-113.42
-94.99
-69.87
-40.84
-11.11
16.49
40.04
58.72
72.65
82.43
88.86
92.59
94.10
93.77
91.93
89.01
85.45
81.73
78.25
75.27
72.89
71.07
69.65
68.39
66.97
65.04
62.26
58.40
53.37
47.19
39.99
31.90
23.05
13.57
3.66
-6.40
-16.25
-25.53
-34.02
-41.66
-48.63
-55.30
-62.21
-69.95
-79.06
-89.81
-101.79
-113.73
-123.46
-128.31
-125.89
-114.86
-95.51
-69.73
-40.48
-10.98
16.12
39.16
57.51
71.30
81.02
87.26
90.58
91.53
90.65
88.53
85.70
82.63
79.61
76.78
74.12
71.55
69.02
66.55
64.24
62.16
60.20
58.02
55.08
50.86
45.07
37.87
29.87
21.86
14.52
8.05
2.12
-3.96
-10.86
-18.88
-27.77
-36.81
-45.16
-52.21
-57.92
-62.76
-67.77
-74.05
-82.46
-93.14
-105.29
-117.06
-125.93
-129.20
-124.83
-111.99
-91.36
-65.02
-35.86
-6.89
19.43
41.58
58.97
71.73
80.38
85.53
87.76
87.62
85.72
82.73
79.39
76.26
73.66
71.57
69.80
68.13
66.50
65.03
63.83
62.87
61.80
60.06
57.03
52.29
45.85
38.11
29.72
21.36
13.50
6.25
-0.61
-7.52
-14.87
-22.81
-31.16
-39.43
-47.06
-53.69
-59.35
-64.51
-69.99
-76.70
-85.31
-95.87
-107.55
-118.62
-126.64
-129.10
-124.10
-111.04
-90.87
-65.85
-38.93
-12.90
10.20
29.33
44.27
55.31
62.89
67.41
69.31
69.14
67.57
65.30
62.95
60.86
59.07
57.45
55.84
54.30
53.03
52.35
52.40
53.02
53.64
53.50
51.83
48.23
42.72
35.77
28.07
20.29
12.86
5.86
-0.89
-7.72
-14.87
-22.33
-29.88
-37.13
-43.75
-49.62
-55.02
-60.55
-66.96
-74.90
-84.45
-95.00
-105.00
-112.26
-114.39
-109.51
-96.84
-77.08
-52.35
-25.56
0.34
23.09
41.46
55.20
64.68
70.41
72.88
72.50
69.75
65.32
60.05
54.81
50.27
46.74
44.22
42.50
41.34
40.63
40.33
40.42
40.76
41.02
40.74
39.47
36.90
32.94
27.72
21.46
14.34
6.46
-2.15
-11.38
-20.99
-30.62
-39.79
-48.14
-55.63
-62.56
-69.61
-77.62
-87.20
-98.36
-110.16
-120.77
-127.73
-128.75
-122.28
-108.16
-87.68
-63.20
-37.53
-13.25
7.77
24.52
36.76
44.77
49.09
50.37
49.31
46.63
43.04
39.22
35.73
32.94
31.03
29.95
29.52
29.51
29.64
29.70
29.47
28.79
27.48
25.47
22.72
19.33
15.46
11.27
6.78
1.86
-3.76
-10.35
-18.05
-26.70
-35.83
-44.86
-53.26
-60.83
-67.83
-74.95
-83.10
-93.06
-105.02
-118.27
-131.07
-140.86
-144.93
-141.19
-128.83
-108.71
-83.07
-54.95
-27.37
-2.66
17.83
33.65
45.08
52.71
57.20
59.26
59.54
58.72
57.35
55.84
54.38
52.91
51.32
49.58
47.88
46.62
46.18
46.73
47.96
49.15
49.37
47.87
44.35
39.05
32.60
25.71
18.85
12.16
5.46
-1.53
-9.01
-16.98
-25.23
-33.44
-41.32
-48.68
-55.53
-62.13
-68.99
-76.83
-86.35
-97.79
-110.61
-123.15
-132.88
-137.02
-133.39
-121.16
-101.22
-75.82
-47.93
-20.38
4.71
26.13
43.39
56.43
65.39
70.51
72.19
71.07
68.05
64.12
60.24
57.08
55.01
54.03
53.93
54.41
55.16
55.89
56.30
56.06
54.82
52.29
48.31
42.96
36.51
29.42
22.08
14.76
7.42
-0.15
-8.23
-16.93
-26.07
-35.21
-43.78
-51.40
-57.98
-63.88
-69.82
-76.70
-85.33
-96.10
-108.61
-121.44
-132.22
-138.04
-136.28
-125.48
-105.85
-79.34
-49.08
-18.47
9.65
33.48
52.35
66.43
76.28
82.51
85.67
86.31
84.97
82.29
78.93
75.51
72.45
69.98
68.14
66.89
66.17
65.88
65.82
65.65
64.94
63.23
60.23
55.91
50.47
44.28
37.62
30.59
23.09
14.86
5.77
-4.09
-14.31
-24.35
-33.69
-42.12
-49.83
-57.41
-65.72
-75.55
-87.34
-100.79
-114.63
-126.66
-134.10
-134.28
-125.46
-107.50
-82.01
-51.99
-20.95
7.99
32.76
52.53
67.37
77.83
84.48
87.84
88.44
86.94
84.14
80.91
77.92
75.47
73.57
72.04
70.77
69.74
69.03
68.69
68.54
68.21
67.20
65.02
61.37
56.18
49.65
42.12
33.98
25.52
16.81
7.80
-1.58
-11.33
-21.24
-30.96
-40.06
-48.28
-55.67
-62.72
-70.27
-79.26
-90.31
-103.32
-117.02
-129.12
-136.67
-136.88
-127.99
-109.83
-84.05
-53.59
-21.96
7.65
33.01
53.10
67.90
78.11
84.63
88.32
89.92
89.98
88.99
87.37
85.48
83.58
81.79
80.11
78.58
77.29
76.43
76.14
76.39
76.89
77.04
76.16
73.70
69.55
64.00
57.63
50.97
44.33
37.67
30.66
23.06
14.79
6.15
-2.31
-10.06
-16.74
-22.40
-27.54
-32.95
-39.46
-47.43
-56.37
-64.82
-70.47
-70.78
-63.74
-48.55
-26.00
1.65
31.28
59.71
84.45
104.11
118.52
128.34
134.60
138.32
140.15
140.40
139.14
136.48
132.73
128.47
124.38
121.07
118.88
117.68
117.00
116.29
115.14
113.56
111.91
110.72
110.35
110.76
111.47
111.66
110.50
107.40
102.23
95.38
87.68
80.06
73.34
67.80
63.12
58.49
52.92
45.72
36.99
27.86
20.42
17.34
21.16
33.51
54.33
81.56
111.38
139.08
160.36
172.39
174.55
168.15
155.71
139.93
122.96
106.10
89.95
74.69
60.23
46.28
32.17
17.01
-0.16
-19.93
-42.19
-66.02
-89.94
-112.41
-132.47
-150.14
-166.44
-182.82
-200.46
-219.46
-238.72
-256.29
-270.30
-279.81
-285.26
-288.24
-290.86
-294.87
-301.13
-309.28
-317.85
-324.52
-326.63
-321.63
-307.76
-284.56
-253.09
-215.76
-175.76
-136.24
-99.71
-67.71
-40.91
-19.37
-2.86
9.14
17.40
22.94
26.91
30.26
33.51
36.65
39.36
41.28
42.25
42.43
42.03
41.19
39.78
37.43
33.63
27.98
20.34
10.91
0.20
-11.04
-22.09
-32.47
-42.17
-51.75
-62.20
-74.52
-89.16
-105.56
-121.93
-135.54
-143.26
-142.54
-132.14
-112.50
-85.73
-54.97
-23.54
5.71
30.89
51.07
66.06
76.07
81.49
82.73
80.34
75.05
67.71
59.20
50.16
40.94
31.69
22.52
13.62
5.21
-2.65
-10.24
-18.25
-27.55
-38.85
-52.39
-67.78
-84.14
-100.42
-115.78
-129.88
-143.12
-156.62
-171.82
-189.95
-211.32
-234.78
-257.80
-276.94
-288.97
-291.79
-285.06
-270.25
-250.00
-227.25
-204.36
-182.66
-162.38
-143.08
-124.26
-105.83
-88.12
-71.73
-57.06
-44.03
-32.12
-20.72
-9.50
1.33
11.25
19.69
26.51
32.02
36.81
41.36
45.65
49.08
50.81
50.05
46.56
40.78
33.72
26.65
20.60
16.04
12.71
9.59
5.29
-1.52
-11.46
-23.96
-37.01
-47.53
-52.01
-47.58
-32.84
-8.38
23.42
59.03
94.69
127.16
154.26
174.94
189.01
196.85
199.01
196.06
188.58
177.34
163.40
148.16
133.08
119.39
107.78
98.39
91.11
85.88
83.13
83.57
87.69
95.12
104.30
112.64
117.41
116.63
109.76
97.66
82.01
64.47
46.11
27.34
8.11
-11.69
-32.17
-53.67
-76.96
-103.13
-133.05
-166.47
-201.27
-233.40
-257.71
-269.39
-265.54
-245.91
-212.88
-170.45
-122.93
-74.04
-26.54
17.50
56.41
88.82
113.84
131.40
142.37
148.19
150.45
150.31
148.43
145.15
140.78
135.86
131.08
126.98
123.70
120.85
117.63
113.20
107.01
98.96
89.43
78.99
68.28
57.81
47.88
38.62
29.95
21.53
12.79
2.98
-8.61
-22.48
-38.72
-57.13
-77.33
-98.97
-121.63
-144.45
-165.65
-182.31
-190.71
-187.25
-169.63
-137.77
-94.05
-42.82
10.79
62.04
107.57
145.70
176.24
199.96
217.97
231.32
240.74
246.75
249.75
250.25
248.94
246.61
244.01
241.63
239.55
237.42
234.57
230.14
223.43
213.93
201.42
185.86
167.33
145.94
121.97
95.94
68.79
41.77
16.22
-6.77
-26.63
-43.39
-57.69
-70.60
-83.53
-98.05
-115.43
-136.11
-159.10
-181.69
-199.83
-209.05
-205.87
-188.97
-159.69
-121.69
-79.82
-38.83
-2.22
28.13
51.88
69.67
82.47
91.19
96.52
98.99
99.06
97.11
93.49
88.34
81.67
73.52
64.12
54.10
44.36
35.80
28.99
23.90
19.87
15.91
11.10
4.95
-2.45
-10.54
-18.62
-26.22
-33.34
-40.36
-47.76
-55.72
-63.90
-71.52
-77.75
-82.20
-85.26
-88.14
-92.48
-99.78
-110.65
-124.31
-138.42
-149.49
-153.56
-147.43
-129.53
-100.61
-63.50
-22.45
17.98
53.93
82.83
103.55
116.13
121.32
120.28
114.37
105.06
93.91
82.42
71.82
62.88
55.72
49.96
44.95
40.13
35.33
30.90
27.40
25.27
24.45
24.22
23.38
20.69
15.26
6.95
-3.72
-15.76
-28.11
-39.95
-50.91
-61.07
-70.88
-81.04
-92.39
-105.63
-120.88
-137.26
-152.59
-163.64
-166.85
-159.41
-140.31
-110.77
-74.09
-34.71
2.98
35.63
61.31
79.53
90.73
95.80
95.82
91.88
85.12
76.72
67.80
59.32
51.85
45.63
40.40
35.75
31.25
26.65
22.08
17.92
14.53
12.02
9.98
7.52
3.57
-2.73
-11.66
-22.73
-34.96
-47.14
-58.37
-68.26
-76.99
-85.21
-93.85
-103.95
-116.31
-131.09
-147.41
-163.04
-174.63
-178.41
-171.34
-152.12
-121.80
-83.57
-41.98
-1.69
33.52
61.41
81.29
93.68
99.74
100.79
98.08
92.65
85.45
77.38
69.23
61.70
55.17
49.74
45.21
41.26
37.56
33.96
30.44
27.14
24.18
21.51
18.83
15.55
10.96
4.43
-4.36
-15.19
-27.43
-40.18
-52.56
-64.01
-74.37
-83.90
-93.19
-103.01
-114.22
-127.47
-142.89
-159.55
-175.23
-186.55
-189.69
-181.51
-160.76
-128.54
-88.27
-44.67
-2.48
34.57
64.35
86.21
100.55
108.28
110.54
108.56
103.63
97.02
89.81
82.83
76.50
70.90
65.96
61.53
57.51
53.90
50.70
47.84
45.13
42.27
38.94
34.89
29.97
24.13
17.26
9.27
0.00
-10.56
-22.23
-34.57
-46.95
-58.84
-69.94
-80.36
-90.59
-101.47
-113.93
-128.70
-145.82
-164.15
-181.12
-192.98
-195.69
-186.16
-163.43
-129.14
-87.13
-42.36
0.43
37.73
67.60
89.45
103.56
110.63
111.62
107.70
100.36
91.22
81.84
73.42
66.52
61.06
56.52
52.28
47.85
43.22
38.66
34.60
31.25
28.41
25.34
21.01
14.42
5.04
-7.01
-20.91
-35.41
-49.25
-61.71
-72.79
-83.29
-94.54
-107.97
-124.54
-144.21
-165.51
-185.55
-200.35
-205.75
-198.50
-177.31
-143.29
-99.81
-51.56
-3.51
40.19
76.76
104.84
124.17
135.28
139.17
137.23
131.11
122.58
113.26
104.36
96.45
89.52
83.24
77.28
71.54
66.24
61.70
58.10
55.13
52.03
47.67
41.00
31.36
18.81
4.08
-11.59
-26.94
-41.09
-53.89
-66.05
-79.00
-94.39
-113.31
-135.46
-158.70
-179.13
-192.00
-193.05
-179.81
-152.37
-113.38
-67.23
-18.95
26.91
66.91
99.09
122.79
138.36
146.81
149.46
147.79
143.19
136.95
130.21
123.82
118.17
113.20
108.44
103.42
97.92
92.19
86.78
82.22
78.51
74.99
70.42
63.49
53.33
39.93
24.06
7.10
-9.52
-24.80
-38.46
-51.03
-63.69
-77.97
-95.19
-115.90
-139.23
-162.61
-181.99
-192.69
-190.74
-174.11
-143.52
-102.21
-55.10
-7.43
36.45
73.69
102.97
124.11
137.59
144.25
145.17
141.69
135.36
127.75
120.21
113.58
108.09
103.44
99.02
94.38
89.41
84.39
79.88
76.26
73.46
70.76
66.96
60.79
51.45
38.91
23.96
7.93
-7.82
-22.36
-35.53
-47.91
-60.61
-74.93
-91.89
-111.73
-133.52
-154.87
-172.21
-181.42
-178.94
-162.90
-133.86
-94.79
-50.31
-5.53
35.15
68.79
94.06
110.94
120.20
123.09
120.99
115.42
107.94
100.01
92.78
86.94
82.61
79.50
77.11
75.06
73.23
71.62
70.17
68.42
65.45
60.13
51.56
39.51
24.66
8.41
-7.59
-22.12
-34.85
-46.47
-58.48
-72.59
-90.01
-110.76
-133.22
-154.11
-169.11
-174.01
-165.92
-144.35
-111.36
-71.02
-28.20
12.74
48.77
78.39
101.27
117.69
128.08
132.97
133.13
129.65
123.91
117.29
110.88
105.16
100.09
95.25
90.23
84.89
79.51
74.61
70.62
67.52
64.64
60.80
54.70
45.53
33.29
18.82
3.46
-11.48
-25.21
-37.68
-49.48
-61.63
-75.25
-91.24
-109.89
-130.39
-150.57
-167.03
-175.79
-173.42
-158.24
-131.06
-95.04
-54.77
-14.95
20.87
50.73
74.20
91.71
103.93
111.38
114.47
113.72
110.04
104.68
99.01
94.07
90.27
87.30
84.45
81.05
76.85
72.13
67.55
63.66
60.56
57.63
53.77
47.78
38.85
26.97
12.94
-1.88
-16.14
-28.91
-40.00
-49.96
-59.82
-70.77
-83.76
-99.26
-116.79
-134.81
-150.64
-160.90
-162.35
-152.86
-132.24
-102.49
-67.23
-30.67
3.51
32.88
56.35
73.81
85.64
92.31
94.41
92.74
88.49
83.07
77.76
73.43
70.24
67.73
65.21
62.15
58.46
54.50
50.71
47.36
44.23
40.61
35.56
28.36
18.75
7.12
-5.62
-18.40
-30.41
-41.33
-51.60
-62.18
-74.30
-88.95
-106.24
-125.05
-142.86
-156.20
-161.51
-156.29
-139.93
-113.96
-81.66
-46.96
-13.43
16.51
41.70
61.97
77.60
88.94
96.23
99.78
100.07
97.89
94.25
90.15
86.37
83.23
80.66
78.25
75.62
72.53
69.06
65.49
62.10
58.92
55.61
51.45
45.66
37.65
27.31
15.06
1.77
-11.60
-24.24
-35.72
-46.15
-56.05
-66.29
-77.80
-91.26
-106.72
-123.30
-139.03
-151.04
-156.29
-152.34
-138.25
-114.93
-85.00
-52.09
-19.79
9.18
33.34
52.43
66.85
77.20
83.95
87.38
87.86
85.99
82.67
78.88
75.43
72.73
70.66
68.78
66.60
63.80
60.42
56.73
53.03
49.47
45.82
41.60
36.17
29.05
20.11
9.63
-1.79
-13.44
-24.71
-35.24
-44.96
-54.04
-62.82
-71.83
-81.67
-92.90
-105.70
-119.45
-132.53
-142.35
-145.95
-140.87
-126.08
-102.47
-72.70
-40.46
-9.35
17.95
40.12
57.00
69.08
76.92
81.00
81.76
79.82
76.11
71.77
67.84
64.95
63.15
62.03
60.99
59.54
57.48
54.92
52.09
49.16
46.06
42.40
37.64
31.19
22.78
12.55
1.06
-10.83
-22.26
-32.65
-41.91
-50.43
-58.91
-68.25
-79.20
-92.13
-106.80
-122.06
-135.78
-145.19
-147.41
-140.38
-123.62
-98.54
-68.12
-36.10
-5.90
20.09
40.86
56.48
67.64
75.08
79.42
81.10
80.54
78.21
74.73
70.74
66.84
63.45
60.78
58.81
57.36
56.11
54.72
52.92
50.51
47.47
43.82
39.56
34.60
28.73
21.67
13.27
3.59
-7.03
-18.07
-28.99
-39.33
-48.87
-57.60
-65.73
-73.73
-82.29
-92.23
-104.14
-117.95
-132.46
-145.26
-153.17
-153.10
-143.13
-123.22
-95.33
-62.86
-29.59
1.19
27.33
47.94
62.99
72.97
78.58
80.63
80.00
77.62
74.36
70.86
67.48
64.28
61.22
58.28
55.55
53.15
51.13
49.36
47.55
45.26
42.09
37.68
31.86
24.67
16.32
7.24
-2.13
-11.52
-20.95
-30.76
-41.37
-53.03
-65.54
-78.32
-90.66
-102.11
-112.68
-122.91
-133.69
-145.97
-160.36
-176.75
-193.99
-209.87
-221.47
-225.85
-220.95
-206.25
-182.84
-153.04
-119.61
-85.13
-51.63
-20.69
6.43
28.80
45.90
57.83
65.23
69.04
70.07
68.75
65.18
59.29
51.12
40.92
28.97
15.56
1.08
-13.79
-27.77
-38.99
-45.43
-45.62
-39.48
-28.71
-16.78
-8.00
-6.37
-14.37
-32.34
-58.63
-90.27
-123.76
-155.70
-183.09
-203.37
-214.46
-215.06
-204.96
-185.24
-158.15
-126.64
-93.62
-61.40
-31.32
-3.78
21.78
46.65
72.87
103.21
140.83
188.47
246.97
313.88
382.93
445.05
491.03
514.46
514.00
493.52
460.19
421.41
382.06
343.21
302.52
256.00
200.31
134.90
63.25
-7.31
-67.18
-106.99
-120.25
-105.27
-65.61
-9.15
53.71
111.95
155.83
178.30
176.26
151.52
110.88
64.82
24.86
0.22
-4.72
8.88
35.84
69.45
103.98
135.97
163.96
187.29
204.90
214.98
215.71
206.45
188.56
165.06
139.49
114.49
91.11
69.21
48.54
29.86
15.20
6.89
6.11
11.89
21.31
30.95
38.77
45.18
52.53
63.36
78.53
96.28
112.88
124.39
128.35
124.60
114.96
101.95
87.78
73.65
59.85
46.18
32.40
18.38
4.20
-9.94
-23.86
-37.57
-51.35
-65.64
-80.65
-95.86
-109.89
-120.79
-126.96
-128.05
-125.43
-121.88
-120.44
-123.31
-131.18
-143.50
-159.39
-178.48
-200.77
-225.83
-251.74
-274.76
-290.30
-294.69
-286.85
-268.95
-245.46
-221.21
-199.26
-179.87
-160.91
-139.61
-114.40
-85.94
-56.70
-29.72
-7.16
10.26
22.90
31.31
35.48
34.68
28.10
15.83
-0.80
-19.47
-38.06
-55.71
-73.20
-92.40
-115.08
-141.80
-171.62
-202.58
-232.82
-261.37
-288.42
-314.78
-341.06
-367.08
-391.77
-413.72
-432.02
-446.60
-458.02
-466.81
-472.73
-474.41
-469.78
-456.93
-434.90
-404.23
-366.69
-324.85
-281.71
-240.49
-204.70
-177.71
-161.90
-157.46
-161.74
-169.61
-175.03
-173.22
-162.15
-142.79
-118.09
-91.33
-64.84
-39.68
-16.04
6.14
26.74
45.62
62.87
79.03
95.09
112.16
131.00
151.56
172.75
192.59
208.67
218.89
222.17
218.83
210.36
198.81
186.06
173.26
160.72
148.27
135.67
122.81
109.77
96.46
82.35
66.44
47.53
24.98
-0.53
-26.68
-49.77
-65.75
-71.61
-66.39
-51.38
-29.41
-3.59
23.85
51.81
79.88
107.41
133.03
154.73
170.64
179.80
182.58
180.42
175.09
168.09
160.26
151.91
143.25
134.80
127.44
122.19
119.79
120.19
122.47
124.91
125.62
123.08
116.75
107.14
95.41
82.76
69.68
55.75
40.06
22.13
2.82
-15.15
-27.78
-30.96
-21.95
-0.45
31.12
68.42
106.49
141.10
169.61
191.14
206.03
215.18
219.41
219.25
215.02
207.06
195.96
182.55
167.81
152.56
137.43
122.71
108.52
94.86
81.69
68.98
56.64
44.60
32.74
20.93
9.06
-3.05
-15.63
-29.02
-43.73
-60.28
-79.16
-100.31
-122.73
-144.17
-161.27
-170.21
-167.76
-152.41
-124.94
-88.33
-46.94
-5.33
32.76
65.00
90.48
109.32
122.16
129.79
133.05
132.78
129.86
125.12
119.25
112.74
105.89
98.94
92.24
86.13
80.92
76.64
72.91
69.02
64.10
57.42
48.62
37.89
25.78
13.01
0.22
-12.35
-25.00
-38.58
-54.16
-72.50
-93.38
-115.09
-134.46
-147.43
-150.26
-140.68
-118.83
-87.25
-50.16
-12.18
22.78
52.32
75.49
92.38
103.55
109.69
111.58
110.13
106.41
101.48
96.13
90.70
85.00
78.64
71.35
63.30
55.16
47.76
41.79
37.36
33.91
30.41
25.75
19.18
10.60
0.51
-10.19
-20.59
-30.17
-39.10
-48.19
-58.70
-71.80
-87.94
-106.29
-124.47
-138.95
-145.82
-142.04
-126.43
-100.12
-66.32
-29.36
6.35
37.39
61.76
78.89
89.28
94.06
94.56
92.10
87.81
82.51
76.75
70.78
64.63
58.32
51.94
45.73
40.08
35.28
31.49
28.50
25.83
22.79
18.73
13.25
6.35
-1.63
-10.12
-18.60
-26.85
-35.04
-43.76
-53.85
-65.92
-80.01
-95.02
-108.68
-117.84
-119.33
-110.92
-92.21
-64.88
-32.29
1.48
32.70
58.76
78.45
91.71
99.25
102.11
101.48
98.52
94.35
89.81
85.37
81.07
76.61
71.57
65.73
59.23
52.47
45.96
40.02
34.55
29.07
22.91
15.49
6.65
-3.35
-13.92
-24.34
-34.12
-43.10
-51.61
-60.35
-70.22
-81.90
-95.51
-110.12
-123.74
-133.51
-136.44
-130.28
-114.35
-89.88
-59.70
-27.51
3.07
29.37
49.95
64.56
73.76
78.38
79.28
77.28
73.16
67.78
62.01
56.52
51.66
47.27
42.90
38.01
32.38
26.22
20.12
14.79
10.63
7.55
4.91
1.71
-2.94
-9.51
-17.83
-27.20
-36.64
-45.32
-52.91
-59.67
-66.41
-74.25
-84.24
-96.93
-112.04
-128.14
-142.71
-152.64
-154.90
-147.56
-130.36
-104.93
-74.41
-42.51
-12.62
12.94
33.04
47.63
57.20
62.40
63.85
62.09
57.73
51.57
44.59
37.80
31.96
27.40
23.97
21.22
18.62
15.87
13.02
10.36
8.27
6.95
6.26
5.71
4.60
2.29
-1.63
-7.18
-14.01
-21.56
-29.18
-36.35
-42.78
-48.55
-54.16
-60.46
-68.42
-78.74
-91.22
-104.45
-115.78
-121.92
-119.87
-108.02
-86.73
-58.28
-26.22
5.67
34.26
57.52
74.63
85.62
91.10
91.93
89.11
83.70
76.75
69.14
61.57
54.51
48.11
42.32
36.95
31.83
26.82
21.95
17.38
13.29
9.86
7.03
4.49
1.64
-2.22
-7.69
-15.05
-24.12
-34.33
-44.90
-55.11
-64.57
-73.20
-81.27
-89.33
-98.12
-108.46
-120.95
-135.47
-150.69
-163.96
-171.66
-170.27
-157.52
-133.39
-100.18
-61.87
-22.91
12.88
43.06
66.56
83.30
93.75
98.57
98.58
94.83
88.60
81.28
74.14
67.98
63.02
58.94
55.12
51.02
46.46
41.66
37.15
33.41
30.57
28.23
25.62
21.78
15.91
7.64
-2.86
-14.93
-27.67
-40.17
-51.86
-62.58
-72.68
-82.83
-93.95
-106.89
-122.09
-139.14
-156.43
-171.06
-179.34
-177.74
-164.00
-138.06
-102.25
-60.60
-17.72
22.44
57.24
85.45
106.81
121.54
130.06
132.92
131.00
125.57
118.15
110.28
103.10
97.16
92.34
88.12
83.89
79.27
74.22
69.07
64.28
60.15
56.56
52.90
48.20
41.46
32.06
20.00
5.96
-8.96
-23.58
-37.08
-49.23
-60.43
-71.61
-83.99
-98.67
-116.16
-135.86
-155.71
-172.33
-181.60
-179.85
-164.99
-137.33
-99.59
-56.22
-12.19
28.16
61.90
87.72
105.61
116.45
121.41
121.75
118.65
113.21
106.47
99.38
92.67
86.74
81.64
77.09
72.66
68.02
63.09
58.07
53.33
49.14
45.43
41.70
37.00
30.34
21.03
9.03
-5.04
-20.04
-34.83
-48.61
-61.22
-73.02
-84.77
-97.32
-111.50
-127.87
-146.33
-165.69
-183.40
-195.75
-198.71
-189.21
-166.30
-131.69
-89.32
-44.25
-1.24
36.25
66.41
88.85
104.07
112.93
116.44
115.70
111.90
106.33
100.31
94.92
90.85
88.29
86.88
86.01
85.02
83.51
81.50
79.30
77.25
75.39
73.31
70.21
65.13
57.37
46.72
33.58
18.83
3.51
-11.37
-25.25
-38.01
-50.14
-62.51
-76.18
-92.04
-110.24
-129.81
-148.43
-162.68
-168.81
-163.78
-146.34
-117.53
-80.54
-39.83
0.06
35.59
64.67
86.65
101.76
110.65
114.04
112.77
107.94
100.98
93.47
86.75
81.56
77.83
74.83
71.63
67.54
62.49
56.96
51.71
47.27
43.64
40.14
35.69
29.22
20.10
8.44
-4.92
-18.75
-31.86
-43.57
-53.94
-63.78
-74.39
-87.08
-102.68
-120.85
-139.84
-156.48
-166.81
-167.13
-155.15
-130.96
-97.09
-57.88
-18.25
17.63
47.15
69.46
85.06
95.19
101.33
104.88
107.06
108.90
111.08
113.83
116.89
119.56
120.92
120.08
116.54
110.30
101.91
92.34
82.62
73.56
65.38
57.75
49.88
40.93
30.42
18.49
5.87
-6.44
-17.54
-27.07
-35.32
-43.25
-52.19
-63.41
-77.61
-94.42
-112.08
-127.57
-137.27
-137.93
-127.73
-107.02
-78.31
-45.50
-12.75
16.66
40.90
59.61
73.31
82.80
88.72
91.44
91.32
88.86
84.84
80.10
75.28
70.61
65.87
60.69
54.86
48.51
42.22
36.68
32.35
29.21
26.62
23.58
19.04
12.31
3.36
-7.20
-18.29
-28.84
-38.16
-46.31
-54.07
-62.77
-73.80
-88.00
-105.16
-123.66
-140.63
-152.50
-155.88
-148.61
-130.45
-103.24
-70.34
-35.72
-2.89
25.79
49.31
67.63
81.24
90.69
96.43
98.88
98.58
96.25
92.72
88.70
84.57
80.32
75.65
70.29
64.28
58.01
52.18
47.32
43.49
40.12
36.11
30.30
21.90
10.78
-2.47
-16.81
-31.09
-44.47
-56.51
-67.31
-77.36
-87.53
-98.75
-111.83
-126.90
-143.08
-158.24
-169.33
-173.07
-167.04
-150.56
-125.11
-94.04
-61.61
-31.87
-7.67
9.86
21.01
26.98
29.19
28.89
26.94
23.92
20.13
15.50
9.44
0.86
-11.25
-26.88
-44.11
-59.01
-66.39
-61.60
-42.26
-9.16
34.13
82.80
132.59
181.05
227.45
271.62
312.52
347.31
371.77
381.70
374.81
351.97
317.11
275.96
233.97
194.69
158.94
125.26
91.00
53.31
9.64
-42.09
-103.00
-172.20
-245.92
-317.09
-376.87
-417.28
-434.06
-428.19
-405.14
-372.28
-335.75
-298.42
-259.73
-217.35
-169.50
-116.70
-62.07
-10.26
34.26
68.67
92.49
107.39
116.22
121.74
125.79
129.07
131.60
133.34
134.57
135.75
136.98
137.54
135.81
129.80
117.85
99.33
75.01
47.12
18.96
-5.71
-23.45
-31.82
-29.84
-18.08
1.51
26.06
52.23
76.72
96.68
110.17
116.55
116.58
112.02
104.81
96.39
87.20
77.03
65.61
53.28
41.14
30.58
22.68
17.79
15.65
15.77
17.94
22.23
28.70
37.04
46.05
53.81
57.97
56.29
47.26
30.45
6.68
-22.22
-53.91
-85.88
-115.76
-141.34
-160.73
-172.71
-177.35
-176.38
-172.90
-170.41
-171.41
-176.33
-183.28
-188.75
-188.86
-180.76
-163.64
-139.22
-111.22
-84.09
-61.24
-43.53
-29.12
-14.57
2.84
23.20
43.43
58.71
65.19
62.40
53.81
45.37
42.77
48.99
63.57
83.38
104.26
122.79
137.26
147.85
155.92
162.95
169.39
174.03
174.32
167.47
151.71
127.21
95.99
60.82
24.03
-13.29
-50.99
-88.83
-125.57
-158.92
-186.21
-205.57
-216.68
-220.68
-219.45
-214.47
-206.20
-193.78
-175.66
-150.44
-117.80
-78.98
-36.63
5.97
45.93
81.58
112.68
139.90
164.04
185.35
203.40
217.50
227.26
232.95
235.45
235.96
235.51
234.59
233.03
230.04
224.35
214.69
200.33
181.61
159.99
137.64
116.60
97.97
81.89
67.73
54.83
42.89
31.89
21.96
13.17
5.76
0.38
-1.84
0.15
6.61
16.47
27.45
37.05
43.54
46.75
47.95
49.11
51.99
57.60
65.94
76.20
87.16
97.49
106.09
112.22
115.46
115.54
112.14
104.80
93.11
77.02
57.03
34.25
10.03
-14.42
-38.35
-61.49
-84.07
-106.58
-129.75
-154.63
-182.43
-214.08
-249.37
-286.30
-320.89
-347.96
-362.70
-362.46
-347.90
-323.04
-293.97
-266.95
-246.56
-234.59
-230.24
-231.06
-234.24
-237.60
-240.01
-241.35
-242.08
-242.73
-243.58
-244.42
-244.74
-243.90
-241.37
-236.83
-230.31
-222.18
-213.02
-203.53
-194.25
-185.32
-176.38
-166.74
-155.76
-143.18
-129.40
-115.35
-102.07
-90.20
-79.53
-68.98
-57.05
-42.46
-24.65
-4.10
17.90
39.72
59.89
77.51
92.31
104.40
114.00
121.16
125.75
127.65
127.00
124.30
120.30
115.70
110.92
105.98
100.68
94.90
88.80
82.94
78.03
74.81
73.71
74.87
78.04
82.68
88.00
93.02
96.67
97.85
95.58
89.10
78.09
62.79
44.27
24.30
5.34
-10.02
-19.56
-22.09
-17.75
-8.00
4.69
17.44
27.61
33.29
33.45
28.05
17.69
3.49
-13.27
-31.32
-49.53
-67.08
-83.40
-98.24
-111.55
-123.46
-134.17
-144.02
-153.46
-162.98
-173.02
-183.80
-195.34
-207.50
-220.07
-232.76
-244.96
-255.58
-263.26
-266.84
-266.04
-261.72
-255.44
-248.43
-240.65
-230.50
-215.59
-194.05
-165.70
-132.25
-96.53
-61.18
-27.62
4.19
35.28
66.97
100.34
136.14
174.60
215.23
256.29
294.81
327.11
349.86
361.35
362.12
354.67
342.36
328.01
313.10
297.75
281.32
263.30
243.68
222.97
201.77
180.31
158.42
135.54
110.97
83.93
53.64
19.50
-18.59
-59.82
-102.02
-141.71
-174.71
-197.03
-206.13
-201.46
-184.57
-158.53
-127.03
-93.55
-61.00
-31.56
-6.80
12.32
25.51
33.35
37.36
39.78
43.17
49.77
60.79
76.08
94.24
113.08
130.48
145.06
156.55
165.42
172.31
177.33
179.81
178.49
172.14
160.09
142.50
120.24
94.44
66.06
35.64
3.42
-30.22
-64.17
-96.21
-123.08
-141.00
-146.81
-138.92
-117.98
-86.75
-49.33
-10.02
27.63
61.21
89.51
112.08
128.92
140.29
146.69
148.88
147.89
144.80
140.59
136.03
131.59
127.57
124.23
121.87
120.79
121.32
123.57
127.42
132.36
137.58
142.07
144.99
145.85
144.71
142.12
138.88
135.71
132.97
130.36
126.99
121.63
113.26
101.72
88.19
75.18
66.09
64.14
71.27
87.41
110.43
136.69
162.17
183.48
198.51
206.45
207.55
202.60
192.58
178.55
161.72
143.46
125.23
108.23
93.04
79.38
66.19
52.14
36.25
18.35
-0.74
-19.62
-36.86
-51.63
-63.97
-74.60
-84.44
-94.10
-103.67
-112.78
-121.04
-128.42
-135.41
-142.88
-151.60
-161.89
-173.35
-185.00
-195.72
-204.67
-211.60
-216.99
-221.61
-226.24
-231.26
-236.47
-241.39
-245.65
-249.26
-252.72
-256.96
-263.42
-274.15
-291.93
-319.62
-358.82
-408.28
-463.01
-515.14
-556.31
-580.76
-587.43
-579.92
-564.35
-546.40
-529.17
-512.73
-495.48
-475.85
-453.58
-429.48
-404.67
-379.49
-353.46
-325.61
-295.33
-263.10
-230.33
-198.99
-170.80
-146.58
-126.06
-108.11
-91.29
-74.48
-57.26
-39.90
-23.28
-8.23
4.63
15.31
24.26
32.37
40.55
49.50
59.56
70.55
81.94
92.93
102.89
111.48
118.98
126.17
134.17
143.98
156.12
170.34
185.78
201.24
215.76
229.02
241.47
254.24
268.80
286.73
309.14
336.21
366.51
396.71
421.94
437.00
438.16
424.69
399.58
368.71
338.85
315.35
300.46
293.10
290.00
287.40
282.59
274.45
263.17
249.33
233.35
215.23
194.91
172.73
149.70
127.28
106.97
89.65
75.35
63.35
52.60
42.22
31.81
21.48
11.67
2.87
-4.71
-11.13
-16.75
-21.99
-27.24
-32.74
-38.63
-45.06
-52.10
-59.66
-67.15
-73.37
-76.70
-75.48
-68.58
-55.85
-38.35
-18.02
2.74
21.71
37.25
48.52
55.51
58.80
59.29
57.91
55.42
52.26
48.68
44.89
41.15
37.80
35.15
33.28
31.94
30.67
28.94
26.43
23.16
19.44
15.68
12.22
9.20
6.62
4.33
2.17
-0.07
-2.68
-5.92
-9.90
-14.29
-18.15
-20.03
-18.39
-12.16
-1.32
12.91
28.43
42.96
54.72
62.92
67.77
70.09
70.84
70.73
70.07
68.93
67.26
65.10
62.51
59.64
56.61
53.41
49.95
46.07
41.61
36.49
30.78
24.57
17.84
10.25
1.11
-10.45
-25.12
-42.97
-63.45
-85.57
-108.43
-131.47
-154.36
-176.74
-197.86
-216.75
-232.57
-245.07
-254.67
-262.11
-267.92
-272.04
-274.02
-273.59
-271.14
-267.87
-265.36
-264.88
-266.99
-271.47
-277.65
-284.63
-291.31
-296.22
-297.61
-293.73
-283.44
-266.69
-244.73
-219.65
-193.70
-168.63
-145.36
-124.05
-104.42
-86.12
-68.94
-52.82
-37.73
-23.68
-10.60
1.55
12.86
23.42
33.32
42.62
51.26
59.06
65.76
71.01
74.55
76.21
75.97
73.94
70.26
65.09
58.48
50.50
41.24
31.01
20.42
10.34
1.82
-4.24
-7.26
-7.15
-4.23
1.09
8.53
18.21
30.56
46.11
65.26
88.13
114.62
144.49
177.24
211.86
246.63
279.36
308.15
332.27
352.59
371.24
390.36
410.74
431.14
448.74
460.32
463.63
457.99
444.02
422.78
395.02
361.12
321.57
277.62
231.52
186.14
144.03
106.59
73.63
43.72
15.09
-13.49
-42.12
-69.79
-94.94
-116.24
-133.21
-146.36
-157.03
-166.87
-177.41
-189.52
-202.96
-216.18
-226.54
-231.02
-227.09
-213.66
-191.24
-161.70
-127.44
-90.73
-53.31
-16.54
18.41
50.42
78.42
101.68
119.94
133.44
142.78
148.68
151.79
152.52
150.93
146.73
139.37
128.37
113.51
95.06
73.76
50.61
26.64
2.68
-20.71
-43.22
-64.58
-84.15
-100.57
-111.69
-114.94
-108.19
-90.77
-64.00
-30.98
4.46
38.94
70.34
97.64
120.29
137.47
147.97
150.78
145.89
134.81
120.24
105.08
91.38
79.84
70.04
61.14
52.61
44.49
37.08
30.49
24.34
17.85
10.26
1.23
-9.03
-20.01
-31.35
-43.18
-56.19
-71.30
-89.12
-109.60
-131.83
-154.05
-173.77
-187.96
-193.54
-188.02
-170.34
-141.62
-105.15
-65.81
-28.82
1.72
23.64
36.90
42.93
43.80
41.46
37.54
33.51
30.87
31.15
35.46
43.94
55.43
67.66
77.93
84.11
85.41
82.40
76.45
68.77
59.69
48.60
34.59
17.26
-2.89
-24.54
-46.36
-67.61
-88.39
-109.05
-129.27
-147.43
-160.48
-164.91
-158.00
-139.04
-109.79
-74.00
-36.25
-0.67
29.97
54.52
73.07
86.35
95.09
99.88
101.22
99.68
96.03
91.14
85.66
79.94
74.02
67.82
61.37
54.91
48.72
42.91
37.24
31.16
24.09
15.71
6.17
-3.96
-13.96
-23.26
-31.70
-39.58
-47.46
-56.00
-65.70
-76.77
-88.89
-101.11
-111.77
-118.65
-119.47
-112.55
-97.50
-75.58
-49.47
-22.56
2.01
22.12
36.92
46.64
52.11
54.19
53.67
51.26
47.79
44.21
41.38
39.72
38.84
37.56
34.34
27.88
17.88
5.31
-7.87
-19.32
-27.23
-30.94
-31.01
-28.84
-25.85
-22.95
-20.28
-17.48
-14.25
-10.70
-7.52
-5.69
-6.09
-9.19
-14.88
-22.49
-30.87
-38.51
-43.62
-44.46
-39.70
-28.94
-12.95
6.40
26.68
45.52
61.21
72.86
80.24
83.54
83.06
79.19
72.48
63.73
53.85
43.72
34.04
25.17
17.25
10.30
4.33
-0.64
-4.60
-7.60
-9.86
-11.68
-13.51
-15.82
-19.01
-23.36
-28.88
-35.35
-42.43
-49.74
-57.04
-64.23
-71.42
-78.88
-87.02
-96.26
-106.76
-118.21
-129.61
-139.28
-145.24
-145.79
-139.86
-127.15
-107.82
-82.18
-50.60
-13.91
26.00
65.88
101.62
129.29
146.49
153.01
150.57
141.84
129.35
114.87
99.61
84.63
71.23
60.71
53.89
50.61
49.88
50.32
50.84
50.88
50.20
48.51
45.20
39.47
30.92
19.84
7.24
-5.54
-17.47
-28.22
-38.27
-48.61
-60.36
-74.30
-90.48
-108.14
-125.57
-140.52
-150.67
-154.29
-150.72
-140.55
-125.35
-107.12
-87.82
-68.98
-51.64
-36.49
-23.93
-14.18
-7.33
-3.39
-2.29
-3.90
-7.87
-13.62
-20.37
-27.28
-33.83
-40.00
-46.32
-53.73
-63.18
-75.27
-89.95
-106.37
-122.96
-137.75
-148.81
-154.72
-154.91
-149.70
-139.99
-126.98
-111.98
-96.40
-82.00
-70.80
-64.67
-64.63
-70.10
-78.62
-86.27
-88.77
-82.67
-66.41
-40.57
-7.52
29.41
66.81
101.88
132.71
158.22
177.99
192.06
200.84
205.07
205.71
203.75
