1520868554.00
64.000000
-0.00
-0.00
-0.00
-0.00
-0.00
-0.00
-0.00
-0.00
-0.00
-0.00
0.00
0.01
0.01
-0.00
-0.03
-0.05
-0.05
0.00
0.13
0.36
0.66
1.01
1.37
1.72
2.06
2.40
2.79
3.24
3.80
4.42
5.06
5.66
6.20
6.68
7.15
7.68
8.31
9.14
10.09
11.04
11.88
12.56
13.14
13.76
14.65
15.96
17.91
20.32
22.90
25.38
27.58
29.57
31.68
34.32
37.81
42.54
48.15
54.10
59.83
64.97
69.58
74.14
79.34
85.71
93.76
103.00
112.62
121.73
129.77
136.75
143.30
150.75
157.77
166.64
177.95
191.79
206.97
220.57
228.25
225.36
208.53
176.87
132.76
80.05
23.07
-34.94
-92.44
-149.16
-205.23
-260.37
-313.74
-363.87
-409.83
-450.91
-486.50
-515.74
-537.23
-549.22
-549.96
-538.37
-514.21
-478.67
-433.88
-382.45
-327.02
-269.84
-212.63
-156.66
-102.95
-52.37
-5.90
35.58
71.43
101.35
125.50
144.38
158.69
169.15
176.37
180.75
182.57
182.07
179.51
175.23
169.65
163.18
156.15
148.81
141.30
133.69
126.02
118.33
110.69
103.16
95.80
88.68
81.83
75.25
68.95
62.95
57.25
51.86
46.78
42.03
37.59
33.45
29.61
26.07
22.81
19.83
17.11
14.67
12.48
10.54
8.83
7.35
6.07
4.97
4.05
3.27
2.62
2.09
1.65
1.30
1.01
0.79
0.61
0.47
0.37
0.28
0.22
0.18
0.15
0.13
0.12
0.12
0.12
0.13
0.15
0.18
0.21
0.25
0.28
0.32
0.37
0.41
0.46
0.51
0.56
0.61
0.66
0.72
0.78
0.85
0.92
1.00
1.09
1.18
1.30
1.42
1.55
1.71
1.88
2.07
2.29
2.52
2.79
3.07
3.39
3.74
4.12
4.54
4.99
5.48
6.00
6.56
7.17
7.82
8.51
9.24
10.03
10.85
11.72
12.63
13.60
14.62
15.71
16.86
18.07
19.33
20.60
21.85
22.99
23.94
24.58
24.79
24.45
23.48
21.79
19.39
16.31
12.62
8.49
4.07
-0.40
-4.73
-8.71
-12.15
-14.95
-17.03
-18.39
-19.07
-19.17
-18.78
-18.01
-16.91
-15.60
-14.14
-12.59
-11.02
-9.45
-7.93
-6.46
-5.02
-3.55
-2.03
-0.44
1.20
2.88
4.60
6.26
7.86
9.46
11.16
13.05
15.14
17.38
19.69
22.04
24.19
26.08
27.87
29.76
31.91
34.33
36.87
39.30
41.53
43.11
44.06
44.67
45.35
46.37
47.69
48.95
49.66
49.52
47.87
44.67
40.28
35.00
28.78
20.88
9.81
-6.71
-26.35
-48.72
-73.55
-100.73
-129.92
-160.24
-189.79
-215.79
-235.25
-245.92
-247.73
-241.83
-229.70
-212.30
-189.52
-160.77
-126.04
-86.91
-46.56
-9.38
21.19
43.75
59.03
69.10
76.04
81.14
84.62
86.12
85.01
81.45
76.44
71.43
67.80
66.25
66.64
68.08
69.41
69.57
68.08
65.16
61.39
57.39
53.50
49.66
45.59
40.92
35.35
28.76
21.28
13.19
4.90
-3.17
-10.74
-17.73
-24.30
-30.85
-37.89
-45.90
-55.15
-65.45
-75.99
-85.23
-91.01
-91.08
-83.79
-68.81
-47.41
-22.27
3.33
26.39
44.93
58.22
66.49
70.53
71.17
69.06
64.77
58.92
52.32
45.95
40.80
37.57
36.47
37.13
38.71
40.21
40.82
40.11
38.15
35.29
31.94
28.33
24.41
19.92
14.57
8.26
1.10
-6.54
-14.21
-21.54
-28.30
-34.48
-40.22
-45.78
-51.55
-58.00
-65.55
-74.41
-84.20
-93.80
-101.24
-104.17
-100.43
-88.87
-69.89
-45.49
-18.77
6.91
28.86
45.56
56.77
63.20
65.90
65.85
63.74
60.04
55.24
49.95
44.91
40.83
38.12
36.84
36.69
37.14
37.63
37.65
36.89
35.24
32.74
29.60
26.06
22.32
18.38
14.03
8.93
2.83
-4.26
-12.04
-20.00
-27.55
-34.29
-40.12
-45.29
-50.35
-56.03
-63.06
-71.89
-82.33
-93.26
-102.58
-107.56
-105.62
-95.22
-76.59
-51.81
-24.24
2.48
25.46
43.09
55.16
62.35
65.74
66.38
65.12
62.67
59.62
56.48
53.61
51.20
49.23
47.61
46.24
45.07
44.10
43.33
42.69
41.96
40.82
38.91
35.96
31.89
26.83
21.09
14.99
8.75
2.45
-3.93
-10.43
-16.96
-23.39
-29.57
-35.44
-41.06
-46.66
-52.69
-59.70
-68.16
-78.17
-89.07
-99.23
-106.16
-107.22
-100.47
-85.49
-63.66
-37.84
-11.57
12.04
30.98
44.61
53.42
58.43
60.74
61.22
60.44
58.82
56.74
54.59
52.67
51.16
49.97
48.93
47.89
46.84
46.00
45.59
45.63
45.81
45.47
43.93
40.78
36.07
30.33
24.30
18.58
13.40
8.52
3.42
-2.44
-9.29
-16.94
-24.79
-32.07
-38.18
-42.97
-46.91
-50.98
-56.42
-64.15
-74.27
-85.67
-96.00
-102.29
-101.74
-92.74
-75.51
-52.14
-25.97
-0.57
21.22
37.95
49.51
56.73
60.68
62.31
62.20
60.72
58.25
55.24
52.17
49.45
47.30
45.72
44.57
43.61
42.57
41.18
39.19
36.44
32.86
28.50
23.43
17.71
11.33
4.22
-3.68
-12.27
-21.32
-30.46
-39.34
-47.67
-55.27
-61.99
-67.76
-72.54
-76.55
-80.26
-84.43
-89.70
-96.17
-102.84
-107.74
-108.30
-102.42
-89.39
-70.31
-47.79
-24.96
-4.43
12.44
25.52
35.43
42.80
47.88
50.56
50.69
48.52
44.69
40.16
35.73
31.84
28.44
25.24
22.00
18.76
15.87
13.80
12.90
13.22
14.48
16.12
17.43
17.74
16.61
13.88
9.73
4.67
-0.60
-5.40
-9.23
-11.86
-13.32
-13.86
-13.90
-13.95
-14.54
-16.00
-18.17
-20.18
-20.53
-17.42
-9.40
4.03
21.98
42.27
61.95
78.11
88.68
92.93
91.52
86.19
78.97
71.71
65.57
61.10
58.43
57.52
58.28
60.43
63.42
66.32
68.09
67.78
64.84
59.18
51.04
40.86
29.06
16.04
2.12
-12.27
-26.63
-40.27
-52.42
-62.30
-69.30
-73.22
-74.32
-73.33
-71.27
-69.21
-68.14
-68.89
-72.07
-77.92
-86.01
-94.98
-102.59
-106.18
-103.42
-93.18
-75.96
-53.87
-29.86
-6.91
12.80
28.19
39.30
46.87
51.89
55.20
57.27
58.20
57.83
56.04
52.99
49.20
45.48
42.55
40.75
39.94
39.58
39.06
37.93
36.06
33.54
30.53
27.12
23.30
19.01
14.19
8.84
3.00
-3.25
-9.80
-16.43
-22.87
-28.75
-33.84
-38.20
-42.21
-46.59
-52.21
-59.77
-69.44
-80.52
-91.40
-99.72
-102.92
-99.02
-87.32
-68.75
-45.73
-21.43
1.07
19.63
33.43
42.84
48.87
52.60
54.71
55.37
54.53
52.25
48.91
45.23
42.04
39.96
39.18
39.45
40.15
40.63
40.48
39.52
37.90
35.82
33.41
30.66
27.40
23.39
18.48
12.71
6.27
-0.53
-7.36
-13.96
-20.15
-25.95
-31.44
-36.83
-42.41
-48.57
-55.68
-63.89
-72.92
-81.76
-88.67
-91.50
-88.32
-78.19
-61.58
-40.39
-17.43
4.34
22.67
36.35
45.29
50.13
51.81
51.19
48.84
45.18
40.64
35.85
31.58
28.55
27.09
26.97
27.47
27.73
27.16
25.69
23.71
21.72
19.93
18.08
15.53
11.58
5.89
-1.26
-9.02
-16.34
-22.44
-27.10
-30.75
-34.27
-38.63
-44.54
-52.30
-61.66
-71.78
-81.20
-87.99
-90.04
-85.70
-74.41
-57.07
-35.92
-13.86
6.39
23.02
35.39
43.70
48.47
50.24
49.43
46.44
41.92
36.74
31.87
28.10
25.75
24.65
24.28
24.07
23.64
22.96
22.19
21.41
20.46
18.82
15.86
11.18
4.86
-2.51
-10.10
-17.17
-23.41
-28.99
-34.52
-40.77
-48.37
-57.61
-68.06
-78.44
-86.69
-90.40
-87.58
-77.37
-60.58
-39.42
-16.87
4.29
22.21
36.12
46.15
52.81
56.56
57.74
56.62
53.60
49.30
44.61
40.46
37.57
36.19
35.98
36.12
35.64
33.85
30.70
26.74
22.82
19.51
16.80
14.02
10.19
4.59
-2.90
-11.67
-20.70
-28.94
-35.75
-41.08
-45.50
-50.00
-55.72
-63.54
-73.69
-85.53
-97.32
-106.52
-110.41
-106.83
-94.94
-75.65
-51.37
-25.38
-0.88
19.82
35.74
47.10
54.82
59.91
63.13
64.84
65.21
64.44
62.83
60.74
58.53
56.36
54.26
52.17
50.07
47.95
45.87
43.86
41.89
39.80
37.38
34.35
30.43
25.43
19.31
12.20
4.37
-3.82
-11.99
-19.74
-26.73
-32.80
-38.09
-43.11
-48.62
-55.51
-64.37
-75.25
-87.33
-98.93
-107.69
-111.12
-107.25
-95.30
-76.10
-51.94
-25.98
-1.38
19.51
35.68
47.30
55.23
60.51
63.87
65.70
66.22
65.71
64.58
63.27
62.07
60.93
59.53
57.57
55.03
52.33
50.10
48.84
48.61
48.83
48.57
46.93
43.48
38.41
32.39
26.17
20.30
14.89
9.68
4.20
-1.98
-9.07
-16.91
-25.05
-32.84
-39.73
-45.44
-50.15
-54.54
-59.57
-66.28
-75.30
-86.47
-98.52
-109.09
-115.16
-114.00
-104.08
-85.75
-61.26
-34.06
-7.74
14.94
32.63
45.30
53.71
58.89
61.66
62.62
62.18
60.72
58.68
56.48
54.46
52.83
51.58
50.58
49.66
48.76
47.97
47.49
47.45
47.72
47.87
47.22
45.11
41.20
35.64
29.03
22.20
15.86
10.36
5.54
0.93
-4.02
-9.61
-15.77
-22.15
-28.25
-33.76
-38.66
-43.28
-48.22
-54.18
-61.76
-71.23
-82.14
-93.22
-102.25
-106.61
-103.94
-93.09
-74.66
-50.94
-25.28
-0.98
19.49
35.05
45.81
52.59
56.37
57.91
57.71
56.10
53.40
50.00
46.38
43.02
40.39
38.71
38.08
38.30
39.09
40.08
40.92
41.23
40.65
38.79
35.40
30.53
24.55
18.12
11.93
6.38
1.45
-3.28
-8.34
-14.10
-20.47
-26.99
-33.10
-38.43
-43.06
-47.56
-52.81
-59.71
-68.86
-80.07
-92.16
-102.93
-109.50
-109.13
-100.15
-82.70
-58.86
-32.08
-6.05
16.30
33.43
45.25
52.56
56.48
57.94
57.58
55.82
53.06
49.75
46.37
43.45
41.32
40.09
39.67
39.82
40.24
40.67
40.92
40.80
40.08
38.49
35.78
31.83
26.81
21.10
15.21
9.50
4.07
-1.25
-6.84
-12.98
-19.77
-27.00
-34.28
-41.21
-47.60
-53.60
-59.84
-67.24
-76.55
-87.83
-100.02
-110.84
-117.29
-116.64
-107.38
-89.84
-66.18
-39.59
-13.32
10.13
29.29
43.70
53.47
59.13
61.44
61.33
59.81
57.72
55.60
53.63
51.76
49.85
47.87
45.87
44.07
42.68
41.90
41.81
42.28
42.88
42.92
41.65
38.53
33.55
27.29
20.66
14.54
9.35
4.91
0.54
-4.52
-10.75
-18.10
-26.05
-33.83
-40.75
-46.56
-51.48
-56.24
-61.80
-69.13
-78.81
-90.61
-103.25
-114.38
-121.04
-120.48
-111.06
-92.98
-68.31
-40.48
-13.20
10.53
29.12
42.39
51.15
56.58
59.64
60.99
61.06
60.17
58.74
57.23
55.97
55.08
54.44
53.79
53.00
52.14
51.48
51.26
51.51
51.87
51.70
50.25
46.99
41.84
35.23
27.94
20.82
14.52
9.22
4.64
0.20
-4.77
-10.69
-17.63
-25.24
-32.88
-39.89
-45.90
-50.92
-55.52
-60.67
-67.40
-76.44
-87.65
-99.77
-110.44
-116.64
-115.64
-105.89
-87.68
-63.08
-35.44
-8.34
15.33
33.91
47.06
55.39
59.93
61.57
61.01
58.70
55.12
50.85
46.62
43.15
40.94
40.13
40.47
41.46
42.55
43.37
43.73
43.58
42.85
41.44
39.20
36.10
32.22
27.72
22.67
17.07
10.82
3.96
-3.29
-10.47
-17.12
-22.90
-27.85
-32.28
-36.72
-41.81
-48.18
-56.36
-66.51
-78.06
-89.48
-98.34
-101.87
-97.82
-85.35
-65.43
-40.64
-14.39
10.05
30.27
45.12
54.60
59.51
60.97
60.06
57.63
54.28
50.42
46.42
42.71
39.74
37.87
37.22
37.65
38.76
40.07
41.04
41.21
40.29
38.18
35.02
31.13
26.88
22.47
17.84
12.68
6.70
-0.20
-7.74
-15.35
-22.47
-28.80
-34.44
-39.75
-45.25
-51.40
-58.63
-67.30
-77.61
-89.26
-101.11
-110.98
-116.02
-113.63
-102.43
-82.96
-57.74
-30.37
-4.44
17.43
34.13
45.82
53.42
57.99
60.35
60.96
60.07
57.91
54.75
51.04
47.36
44.30
42.34
41.69
42.20
43.44
44.75
45.56
45.42
44.08
41.54
37.90
33.35
28.07
22.24
15.96
9.31
2.31
-4.98
-12.47
-19.98
-27.29
-34.23
-40.78
-47.17
-53.92
-61.76
-71.36
-82.99
-96.07
-108.98
-119.20
-123.75
-120.22
-107.57
-86.66
-60.12
-31.60
-4.65
18.19
35.84
48.52
57.14
62.82
66.41
68.41
69.14
68.88
67.95
66.63
65.14
63.57
61.92
60.25
58.68
57.47
56.81
56.72
56.83
56.53
55.11
52.05
47.29
41.20
34.44
27.66
21.22
15.06
8.78
1.92
-5.79
-14.24
-22.93
-31.21
-38.51
-44.67
-50.02
-55.41
-61.95
-70.61
-81.74
-94.67
-107.50
-117.42
-121.36
-116.95
-103.42
-81.95
-55.42
-27.56
-1.76
19.65
35.89
47.40
55.35
60.90
64.91
67.70
69.24
69.41
68.22
65.99
63.26
60.68
58.73
57.62
57.21
57.14
57.04
56.58
55.55
53.79
51.18
47.59
43.06
37.79
32.13
26.37
20.63
14.78
8.51
1.57
-6.04
-14.04
-21.97
-29.36
-35.94
-41.80
-47.48
-53.78
-61.61
-71.46
-83.00
-94.77
-104.28
-108.67
-105.55
-93.94
-74.68
-50.28
-24.13
0.53
21.42
37.56
49.07
56.72
61.29
63.40
63.32
61.26
57.64
53.18
48.81
45.46
43.70
43.54
44.50
45.79
46.71
46.83
46.08
44.62
42.63
40.18
37.10
33.13
28.07
21.86
14.79
7.30
-0.10
-6.98
-13.20
-18.85
-24.26
-29.79
-35.86
-42.84
-51.11
-60.87
-71.82
-82.89
-92.08
-96.79
-94.62
-84.29
-66.26
-42.78
-17.18
7.12
27.60
43.06
53.52
59.76
62.72
63.15
61.57
58.40
54.20
49.64
45.52
42.47
40.82
40.40
40.64
40.77
40.15
38.48
35.93
32.94
29.93
27.04
23.99
20.22
15.18
8.53
0.45
-8.49
-17.48
-25.75
-32.82
-38.59
-43.38
-47.74
-52.30
-57.73
-64.62
-73.37
-83.91
-95.34
-105.74
-112.40
-112.55
-104.42
-88.04
-65.44
-40.02
-15.40
5.69
21.98
33.55
41.28
46.12
48.78
49.66
49.04
47.29
44.85
42.13
39.43
36.91
34.68
32.78
31.26
30.12
29.26
28.39
27.14
25.11
22.12
18.31
14.10
10.03
6.53
3.69
1.29
-1.09
-3.80
-6.95
-10.39
-13.86
-17.21
-20.56
-24.24
-28.76
-34.58
-42.02
-51.17
-61.69
-72.53
-81.92
-87.40
-86.52
-77.64
-60.70
-37.49
-11.23
14.45
36.57
53.57
65.40
72.99
77.56
80.06
80.96
80.49
78.90
76.62
74.09
71.63
69.23
66.62
63.52
59.87
55.93
52.13
48.77
45.73
42.57
38.74
33.85
27.91
21.25
14.30
7.29
0.27
-6.92
-14.41
-22.21
-30.17
-38.13
-45.96
-53.70
-61.38
-68.98
-76.52
-84.09
-92.04
-100.81
-110.54
-120.58
-129.21
-133.85
-131.83
-121.43
-102.78
-78.03
-50.79
-25.03
-3.97
10.68
18.83
21.69
21.14
19.18
17.55
17.55
19.98
25.08
32.54
41.36
50.12
57.25
61.53
62.57
60.94
57.89
54.77
52.47
51.10
50.17
48.97
46.96
43.90
39.81
34.74
28.69
21.70
14.01
6.13
-1.37
-8.00
-13.67
-18.75
-23.92
-30.03
-37.74
-47.34
-58.37
-69.57
-78.87
-83.82
-82.37
-73.54
-57.98
-37.85
-16.13
4.29
21.43
34.57
44.01
50.47
54.61
56.68
56.65
54.51
50.55
45.50
40.39
36.24
33.74
32.99
33.64
34.93
36.10
36.58
36.09
34.65
32.42
29.56
26.11
21.88
16.65
10.19
2.52
-5.88
-14.22
-21.60
-27.36
-31.41
-34.26
-36.83
-40.07
-44.69
-51.03
-58.88
-67.52
-75.66
-81.52
-83.14
-78.93
-68.39
-52.38
-33.03
-12.98
5.43
20.81
32.80
41.58
47.40
50.17
49.58
45.53
38.58
30.00
21.47
14.57
10.27
8.69
9.21
10.75
12.24
12.90
12.44
11.18
9.73
8.77
8.62
9.00
9.08
7.85
4.61
-0.66
-7.20
-13.90
-19.78
-24.44
-28.17
-31.74
-36.04
-41.83
-49.45
-58.62
-68.22
-76.33
-80.42
-78.17
-68.23
-50.96
-28.51
-4.21
18.49
36.97
50.10
58.20
62.35
63.78
63.40
61.66
58.76
54.98
50.76
46.62
43.00
39.97
37.26
34.40
31.04
27.11
22.89
18.77
15.08
11.88
9.09
6.59
4.26
1.98
-0.56
-3.84
-8.33
-14.14
-20.81
-27.41
-32.85
-36.53
-38.66
-40.25
-42.72
-47.29
-54.39
-63.66
-73.97
-83.76
-91.38
-95.24
-94.06
-87.02
-74.08
-56.20
-35.22
-13.63
6.11
22.11
33.61
40.90
45.02
47.18
48.31
48.85
48.89
48.46
47.79
47.36
47.66
48.96
51.22
54.05
56.96
59.51
61.44
62.67
63.16
62.95
62.06
60.53
58.41
55.67
52.18
47.62
41.62
33.93
24.68
14.52
4.47
-4.37
-11.17
-15.68
-18.29
-19.87
-21.56
-24.47
-29.51
-37.06
-46.67
-56.86
-65.19
-68.90
-65.79
-55.26
-38.67
-19.06
-0.14
14.94
24.58
28.88
29.27
27.75
26.01
25.05
25.09
25.78
26.60
27.09
26.99
26.19
24.70
22.53
19.66
16.19
12.26
8.09
3.86
-0.40
-4.86
-9.82
-15.51
-21.99
-29.04
-36.32
-43.48
-50.30
-56.66
-62.57
-68.00
-72.97
-77.43
-81.42
-85.06
-88.58
-92.36
-96.91
-102.63
-109.48
-116.55
-121.90
-122.85
-116.78
-102.10
-79.02
-49.77
-17.94
12.58
38.74
59.03
73.55
83.42
89.99
94.26
96.63
97.15
95.95
93.53
90.71
88.28
86.52
85.05
83.11
80.10
76.05
71.61
67.65
64.70
62.59
60.48
57.33
52.42
45.55
37.06
27.58
17.79
8.37
-0.09
-7.22
-13.04
-18.06
-23.25
-29.69
-38.16
-48.74
-60.69
-72.40
-81.59
-85.76
-82.77
-71.58
-52.84
-29.01
-3.82
18.76
35.79
46.03
49.99
49.37
46.12
41.80
37.32
33.16
29.54
26.65
24.45
22.59
20.39
17.01
11.90
5.10
-2.50
-9.44
-14.18
-15.77
-14.28
-10.86
-7.32
-5.34
-5.90
-9.02
-13.93
-19.63
-25.44
-31.31
-37.71
-45.31
-54.65
-65.93
-79.08
-93.74
-109.24
-124.29
-136.89
-144.45
-144.42
-135.23
-117.05
-92.02
-63.74
-36.19
-12.62
5.27
17.38
24.74
28.75
30.58
30.94
30.15
28.41
26.03
23.44
21.10
19.23
17.72
16.20
14.30
11.87
9.09
6.34
3.93
1.84
-0.39
-3.45
-7.92
-13.99
-21.25
-28.85
-35.83
-41.62
-46.26
-50.43
-55.21
-61.71
-70.58
-81.66
-93.79
-104.87
-112.28
-113.44
-106.60
-91.34
-68.78
-41.25
-11.74
16.83
42.18
62.89
78.40
88.84
94.80
97.13
96.82
94.82
91.96
88.89
86.06
83.72
81.95
80.64
79.61
78.66
77.71
76.79
76.06
75.44
74.53
72.53
68.48
61.74
52.34
41.08
29.30
18.23
8.55
0.07
-8.17
-17.43
-28.87
-43.05
-59.71
-77.58
-94.46
-107.50
-113.83
-111.35
-99.46
-79.40
-53.97
-26.84
-1.49
19.49
34.85
44.59
49.51
50.86
49.87
47.63
45.06
42.81
41.31
40.73
40.98
41.79
42.79
43.55
43.78
43.33
42.29
40.90
39.49
38.25
37.05
35.48
32.95
29.02
23.64
17.21
10.38
3.72
-2.59
-8.83
-15.45
-22.75
-30.61
-38.59
-46.11
-52.58
-57.42
-59.70
-58.08
-50.94
-37.07
-16.40
9.47
37.56
64.31
86.83
103.77
115.50
123.55
129.69
135.16
140.33
144.91
148.32
150.01
149.60
146.87
141.64
133.92
123.92
112.14
99.32
86.15
73.22
60.89
49.33
38.60
28.79
19.92
11.95
4.81
-1.66
-7.64
-13.33
-18.94
-24.69
-30.70
-36.97
-43.30
-49.41
-55.14
-60.63
-66.41
-73.13
-81.02
-89.31
-96.04
-98.41
-93.54
-79.65
-56.71
-26.64
7.28
41.48
73.13
100.72
124.15
144.21
161.97
178.20
193.00
205.86
215.77
221.61
222.51
218.03
208.31
193.90
175.66
154.62
131.82
108.30
84.98
62.58
41.46
21.79
3.69
-12.55
-26.34
-37.07
-44.51
-49.16
-52.31
-55.72
-60.98
-69.00
-79.70
-92.17
-105.12
-117.40
-128.31
-137.76
-146.22
-154.44
-163.22
-173.03
-183.59
-193.71
-201.35
-204.07
-199.76
-187.42
-167.68
-142.76
-116.09
-91.28
-71.22
-57.25
-49.03
-44.97
-42.94
-41.21
-38.96
-36.29
-33.72
-31.68
-30.11
-28.40
-25.81
-21.78
-16.17
-9.28
-1.59
6.44
14.41
21.87
28.29
32.94
35.07
34.06
29.63
21.94
11.55
-0.76
-14.19
-28.05
-41.81
-55.06
-67.23
-77.59
-85.42
-90.44
-93.16
-95.06
-98.10
-103.95
-113.04
-124.13
-134.39
-140.29
-138.86
-128.67
-110.24
-85.64
-57.75
-29.19
-1.90
23.00
44.90
63.13
76.87
85.30
87.94
85.17
78.24
69.00
59.44
51.10
44.86
40.87
38.78
37.95
37.68
37.29
36.19
33.95
30.28
25.17
18.85
11.75
4.39
-2.69
-9.04
-14.30
-18.24
-20.76
-21.86
-21.77
-20.79
-19.38
-18.01
-17.33
-18.12
-21.31
-27.74
-37.62
-50.04
-62.71
-72.31
-75.36
-69.50
-54.39
-31.89
-5.56
20.60
43.29
60.73
72.64
79.72
83.03
83.43
81.60
78.18
73.96
69.89
66.78
64.96
64.15
63.54
62.23
59.60
55.61
50.71
45.58
40.70
36.07
31.12
25.05
17.18
7.36
-3.84
-15.33
-25.91
-34.73
-41.52
-46.53
-50.33
-53.63
-57.20
-61.84
-68.27
-76.97
-87.99
-100.96
-115.30
-130.63
-146.81
-163.69
-180.36
-194.72
-203.50
-203.24
-191.65
-168.79
-137.47
-102.37
-68.64
-40.33
-19.34
-5.33
3.69
10.25
16.59
24.08
33.10
43.31
53.91
64.04
72.88
79.80
84.45
86.81
87.30
86.85
86.60
87.47
89.75
92.88
95.59
96.42
94.32
88.93
80.54
69.79
57.32
43.67
29.31
14.85
1.03
-11.37
-21.82
-30.24
-36.99
-42.72
-48.10
-53.83
-60.44
-68.23
-77.05
-85.99
-93.32
-96.71
-93.93
-83.66
-66.24
-43.70
-19.25
3.72
22.57
35.97
43.77
46.56
45.19
40.37
32.62
22.45
10.40
-2.84
-16.50
-29.81
-42.12
-52.98
-62.19
-69.86
-76.21
-81.52
-85.94
-89.38
-91.65
-92.64
-92.47
-91.53
-90.36
-89.45
-89.07
-89.24
-89.72
-90.21
-90.45
-90.47
-90.62
-91.53
-93.90
-98.36
-105.13
-113.92
-123.79
-133.13
-139.68
-140.76
-133.88
-117.44
-91.53
-58.29
-21.53
14.21
45.01
68.52
84.21
92.85
95.79
94.27
89.24
81.67
72.83
64.39
58.04
54.90
55.02
57.48
60.71
63.31
64.54
64.60
64.32
64.70
66.17
68.30
69.88
69.35
65.42
57.71
46.84
34.14
21.11
8.76
-2.72
-13.88
-25.62
-38.80
-53.88
-70.76
-88.68
-106.09
-120.74
-129.99
-131.43
-123.58
-106.64
-82.51
-54.41
-25.96
-0.25
20.79
36.57
47.41
54.06
57.32
57.94
56.77
54.90
53.64
54.26
57.53
63.31
70.62
77.96
83.98
88.07
90.32
91.32
91.53
90.87
88.73
84.30
77.20
67.83
57.28
46.94
37.91
30.46
23.96
17.00
7.96
-4.51
-20.90
-40.45
-60.99
-79.27
-91.65
-95.15
-88.39
-72.11
-49.06
-23.06
2.03
23.27
39.20
49.53
54.75
55.58
52.71
46.83
38.78
29.58
20.44
12.40
6.22
2.21
0.31
0.27
1.76
4.44
7.87
11.49
14.60
16.39
16.26
13.86
9.35
3.25
-3.74
-10.94
-17.90
-24.60
-31.49
-39.39
-49.14
-61.19
-74.88
-88.27
-98.43
-102.22
-97.35
-83.11
-60.66
-32.56
-1.97
28.14
55.50
78.73
97.11
110.51
119.22
123.82
125.17
124.17
121.79
118.84
116.03
113.83
112.45
111.79
111.51
111.21
110.57
109.48
107.96
105.99
103.37
99.61
94.15
86.55
76.80
65.39
53.20
41.19
30.03
19.90
10.36
0.50
-10.81
-24.50
-40.91
-59.39
-78.08
-94.08
-104.11
-105.52
-97.22
-80.22
-57.40
-32.50
-8.93
11.19
27.29
39.93
49.96
57.94
63.92
67.74
69.41
69.30
68.11
66.54
65.06
63.82
62.81
62.03
61.68
62.03
63.24
65.12
67.01
67.97
67.04
63.64
57.80
50.17
41.82
33.81
26.77
20.70
15.10
9.28
2.74
-4.56
-12.24
-19.73
-26.61
-32.85
-38.91
-45.65
-54.01
-64.70
-77.60
-91.60
-104.40
-113.00
-114.46
-106.89
-90.16
-66.14
-38.06
-9.55
16.36
37.89
54.52
66.61
74.88
80.01
82.57
83.12
82.27
80.69
79.00
77.64
76.74
76.12
75.50
74.58
73.25
71.60
69.80
67.92
65.86
63.24
59.61
54.67
48.46
41.42
34.21
27.44
21.42
16.00
10.77
5.20
-1.00
-7.80
-14.93
-21.95
-28.51
-34.49
-40.07
-45.78
-52.35
-60.55
-70.74
-82.47
-94.17
-103.35
-107.17
-103.40
-91.33
-72.05
-48.11
-22.70
1.40
22.46
39.75
53.19
62.80
68.50
70.25
68.33
63.64
57.58
51.73
47.31
44.95
44.54
45.48
46.98
48.33
49.10
49.13
48.55
47.57
46.30
44.59
42.03
38.09
32.40
25.07
16.66
8.11
0.24
-6.46
-12.01
-16.82
-21.44
-26.37
-32.07
-38.91
-47.18
-56.78
-67.00
-76.29
-82.48
-83.34
-77.36
-64.34
-45.58
-23.56
-1.20
18.90
35.04
46.57
53.59
56.60
56.18
52.85
47.21
40.19
32.98
26.87
22.81
21.07
21.11
21.96
22.54
22.18
20.78
18.65
16.23
13.79
11.20
8.04
3.80
-1.85
-8.87
-16.77
-24.79
-32.14
-38.30
-43.28
-47.62
-52.23
-58.05
-65.66
-74.98
-85.10
-94.32
-100.44
-101.29
-95.40
-82.54
-63.93
-41.97
-19.56
0.70
17.13
29.18
37.19
41.99
44.43
45.13
44.45
42.61
39.86
36.61
33.38
30.73
29.02
28.30
28.31
28.60
28.72
28.39
27.55
26.25
24.52
22.27
19.35
15.55
10.83
5.28
-0.89
-7.40
-13.92
-20.11
-25.70
-30.60
-34.99
-39.37
-44.38
-50.73
-58.90
-68.91
-80.10
-91.07
-99.81
-104.12
-102.22
-93.28
-77.82
-57.56
-34.96
-12.65
7.18
23.13
34.61
41.78
45.36
46.41
46.04
45.21
44.49
44.06
43.80
43.48
42.93
42.10
41.10
40.10
39.32
38.95
39.01
39.31
39.43
38.73
36.72
33.24
28.50
23.06
17.55
12.43
7.80
3.44
-1.09
-6.16
-11.92
-18.19
-24.54
-30.50
-35.72
-40.18
-44.28
-48.74
-54.41
-61.88
-71.09
-80.99
-89.55
-94.17
-92.43
-83.08
-66.53
-44.87
-21.30
0.95
19.53
33.37
42.69
48.42
51.62
53.07
53.19
52.23
50.42
48.17
45.92
44.03
42.60
41.42
40.11
38.43
36.41
34.39
32.81
31.93
31.63
31.41
30.57
28.52
24.97
19.99
13.97
7.52
1.25
-4.40
-9.24
-13.45
-17.56
-22.14
-27.59
-33.90
-40.59
-46.96
-52.42
-56.74
-60.15
-63.31
-67.02
-72.07
-78.90
-87.30
-96.27
-103.97
-108.02
-106.13
-96.94
-80.55
-58.77
-34.60
-11.34
8.34
23.03
32.70
38.16
40.52
40.72
39.36
36.83
33.58
30.17
27.20
25.08
23.86
23.25
22.83
22.24
21.42
20.47
19.59
18.79
17.87
16.47
14.30
11.25
7.41
3.00
-1.79
-6.86
-12.23
-17.94
-23.96
-30.13
-36.18
-41.81
-46.79
-51.18
-55.22
-59.46
-64.51
-70.90
-78.70
-87.20
-94.87
-99.55
-99.06
-91.93
-77.98
-58.52
-35.99
-13.25
7.20
23.76
35.90
43.89
48.43
50.25
49.99
48.21
45.42
42.26
39.31
37.08
35.81
35.42
35.59
35.91
36.02
35.72
35.00
33.94
32.65
31.06
28.98
26.11
22.14
16.88
10.39
3.05
-4.57
-11.80
-18.16
-23.47
-28.03
-32.47
-37.65
-44.33
-52.92
-63.14
-73.92
-83.43
-89.43
-89.90
-83.61
-70.59
-52.20
-30.79
-9.10
10.51
26.43
38.09
45.65
49.76
51.12
50.30
47.76
43.98
39.57
35.29
31.88
29.79
29.05
29.26
29.75
29.94
29.59
28.80
27.81
26.87
25.91
24.60
22.42
18.90
13.83
7.36
-0.00
-7.57
-14.61
-20.68
-25.67
-29.85
-33.82
-38.34
-44.11
-51.56
-60.66
-70.71
-80.24
-87.19
-89.39
-85.18
-74.01
-56.78
-35.56
-13.02
8.26
26.34
40.12
49.23
53.76
54.15
51.13
45.74
39.20
32.75
27.34
23.46
21.15
20.06
19.79
19.97
20.42
21.10
21.97
22.85
23.37
22.99
21.14
17.37
11.64
4.32
-3.84
-11.90
-19.05
-24.86
-29.47
-33.64
-38.39
-44.75
-53.26
-63.56
-74.32
-83.35
-88.25
-86.97
-78.56
-63.46
-43.38
-20.91
1.26
20.86
36.45
47.45
53.93
56.33
55.30
51.58
46.04
39.64
33.36
28.04
24.22
22.07
21.41
21.86
22.94
24.21
25.24
25.62
24.94
22.82
18.98
13.39
6.26
-1.93
-10.60
-19.13
-27.09
-34.38
-41.22
-48.22
-56.12
-65.47
-76.19
-87.24
-96.57
-101.48
-99.49
-89.26
-71.15
-47.35
-21.13
4.13
25.87
42.86
55.09
63.22
68.04
70.10
69.72
67.22
63.18
58.52
54.32
51.45
50.29
50.59
51.59
52.41
52.43
51.50
49.83
47.77
45.46
42.68
38.91
33.66
26.68
18.23
8.93
-0.37
-8.97
-16.52
-23.17
-29.47
-36.20
-44.18
-53.98
-65.75
-78.90
-91.98
-102.70
-108.39
-106.70
-96.53
-78.51
-55.00
-29.38
-4.98
15.85
32.17
44.33
53.31
60.01
64.92
68.16
69.65
69.43
67.71
64.96
61.81
58.86
56.64
55.47
55.33
55.88
56.59
56.86
56.26
54.56
51.71
47.76
42.81
36.98
30.40
23.28
15.80
8.05
0.03
-8.28
-16.82
-25.35
-33.54
-41.14
-48.15
-54.97
-62.32
-70.98
-81.35
-93.03
-104.46
-113.14
-116.20
-111.37
-97.87
-76.81
-50.92
-23.55
2.24
24.51
42.49
56.27
66.30
73.04
76.93
78.48
78.34
77.28
75.99
74.86
73.92
72.99
71.82
70.26
68.45
66.71
65.40
64.75
64.62
64.52
63.70
61.40
57.23
51.30
44.28
37.14
30.83
25.86
22.11
18.89
15.17
10.16
3.58
-4.06
-11.78
-18.59
-23.91
-27.90
-31.36
-35.43
-41.22
-49.46
-60.32
-73.16
-86.44
-97.77
-104.31
-103.53
-94.08
-76.41
-52.78
-26.67
-1.68
19.35
34.94
44.98
50.32
52.27
52.08
50.69
48.64
46.20
43.44
40.47
37.42
34.43
31.55
28.84
26.35
24.32
23.05
22.74
23.29
24.13
24.44
23.40
20.64
16.33
11.11
5.78
1.00
-2.91
-5.97
-8.50
-10.95
-13.75
-17.14
-21.14
-25.48
-29.77
-33.63
-36.88
-39.69
-42.55
-46.12
-51.02
-57.46
-64.91
-71.96
-76.52
-76.35
-69.86
-56.76
-38.33
-17.06
4.22
23.13
38.38
49.72
57.56
62.48
64.86
64.93
62.91
59.26
54.68
49.95
45.74
42.47
40.27
39.02
38.50
38.39
38.30
37.86
36.69
34.58
31.48
27.50
22.82
17.65
12.10
6.23
0.05
-6.44
-13.18
-20.01
-26.67
-32.86
-38.43
-43.48
-48.47
-54.18
-61.36
-70.40
-80.94
-91.73
-100.73
-105.60
-104.36
-96.06
-81.07
-61.15
-38.97
-17.39
1.27
15.69
25.67
31.81
35.05
36.23
35.88
34.28
31.59
28.17
24.60
21.62
19.84
19.53
20.52
22.30
24.21
25.61
26.06
25.39
23.65
21.07
17.95
14.50
10.82
6.84
2.50
-2.25
-7.28
-12.35
-17.22
-21.75
-26.04
-30.25
-34.60
-39.22
-44.23
-49.92
-56.69
-64.85
-74.16
-83.46
-90.65
-93.18
-88.90
-76.95
-58.19
-35.06
-10.81
11.49
29.76
43.20
52.10
57.33
59.87
60.45
59.60
57.60
54.76
51.38
47.77
44.21
40.90
37.92
35.31
33.15
31.55
30.58
30.19
30.08
29.72
28.56
26.24
22.75
18.45
13.79
9.11
4.48
-0.23
-5.20
-10.45
-15.84
-21.11
-26.04
-30.58
-34.83
-39.04
-43.59
-49.04
-56.02
-65.02
-75.94
-87.68
-98.14
-104.52
-104.30
-96.06
-80.10
-58.48
-34.32
-10.89
9.34
25.12
36.40
43.84
48.31
50.52
50.90
49.80
47.61
44.84
41.97
39.30
36.84
34.46
32.03
29.68
27.78
26.75
26.77
27.60
28.48
28.51
26.86
23.21
17.84
11.44
4.90
-1.08
-6.17
-10.53
-14.61
-19.01
-24.07
-29.80
-35.83
-41.61
-46.72
-51.09
-55.09
-59.45
-65.01
-72.28
-81.11
-90.41
-98.25
-102.27
-100.36
-91.40
-75.76
-55.28
-32.78
-11.20
7.23
21.48
31.66
38.62
43.26
46.27
47.89
48.23
47.44
45.97
44.45
43.59
43.77
44.97
46.71
48.24
48.82
48.03
45.89
42.85
39.51
36.30
33.21
29.85
25.55
19.78
12.46
4.02
-4.67
-12.75
-19.67
-25.48
-30.74
-36.34
-43.13
-51.55
-61.52
-72.22
-82.23
-89.72
-92.84
-90.17
-81.13
-66.27
-47.21
-26.30
-6.06
11.39
24.78
33.80
38.82
40.57
39.83
37.25
33.41
29.01
24.77
21.34
19.12
18.00
17.49
16.95
15.91
14.29
12.40
10.67
9.31
8.15
6.64
4.18
0.32
-4.90
-11.02
-17.34
-23.24
-28.44
-33.09
-37.77
-43.19
-50.01
-58.52
-68.42
-78.67
-87.49
-92.72
-92.36
-85.24
-71.49
-52.65
-31.19
-9.85
9.18
24.63
36.26
44.48
50.04
53.65
55.86
57.08
57.64
57.79
57.71
57.56
57.50
57.65
58.13
58.95
59.94
60.71
60.81
59.82
57.52
54.00
49.53
44.54
39.32
34.05
28.68
23.03
16.85
9.97
2.47
-5.34
-12.96
-19.87
-25.80
-30.91
-35.79
-41.40
-48.66
-58.13
-69.62
-82.01
-93.27
-100.85
-102.35
-96.23
-82.42
-62.47
-39.15
-15.70
5.19
21.89
34.01
42.04
46.83
49.09
49.33
47.89
45.18
41.76
38.24
35.17
32.90
31.51
30.97
31.16
31.97
33.15
34.41
35.21
35.04
33.48
30.46
26.30
21.66
17.16
13.20
9.72
6.26
2.29
-2.53
-8.14
-14.10
-19.79
-24.75
-28.84
-32.25
-35.53
-39.38
-44.51
-51.40
-59.84
-68.68
-75.81
-78.58
-74.68
-62.98
-44.08
-20.21
5.42
29.51
49.55
64.31
73.81
79.00
81.18
81.52
80.81
79.42
77.47
75.04
72.26
69.35
66.49
63.70
60.98
58.42
56.21
54.63
53.74
53.20
52.29
50.12
46.01
39.80
31.94
23.27
14.66
6.65
-0.74
-7.98
-15.69
-24.39
-34.20
-44.79
-55.59
-65.93
-75.29
-83.48
-90.66
-97.28
-104.01
-111.39
-119.52
-127.62
-133.91
-135.90
-131.18
-118.40
-98.00
-72.23
-44.52
-18.36
3.81
21.05
33.74
42.96
49.74
54.70
57.98
59.63
59.86
59.24
58.46
58.13
58.49
59.37
60.41
61.25
61.79
62.18
62.63
63.21
63.59
63.12
61.03
56.82
50.51
42.73
34.51
26.97
20.80
16.05
12.12
8.05
2.98
-3.47
-11.02
-18.92
-26.26
-32.44
-37.41
-41.70
-46.24
-52.06
-59.93
-70.06
-81.89
-93.85
-103.60
-108.46
-106.15
-95.59
-77.35
-53.66
-27.73
-2.86
18.45
34.90
46.47
53.95
58.42
60.84
61.85
61.84
61.07
59.81
58.39
57.10
56.15
55.54
55.09
54.58
53.82
52.77
51.52
50.20
48.89
47.52
45.80
43.35
39.84
35.15
29.53
23.53
17.79
12.81
8.64
4.91
1.01
-3.61
-9.12
-15.26
-21.42
-26.98
-31.62
-35.43
-38.87
-42.65
-47.43
-53.70
-61.61
-70.78
-80.24
-88.33
-92.98
-92.09
-84.28
-69.44
-48.94
-25.37
-1.77
19.20
35.93
47.99
55.88
60.52
62.82
63.38
62.56
60.66
58.03
55.15
52.59
50.78
49.93
49.89
50.28
50.63
50.63
50.24
49.67
49.16
48.74
48.08
46.57
43.63
39.02
33.07
26.61
20.66
15.91
12.47
9.75
6.72
2.39
-3.80
-11.66
-20.40
-28.85
-35.98
-41.29
-44.96
-47.82
-51.12
-56.05
-63.30
-72.61
-82.63
-91.16
-95.72
-94.33
-86.17
-71.83
-53.18
-32.77
-13.11
3.83
17.00
26.08
31.27
33.02
31.82
28.31
23.28
17.65
12.34
8.14
5.44
4.22
4.18
4.87
5.93
7.14
8.42
9.71
10.90
11.74
11.89
10.99
8.75
5.12
0.39
-4.79
-9.67
-13.69
-16.77
-19.37
-22.23
-25.97
-30.73
-36.14
-41.45
-46.00
-49.49
-52.15
-54.63
-57.80
-62.45
-68.97
-77.06
-85.58
-92.56
-95.65
-92.76
-82.89
-66.54
-45.71
-23.25
-1.99
16.03
29.91
39.75
46.19
49.94
51.60
51.63
50.53
48.85
47.26
46.25
46.16
46.97
48.41
50.08
51.55
52.58
53.07
53.11
52.77
52.02
50.61
48.24
44.66
39.88
34.21
28.12
22.05
16.26
10.72
5.23
-0.51
-6.73
-13.48
-20.59
-27.68
-34.27
-39.92
-44.51
-48.38
-52.35
-57.46
-64.57
-73.88
-84.71
-95.39
-103.63
-107.02
-103.75
-93.16
-76.07
-54.58
-31.51
-9.63
9.11
23.85
34.74
42.53
48.02
51.81
54.20
55.42
55.75
55.61
55.37
55.27
55.22
54.95
54.11
52.61
50.64
48.61
46.95
45.78
44.85
43.64
41.48
37.97
33.04
27.07
20.65
14.47
9.02
4.50
0.74
-2.75
-6.56
-11.19
-16.77
-23.05
-29.42
-35.28
-40.25
-44.39
-48.13
-52.12
-57.00
-63.24
-70.99
-79.91
-88.98
-96.46
-100.12
-97.86
-88.46
-72.17
-50.78
-27.09
-4.03
16.18
32.34
44.27
52.32
57.11
59.24
59.44
58.54
57.39
56.74
56.95
57.93
59.22
60.13
60.03
58.55
55.79
52.26
48.76
46.10
44.66
44.27
44.16
43.31
40.96
36.96
31.79
26.38
21.56
17.72
14.60
11.57
7.95
3.35
-2.16
-8.18
-14.17
-19.73
-24.75
-29.43
-34.24
-39.84
-46.95
-56.08
-67.24
-79.53
-91.10
-99.39
-101.82
-96.67
-83.86
-65.04
-43.20
-21.71
-3.29
10.57
19.71
24.80
26.85
26.64
24.77
21.72
18.09
14.72
12.46
11.88
13.04
15.46
18.27
20.57
21.76
21.72
20.82
19.70
18.94
18.69
18.62
17.94
15.80
11.72
5.85
-1.01
-7.81
-13.71
-18.49
-22.56
-26.66
-31.38
-36.85
-42.70
-48.32
-53.27
-57.47
-61.25
-65.13
-69.68
-75.42
-82.75
-91.85
-102.40
-113.22
-122.23
-126.72
-124.04
-112.64
-92.75
-66.62
-37.88
-10.49
12.41
29.30
40.33
46.78
50.22
51.84
52.19
51.40
49.61
47.35
45.43
44.61
45.20
46.82
48.60
49.74
49.89
49.32
48.69
48.62
49.35
50.61
51.77
52.11
51.01
48.11
43.34
37.00
29.65
22.02
14.76
8.23
2.34
-3.25
-8.93
-14.88
-20.94
-26.69
-31.69
-35.70
-38.87
-41.73
-45.17
-50.26
-57.96
-68.60
-81.41
-94.36
-104.43
-108.49
-104.28
-91.27
-70.84
-45.94
-20.02
3.89
23.84
39.13
50.02
57.22
61.56
63.70
64.16
63.40
61.90
60.16
58.63
57.62
57.21
57.20
57.23
56.94
56.17
55.01
53.73
52.65
51.86
51.18
50.15
48.16
44.76
39.84
33.70
27.05
20.69
15.26
10.93
7.29
3.51
-1.30
-7.65
-15.47
-24.05
-32.42
-39.76
-45.73
-50.55
-54.85
-59.46
-65.14
-72.51
-81.84
-92.86
-104.54
-114.93
-121.50
-121.70
-113.86
-97.86
-75.30
-49.13
-22.71
1.10
20.62
35.35
45.74
52.50
56.31
57.70
57.16
55.34
53.05
51.09
50.01
49.95
50.67
51.78
52.97
54.16
55.48
57.08
58.86
60.43
61.09
60.10
57.01
51.82
45.11
37.81
30.86
24.91
20.01
15.71
11.33
6.34
0.62
-5.52
-11.46
-16.65
-20.81
-24.15
-27.28
-31.09
-36.49
-44.07
-53.79
-64.75
-75.12
-82.47
-84.33
-78.99
-66.18
-47.24
-24.82
-2.05
18.36
34.75
46.64
54.36
58.50
59.53
57.65
53.13
46.57
39.08
32.08
26.92
24.42
24.61
26.82
29.96
32.94
35.02
35.89
35.62
34.45
32.60
30.08
26.74
22.33
16.69
9.84
2.11
-5.96
-13.72
-20.69
-26.65
-31.75
-36.44
-41.39
-47.31
-54.82
-64.12
-74.77
-85.44
-93.99
-97.93
-95.15
-84.67
-67.05
-44.35
-19.46
4.61
25.52
41.92
53.52
60.73
64.31
65.06
63.61
60.51
56.25
51.44
46.83
43.20
41.15
40.90
42.18
44.33
46.50
47.92
48.10
46.81
44.05
39.99
34.79
28.63
21.57
13.63
4.81
-4.73
-14.63
-24.29
-33.03
-40.31
-46.00
-50.41
-54.22
-58.28
-63.44
-70.45
-79.76
-91.34
-104.37
-117.02
-126.63
-130.32
-125.85
-112.46
-91.19
-64.67
-36.24
-9.09
14.49
33.37
47.42
57.18
63.50
67.32
69.47
70.64
71.24
71.48
71.36
70.78
69.73
68.31
66.77
65.39
64.45
64.00
63.93
63.87
63.34
61.82
58.90
54.39
48.48
41.66
34.59
27.77
21.33
14.93
7.99
0.04
-8.88
-18.25
-27.15
-34.86
-41.14
-46.48
-51.91
-58.60
-67.32
-77.98
-89.40
-99.42
-105.35
-104.78
-96.35
-80.29
-58.42
-33.62
-8.99
12.91
30.56
43.57
52.35
57.70
60.47
61.40
61.06
59.97
58.59
57.34
56.49
56.10
55.98
55.79
55.20
54.09
52.63
51.21
50.13
49.41
48.63
47.06
43.94
38.93
32.27
24.78
17.46
11.09
5.84
1.26
-3.44
-9.01
-15.71
-23.26
-30.95
-38.06
-44.12
-49.13
-53.60
-58.42
-64.57
-72.85
-83.36
-95.24
-106.45
-114.25
-115.79
-109.17
-94.09
-72.08
-46.12
-19.69
4.23
23.79
38.48
48.77
55.57
59.76
61.95
62.57
61.98
60.67
59.12
57.67
56.43
55.20
53.75
51.98
50.06
48.41
47.48
47.44
48.03
48.55
48.15
46.11
42.22
36.74
30.41
23.97
17.94
12.37
6.93
1.14
-5.33
-12.46
-19.87
-26.94
-33.16
-38.32
-42.64
-46.77
-51.64
-58.19
-67.01
-77.98
-89.97
-100.89
-108.03
-108.81
-101.58
-86.24
-64.37
-38.88
-13.17
9.72
27.86
40.62
48.53
52.70
54.34
54.38
53.35
51.52
49.04
46.19
43.34
40.86
38.92
37.45
36.15
34.75
33.14
31.39
29.70
28.14
26.53
24.45
21.44
17.30
12.24
6.81
1.69
-2.66
-6.22
-9.37
-12.58
-16.17
-20.09
-23.99
-27.47
-30.39
-32.98
-35.89
-39.95
-45.86
-53.81
-63.29
-72.91
-80.69
-84.41
-82.35
-73.76
-59.20
-40.44
-19.96
-0.30
16.50
29.29
37.78
42.32
43.57
42.30
39.20
34.91
30.11
25.51
21.80
19.46
18.62
19.01
20.08
21.28
22.24
22.92
23.36
23.58
23.34
22.18
19.66
15.54
10.01
3.55
-3.16
-9.50
-15.12
-19.92
-24.06
-27.91
-32.05
-37.15
-43.83
-52.29
-61.96
-71.40
-78.47
-80.89
-77.05
-66.59
-50.60
-31.24
-11.04
7.80
23.88
36.65
46.05
52.23
55.29
55.39
52.81
48.21
42.58
37.04
32.60
29.86
28.94
29.47
30.80
32.19
33.06
33.05
32.08
30.23
27.64
24.34
20.22
15.08
8.77
1.34
-6.78
-14.91
-22.35
-28.57
-33.55
-37.82
-42.28
-48.00
-55.73
-65.61
-76.91
-88.03
-96.74
-100.75
-98.28
-88.62
-72.40
-51.44
-28.30
-5.61
14.45
30.54
42.17
49.59
53.51
54.86
54.56
53.36
51.72
49.89
47.93
45.87
43.81
41.96
40.55
39.76
39.57
39.70
39.69
39.05
37.39
34.61
30.86
26.44
21.60
16.42
10.80
4.54
-2.44
-9.97
-17.57
-24.65
-30.80
-35.98
-40.49
-44.96
-50.05
-56.37
-64.30
-73.83
-84.37
-94.56
-102.25
-104.93
-100.54
-88.19
-68.77
-44.75
-19.48
3.91
23.25
37.72
47.58
53.72
57.12
58.58
58.70
57.88
56.44
54.65
52.70
50.75
48.86
47.11
45.54
44.28
43.48
43.21
43.41
43.75
43.68
42.58
39.99
35.87
30.60
24.88
19.45
14.70
10.61
6.75
2.55
-2.43
-8.26
-14.67
-21.13
-27.17
-32.47
-37.07
-41.35
-46.00
-51.90
-59.73
-69.60
-80.55
-90.55
-96.86
-96.84
-88.96
-73.38
-51.98
-27.76
-3.86
17.26
34.19
46.55
54.62
58.93
60.13
58.94
56.19
52.78
49.52
47.00
45.38
44.48
43.86
43.10
42.05
40.82
39.76
39.13
38.94
38.85
38.30
36.68
33.69
29.35
24.06
18.42
12.96
8.07
3.78
-0.17
-4.24
-8.87
-14.31
-20.47
-26.98
-33.30
-39.03
-44.10
-48.85
-53.97
-60.24
-68.17
-77.68
-87.89
-97.10
-103.03
-103.41
-96.68
-82.59
-62.47
-38.92
-15.04
6.41
23.73
36.37
44.68
49.30
50.80
49.58
46.07
41.00
35.40
30.37
26.71
24.66
23.97
24.14
24.77
25.69
26.84
28.08
28.95
28.82
27.20
24.00
19.62
14.87
10.44
6.70
3.47
0.29
-3.37
-7.82
-13.01
-18.69
-24.53
-30.28
-35.80
-41.03
-45.94
-50.64
-55.48
-61.11
-68.20
-77.00
-86.75
-95.47
-100.33
-98.56
-88.62
-70.84
-47.55
-22.18
1.89
22.32
38.17
49.69
57.58
62.47
64.69
64.43
62.09
58.42
54.44
51.05
48.76
47.51
46.94
46.65
46.48
46.49
46.88
47.65
48.48
48.80
47.85
45.08
40.31
33.82
26.37
18.90
12.21
6.72
2.19
-2.08
-6.91
-12.82
-19.76
-27.09
-33.98
-39.80
-44.48
-48.52
-52.83
-58.40
-65.90
-75.33
-85.80
-95.53
-102.11
-103.09
-96.71
-82.60
-61.98
-37.41
-12.10
11.06
30.04
43.99
53.00
57.75
59.16
58.16
55.69
52.60
49.63
47.27
45.67
44.68
43.99
43.32
42.56
41.79
41.19
40.92
41.01
41.28
41.38
40.81
39.12
36.04
31.58
26.08
20.18
14.54
9.66
5.60
2.01
-1.76
-6.34
-12.05
-18.76
-25.98
-33.08
-39.57
-45.28
-50.38
-55.37
-60.93
-67.81
-76.51
-86.88
-97.76
-106.94
-111.65
-109.37
-98.92
-81.00
-58.01
-33.24
-9.76
10.41
26.53
38.70
47.38
52.97
55.79
56.24
54.98
52.84
50.65
48.89
47.75
47.23
47.29
47.92
49.11
50.67
52.23
53.37
53.83
53.65
53.05
52.26
51.19
49.42
46.33
41.53
35.08
27.61
20.05
13.22
7.50
2.61
-2.15
-7.60
-14.20
-21.80
-29.73
-37.08
-43.15
-47.83
-51.61
-55.49
-60.58
-67.74
-77.25
-88.64
-100.50
-110.66
-116.55
-115.79
-106.92
-89.97
-66.58
-39.58
-12.30
12.36
32.47
47.33
57.31
63.33
66.45
67.56
67.23
65.85
63.80
61.48
59.34
57.77
56.91
56.72
56.89
57.13
57.23
57.12
56.83
56.39
55.75
54.72
53.10
50.64
47.15
42.56
36.94
30.59
23.95
17.40
11.14
5.04
-1.23
-8.03
-15.47
-23.26
-30.86
-37.60
-43.04
-47.17
-50.44
-53.68
-57.82
-63.71
-71.86
-82.21
-93.91
-105.25
-113.90
-117.39
-113.78
-102.38
-83.89
-60.35
-34.51
-9.14
13.56
32.27
46.51
56.41
62.42
65.16
65.40
64.07
62.26
61.07
61.33
63.44
67.18
71.91
76.73
80.90
83.96
85.79
86.44
85.95
84.27
81.30
76.99
71.38
64.68
57.14
49.06
40.69
32.22
23.72
15.06
5.87
-4.35
-16.11
-29.53
-44.08
-58.56
-71.41
-81.33
-87.84
-91.52
-93.83
-96.54
-101.09
-108.08
-117.05
-126.57
-134.52
-138.46
-136.21
-126.42
-109.09
-85.71
-59.02
-32.24
-8.17
11.47
26.26
36.69
43.60
47.68
49.36
48.91
46.75
43.57
40.23
37.59
36.19
36.16
37.25
39.06
41.15
43.23
45.11
46.66
47.67
47.86
46.89
44.48
40.57
35.34
29.29
23.09
17.41
12.72
9.06
6.07
3.10
-0.50
-5.18
-10.97
-17.50
-24.24
-30.69
-36.66
-42.31
-48.06
-54.51
-62.20
-71.46
-82.20
-93.72
-104.53
-112.46
-115.07
-110.34
-97.49
-77.34
-52.27
-25.54
-0.36
20.92
37.20
48.44
55.31
58.69
59.38
58.11
55.59
52.55
49.68
47.40
45.83
44.77
43.88
42.92
41.99
41.38
41.44
42.23
43.46
44.42
44.30
42.43
38.65
33.26
26.99
20.71
15.04
10.20
5.92
1.60
-3.33
-9.15
-15.71
-22.52
-28.99
-34.75
-39.83
-44.58
-49.58
-55.37
-62.33
-70.53
-79.59
-88.54
-95.75
-99.20
-96.92
-87.76
-71.85
-50.81
-27.31
-4.31
15.79
31.57
42.71
49.55
52.78
53.07
51.02
47.23
42.40
37.33
32.85
29.66
28.18
28.49
30.36
33.30
36.71
39.96
42.49
43.83
43.66
41.77
38.21
33.18
27.07
20.42
13.68
7.16
0.95
-5.04
-10.94
-16.82
-22.58
-28.08
-33.22
-38.17
-43.46
-49.85
-58.06
-68.23
-79.61
-90.40
-98.09
-100.12
-94.71
-81.52
-61.83
-38.25
-13.92
8.33
26.62
40.27
49.54
55.16
57.92
58.40
57.02
54.18
50.37
46.20
42.23
38.91
36.41
34.76
33.90
33.81
34.45
35.63
36.95
37.82
37.51
35.46
31.53
26.09
19.89
13.78
8.32
3.58
-0.86
-5.66
-11.28
-17.85
-25.05
-32.25
-38.85
-44.47
-49.15
-53.33
-57.87
-63.72
-71.78
-82.38
-94.86
-107.30
-116.82
-120.21
-115.05
-100.63
-78.28
-51.10
-22.94
2.71
23.65
39.22
50.01
57.18
61.86
64.80
66.34
66.62
65.83
64.27
62.40
60.58
59.04
57.73
56.53
55.28
53.99
52.84
52.04
51.68
51.63
51.43
50.44
48.05
43.90
38.09
31.13
23.82
16.95
10.98
5.91
1.29
-3.54
-9.20
-15.96
-23.64
-31.68
-39.35
-46.11
-51.82
-56.87
-62.07
-68.43
-76.85
-87.56
-99.84
-111.76
-120.55
-123.23
-117.57
-102.89
-80.45
-53.05
-24.27
2.64
25.39
43.05
55.70
64.04
68.91
71.07
71.19
69.84
67.64
65.21
63.09
61.64
60.91
60.69
60.59
60.26
59.51
58.47
57.46
56.78
56.47
56.19
55.26
52.94
48.79
42.93
36.03
29.04
22.80
17.67
13.38
9.24
4.48
-1.38
-8.30
-15.83
-23.35
-30.41
-36.82
-42.75
-48.55
-54.69
-61.73
-70.23
-80.49
-92.22
-104.22
-114.33
-119.78
-118.06
-107.71
-89.05
-64.08
-35.98
-8.15
16.57
36.41
50.72
59.70
64.04
64.69
62.70
59.16
55.22
51.87
49.85
49.45
50.49
52.43
54.65
56.70
58.43
60.00
61.76
64.03
66.97
70.42
73.82
76.31
76.86
74.60
69.28
61.40
52.10
42.74
34.25
26.76
19.58
11.65
2.17
-8.94
-20.95
-32.65
-42.83
-50.80
-56.58
-60.81
-64.52
-68.81
-74.52
-81.89
-90.28
-98.06
-102.87
-102.16
-94.00
-77.87
-54.95
-27.89
-0.06
25.36
46.15
61.31
70.88
75.54
76.23
73.95
69.65
64.22
58.49
53.10
48.45
44.72
41.84
39.60
37.73
36.04
34.35
32.51
30.36
27.62
23.96
19.11
12.99
5.74
-2.25
-10.52
-18.71
-26.57
-34.06
-41.16
-47.74
-53.58
-58.44
-62.20
-65.01
-67.32
-69.73
-72.99
-77.76
-84.44
-92.99
-102.68
-111.99
-118.71
-120.42
-115.12
-101.97
-81.66
-56.42
-29.44
-4.00
17.35
33.30
43.75
49.46
51.44
50.56
47.50
42.73
36.88
30.77
25.37
21.54
19.79
20.10
21.90
24.38
26.74
28.48
29.45
29.86
29.97
29.86
29.30
27.78
24.83
20.21
14.16
7.28
0.33
-6.05
-11.51
-16.05
-19.93
-23.55
-27.47
-32.28
-38.66
-47.09
-57.47
-68.79
-78.98
-85.30
-85.08
-76.72
-60.35
-37.88
-12.44
12.69
34.95
52.93
66.25
75.04
79.49
79.67
75.74
68.18
57.94
46.23
34.45
23.86
15.49
10.07
7.87
8.63
11.46
15.03
17.94
19.23
18.62
16.54
13.74
10.81
7.91
4.72
0.72
-4.41
-10.59
-17.32
-23.94
-29.90
-35.01
-39.57
-44.22
-49.80
-57.02
-66.23
-77.18
-88.87
-99.54
-106.95
-108.76
-103.21
-89.70
-69.15
-43.82
-16.82
8.70
30.32
46.81
58.14
65.14
68.98
70.69
70.99
70.23
68.52
65.99
62.87
59.47
56.20
53.42
51.33
49.95
49.08
48.37
47.43
45.89
43.51
40.19
36.01
31.11
25.64
19.69
13.30
6.50
-0.60
-7.82
-14.93
-21.73
-28.10
-34.08
-39.77
-45.42
-51.42
-58.30
-66.61
-76.64
-87.97
-99.22
-108.06
-111.76
-108.06
-96.03
-76.53
-51.97
-25.56
-0.39
21.35
38.56
51.18
59.66
64.70
67.02
67.29
66.20
64.39
62.37
60.43
58.67
57.01
55.39
53.85
52.52
51.61
51.20
51.14
50.98
50.20
48.25
44.85
40.10
34.39
28.30
22.33
16.71
11.35
5.86
-0.19
-7.11
-14.83
-22.95
-30.81
-37.80
-43.58
-48.35
-52.84
-58.19
-65.55
-75.62
-88.11
-101.50
-113.18
-120.12
-119.71
-110.66
-93.48
-70.31
-44.24
-18.41
4.77
23.97
38.74
49.26
55.92
59.23
59.78
58.30
55.65
52.66
50.02
48.15
47.25
47.20
47.76
48.60
49.43
50.04
50.43
50.69
50.92
51.02
50.59
49.00
45.72
40.58
34.03
26.96
20.36
14.83
10.30
6.16
1.54
-4.19
-11.08
-18.71
-26.33
-33.29
-39.29
-44.47
-49.32
-54.53
-60.84
-68.87
-78.91
-90.61
-102.74
-113.22
-119.32
-118.47
-109.11
-91.32
-67.01
-39.47
-12.27
11.66
30.75
44.80
54.52
60.88
64.60
66.05
65.41
63.02
59.51
55.74
52.60
50.69
50.16
50.76
51.94
53.05
53.58
53.28
52.19
50.57
48.67
46.60
44.21
41.17
37.16
32.07
26.10
19.72
13.46
7.76
2.76
-1.71
-6.01
-10.60
-15.80
-21.66
-27.95
-34.24
-40.04
-45.08
-49.35
-53.18
-57.12
-61.83
-67.92
-75.81
-85.49
-96.16
-106.10
-112.76
-113.41
-106.02
-90.11
-67.14
-40.15
-12.79
11.68
31.21
45.19
54.08
58.94
60.88
60.83
59.44
57.20
54.55
51.93
49.79
48.47
48.09
48.48
49.24
49.91
50.18
50.07
49.82
49.63
49.46
48.92
47.47
44.65
40.36
34.96
29.03
23.21
17.94
13.38
9.42
5.70
1.74
-2.94
-8.70
-15.53
-23.05
-30.57
-37.36
-42.97
-47.42
-51.30
-55.58
-61.29
-69.20
-79.41
-91.02
-102.15
-110.14
-112.30
-106.61
-92.56
-71.38
-45.76
-19.06
5.61
26.12
41.61
52.20
58.66
61.81
62.38
60.90
57.91
54.05
50.03
46.56
44.13
42.85
42.52
42.75
43.23
43.84
44.63
45.70
46.94
47.96
48.08
46.64
43.21
37.89
31.25
24.20
17.65
12.15
7.72
3.88
-0.11
-4.87
-10.65
-17.17
-23.81
-29.91
-35.06
-39.29
-43.00
-46.85
-51.59
-57.83
-65.90
-75.65
-86.24
-96.06
-102.81
-104.10
-98.15
-84.50
-64.37
-40.37
-15.76
6.51
24.42
37.27
45.36
49.57
50.79
49.73
46.84
42.50
37.27
31.87
27.16
23.90
22.52
22.99
24.87
27.47
30.03
31.98
32.92
32.68
31.31
28.97
25.93
22.41
18.51
14.14
9.14
3.36
-3.14
-10.15
-17.27
-24.11
-30.40
-36.02
-41.01
-45.59
-50.22
-55.56
-62.36
-71.01
-81.04
-90.89
-98.02
-99.66
-93.76
-79.88
-59.43
-35.21
-10.55
11.62
29.51
42.49
50.83
55.28
56.57
55.37
52.17
47.56
42.19
36.79
32.12
28.76
27.08
27.04
28.23
29.95
31.38
31.88
31.14
29.23
26.47
23.22
19.58
15.39
10.31
4.12
-3.13
-10.98
-18.82
-26.13
-32.69
-38.59
-44.10
-49.52
-55.05
-60.90
-67.43
-75.18
-84.57
-95.39
-106.33
-114.93
-118.15
-113.47
-99.94
-78.69
-52.61
-25.34
-0.10
21.03
37.32
48.99
56.67
61.05
62.76
62.41
60.65
58.06
55.10
52.05
49.09
46.39
44.16
42.60
41.78
41.58
41.68
41.66
41.04
39.44
36.63
32.64
27.71
22.23
16.58
10.97
5.32
-0.54
-6.80
-13.46
-20.33
-27.06
-33.31
-38.95
-44.10
-49.18
-54.84
-61.86
-70.89
-82.05
-94.54
-106.44
-114.92
-117.00
-110.55
-95.07
-72.07
-44.57
-16.20
9.84
31.44
47.76
58.99
65.87
69.34
70.37
69.84
68.49
66.82
65.04
63.11
60.95
58.55
56.17
54.20
53.02
52.75
53.20
53.87
54.10
53.24
50.87
46.92
41.65
35.59
29.37
23.45
17.97
12.72
7.16
0.76
-6.79
-15.34
-24.28
-32.81
-40.25
-46.35
-51.44
-56.46
-62.57
-70.75
-81.30
-93.47
-105.28
-113.93
-116.45
-110.63
-95.73
-72.92
-44.95
-15.46
12.02
34.84
51.74
62.73
68.75
71.08
71.02
69.60
67.56
65.46
63.61
62.18
61.04
59.90
58.40
56.37
53.99
51.73
50.20
49.69
49.99
50.39
49.94
47.88
43.93
38.40
31.90
25.05
18.26
11.56
4.71
-2.53
-10.23
-18.23
-26.12
-33.47
-40.01
-45.75
-51.07
-56.66
-63.45
-72.18
-82.95
-94.92
-106.09
-113.61
-114.67
-107.35
-91.41
-68.43
-41.36
-13.70
11.50
32.17
47.48
57.60
63.40
65.97
66.29
65.07
62.70
59.40
55.42
51.26
47.63
45.14
44.17
44.55
45.74
47.02
47.80
47.79
46.95
45.34
42.96
39.69
35.33
29.78
23.11
15.61
7.67
-0.29
-7.89
-14.89
-21.15
-26.68
-31.68
-36.56
-41.94
-48.53
-56.93
-67.29
-78.99
-90.42
-99.18
-102.64
-98.71
-86.67
-67.47
-43.56
-18.16
5.74
26.05
41.92
53.37
60.85
64.77
65.34
62.82
57.80
51.38
44.96
39.82
36.73
35.71
36.14
37.11
37.78
37.72
36.94
35.76
34.50
33.24
31.64
29.05
24.82
18.63
10.78
2.16
-6.14
-13.21
-18.74
-23.08
-27.03
-31.48
-37.16
-44.54
-53.76
-64.45
-75.58
-85.32
-91.27
-91.07
-83.25
-67.84
-46.53
-22.17
2.00
23.33
40.19
52.10
59.33
62.56
62.49
59.80
55.23
49.61
43.90
38.95
35.37
33.28
32.39
32.11
31.90
31.43
30.74
30.04
29.50
28.98
27.95
25.62
21.16
14.16
4.89
-5.65
-16.05
-25.03
-31.88
-36.81
-40.79
-45.25
-51.50
-60.34
-71.77
-84.73
-97.27
-106.69
-110.19
-105.60
-92.18
-71.00
-44.77
-17.15
8.39
29.41
45.01
55.60
62.36
66.57
69.06
70.10
69.63
67.50
63.87
59.27
54.51
50.40
47.43
45.67
44.79
44.28
43.65
42.49
40.61
37.86
34.25
29.83
24.76
19.16
13.08
6.44
-0.82
-8.65
-16.80
-24.85
-32.35
-39.02
-44.88
-50.25
-55.67
-61.77
-69.20
-78.44
-89.36
-100.94
-111.06
-116.86
-115.54
-105.43
-86.75
-61.67
-33.61
-6.15
17.92
37.17
51.39
61.12
67.15
70.25
71.11
70.45
68.99
67.36
65.85
64.46
62.88
60.80
58.12
55.17
52.58
50.94
50.52
50.99
51.59
51.32
49.38
45.38
39.45
32.15
24.30
16.73
10.11
4.71
0.28
-3.84
-8.53
-14.43
-21.64
-29.65
-37.54
-44.45
-49.97
-54.43
-58.77
-64.24
-71.93
-82.27
-94.64
-107.21
-117.25
-121.65
-117.94
-105.14
-84.21
-57.85
-29.66
-3.17
19.15
36.18
48.04
55.57
59.84
61.77
62.04
61.10
59.33
57.07
54.63
52.25
50.03
47.94
45.93
44.07
42.54
41.66
41.64
42.41
43.53
44.25
43.77
41.53
37.43
31.84
25.48
19.10
13.25
8.08
3.35
-1.44
-6.76
-12.81
-19.41
-26.04
-32.07
-37.06
-40.97
-44.18
-47.41
-51.50
-57.19
-64.89
-74.44
-84.84
-94.20
-100.00
-99.73
-91.72
-75.82
-53.63
-28.12
-2.73
19.61
37.11
49.32
56.76
60.34
60.87
58.94
55.02
49.63
43.52
37.56
32.59
29.23
27.69
27.79
29.07
30.90
32.60
33.64
33.58
32.26
29.74
26.26
22.13
17.57
12.67
7.36
1.57
-4.66
-11.06
-17.29
-23.03
-28.13
-32.71
-37.16
-41.91
-47.44
-54.17
-62.36
-71.93
-82.23
-91.81
-98.54
-100.01
-94.35
-80.92
-60.69
-36.15
-10.53
13.08
32.47
46.66
55.75
60.44
61.66
60.24
56.92
52.39
47.35
42.42
38.09
34.62
32.09
30.49
29.77
29.85
30.54
31.53
32.33
32.40
31.36
29.02
25.42
20.77
15.34
9.38
3.08
-3.44
-10.09
-16.79
-23.37
-29.66
-35.42
-40.50
-44.91
-48.91
-53.04
-58.11
-64.93
-73.96
-84.93
-96.53
-106.49
-112.01
-110.64
-101.00
-83.38
-59.64
-32.83
-6.22
17.38
36.23
49.74
58.34
62.96
64.69
64.41
62.78
60.23
57.10
53.73
50.40
47.35
44.70
42.55
41.05
40.31
40.38
40.98
41.53
41.24
39.47
35.98
31.04
25.31
19.51
14.13
9.22
4.54
-0.36
-5.87
-12.26
-19.53
-27.45
-35.60
-43.44
-50.51
-56.58
-61.81
-66.84
-72.60
-80.03
-89.53
-100.50
-111.05
-118.28
-119.11
-111.31
-94.44
-70.12
-41.58
-12.64
13.45
34.71
50.50
61.17
67.46
70.18
70.08
67.93
64.59
60.87
57.43
54.65
52.57
51.00
49.68
48.38
47.11
45.99
45.26
45.02
45.09
44.94
43.83
41.07
36.41
30.17
23.15
16.37
10.46
5.49
0.93
-4.07
-10.12
-17.40
-25.47
-33.62
-41.08
-47.42
-52.58
-56.93
-61.15
-66.14
-72.86
-81.84
-92.90
-104.68
-114.73
-120.08
-118.12
-107.52
-88.71
-63.84
-35.99
-8.39
16.37
36.63
51.72
61.67
66.96
68.36
66.77
63.17
58.56
53.87
49.80
46.76
44.83
43.84
43.50
43.56
43.84
44.25
44.67
44.84
44.38
42.87
40.05
35.93
30.81
25.24
19.79
14.83
10.45
6.32
1.90
-3.38
-9.84
-17.39
-25.53
-33.45
-40.43
-46.08
-50.54
-54.56
-59.31
-65.98
-75.27
-86.93
-99.42
-110.19
-116.21
-114.89
-104.85
-86.43
-61.64
-33.55
-5.56
19.36
39.24
53.31
61.81
65.66
66.07
64.16
60.84
56.81
52.65
48.86
45.87
43.88
42.85
42.58
42.83
43.42
44.32
45.47
46.66
47.41
47.07
45.01
40.92
34.94
27.65
19.93
12.61
6.19
0.67
-4.43
-9.77
-15.95
-23.12
-30.97
-38.82
-46.04
-52.27
-57.67
-62.84
-68.70
-76.18
-85.84
-97.48
-109.80
-120.43
-126.35
-124.74
-113.99
-94.36
-68.02
-38.44
-9.33
16.32
36.86
51.97
62.12
68.12
70.73
70.56
68.30
64.74
60.82
57.39
54.99
53.73
53.30
53.23
53.13
52.90
52.69
52.73
53.04
53.25
52.72
50.73
46.89
41.30
34.56
27.51
20.84
14.75
8.95
2.90
-3.88
-11.43
-19.42
-27.28
-34.58
-41.20
-47.39
-53.58
-60.26
-67.90
-76.88
-87.37
-98.93
-110.29
-119.20
-122.89
-118.87
-105.92
-84.67
-57.56
-28.10
0.21
24.73
44.12
58.22
67.60
73.04
75.23
74.83
72.44
68.86
64.92
61.40
58.82
57.33
56.69
56.58
56.65
56.72
56.75
56.74
56.58
56.01
54.63
52.00
47.88
42.28
35.56
28.42
21.59
15.60
10.47
5.72
0.53
-5.76
-13.34
-21.79
-30.21
-37.77
-44.00
-49.09
-53.80
-59.25
-66.52
-76.25
-88.29
-101.30
-112.86
-119.79
-119.14
-109.14
-89.95
-63.75
-34.10
-4.84
21.00
41.73
57.01
67.33
73.47
76.19
76.09
73.83
70.17
65.95
61.88
58.48
55.93
54.20
53.10
52.51
52.41
52.82
53.74
54.96
56.01
56.25
55.00
51.83
46.72
40.10
32.74
25.52
19.10
13.68
8.97
4.29
-1.06
-7.50
-14.95
-22.85
-30.44
-37.06
-42.52
-47.17
-51.75
-57.22
-64.41
-73.78
-85.09
-97.23
-108.14
-115.09
-115.32
-106.91
-89.59
-64.97
-36.25
-7.19
18.87
39.84
55.03
64.87
70.32
72.35
71.72
68.99
64.80
59.86
55.05
51.14
48.60
47.47
47.36
47.72
48.08
48.21
48.20
48.16
48.06
47.60
46.27
43.58
39.34
33.79
27.54
21.33
15.76
11.01
6.80
2.48
-2.63
-8.98
-16.50
-24.65
-32.61
-39.67
-45.46
-50.18
-54.47
-59.29
-65.60
-74.07
-84.70
-96.46
-107.29
-114.36
-114.84
-106.83
-90.15
-66.51
-39.02
-11.33
13.42
33.31
47.71
56.99
62.03
63.76
62.99
60.40
56.65
52.42
48.41
45.17
43.00
41.95
41.79
42.18
42.82
43.48
44.02
44.32
44.24
43.51
41.87
39.05
34.96
29.76
23.87
17.86
12.25
7.24
2.68
-1.85
-6.81
-12.44
-18.62
-24.89
-30.74
-35.75
-39.87
-43.41
-46.99
-51.42
-57.47
-65.56
-75.43
-85.91
-94.89
-99.79
-98.27
-89.01
-72.28
-49.94
-24.84
-0.05
21.92
39.49
52.03
59.58
62.58
61.74
58.02
52.53
46.44
40.73
36.04
32.66
30.58
29.73
30.02
31.37
33.58
36.23
38.68
40.22
40.25
38.46
34.83
29.77
23.90
17.91
12.35
7.45
3.07
-1.22
-5.92
-11.31
-17.36
-23.68
-29.82
-35.43
-40.50
-45.33
-50.55
-56.87
-64.89
-74.71
-85.55
-95.58
-102.18
-102.62
-94.99
-79.10
-56.62
-30.69
-4.81
18.07
36.30
49.45
57.87
62.23
63.19
61.39
57.55
52.59
47.46
42.98
39.65
37.58
36.61
36.42
36.74
37.34
38.06
38.70
38.97
38.52
36.98
34.03
29.56
23.77
17.12
10.30
3.94
-1.62
-6.44
-10.94
-15.62
-20.84
-26.60
-32.58
-38.33
-43.61
-48.50
-53.47
-59.20
-66.41
-75.45
-85.99
-96.72
-105.41
-109.30
-105.98
-94.25
-74.76
-49.91
-23.14
2.15
23.47
39.66
50.75
57.38
60.40
60.55
58.54
55.16
51.27
47.62
44.74
42.75
41.46
40.49
39.59
38.67
37.81
37.15
36.68
36.21
35.27
33.34
29.98
25.03
18.71
11.57
4.31
-2.53
-8.69
-14.40
-20.12
-26.39
-33.45
-41.22
-49.30
-57.19
-64.49
-71.10
-77.24
-83.34
-90.03
-97.98
-107.67
-119.04
-131.16
-142.02
-148.87
-149.04
-140.91
-124.67
-102.36
-77.04
-51.63
-27.95
-6.24
14.41
35.24
56.99
79.45
101.66
122.26
139.85
153.19
161.15
162.80
157.68
146.19
129.77
110.90
92.44
76.89
65.70
58.96
55.65
54.22
53.25
51.87
49.70
46.65
42.64
37.54
31.24
23.78
15.35
6.28
-3.12
-12.58
-21.84
-30.60
-38.53
-45.42
-51.23
-56.29
-61.24
-66.92
-74.08
-83.15
-93.79
-104.69
-113.57
-117.66
-114.50
-102.86
-83.42
-58.60
-31.92
-6.80
14.32
30.35
41.42
48.34
52.14
53.74
53.98
53.53
53.00
52.83
53.23
54.27
55.93
58.18
60.99
64.32
68.05
71.96
75.70
78.76
80.60
80.65
78.42
73.72
66.71
57.97
48.42
39.08
30.73
23.65
17.54
11.65
5.26
-2.09
-10.36
-18.96
-27.18
-34.45
-40.55
-45.78
-50.81
-56.63
-64.22
-74.07
-85.75
-97.62
-106.99
-110.95
-107.31
-95.50
-76.83
-54.00
-30.19
-8.17
10.21
24.08
33.38
38.52
40.19
39.34
37.00
34.12
31.40
29.23
27.74
26.86
26.38
26.10
25.81
25.38
24.80
24.19
23.70
23.36
22.99
22.16
20.40
17.40
13.14
7.94
2.29
-3.37
-8.90
-14.53
-20.68
-27.66
-35.43
-43.49
-51.00
-57.18
-61.69
-64.84
-67.50
-70.85
-76.05
-83.79
-94.07
-105.94
-117.53
-126.23
-129.26
-124.53
-111.31
-90.63
-65.03
-37.79
-11.97
10.25
27.84
40.77
49.50
54.64
56.82
56.68
54.91
52.24
49.33
46.63
44.44
42.89
42.08
42.08
42.90
44.39
46.22
47.85
48.70
48.30
46.43
43.20
38.93
34.03
28.77
23.19
17.19
10.65
3.56
-3.88
-11.33
-18.45
-25.02
-30.98
-36.48
-41.87
-47.68
-54.57
-63.07
-73.25
-84.29
-94.38
-100.97
-101.49
-94.26
-79.17
-57.76
-32.84
-7.59
15.29
34.11
48.31
58.15
64.24
67.12
67.14
64.60
59.94
54.01
47.96
42.98
39.94
39.06
39.93
41.68
43.42
44.49
44.56
43.58
41.61
38.72
35.06
30.81
26.15
21.21
15.96
10.32
4.18
-2.42
-9.29
-16.17
-22.88
-29.35
-35.66
-41.93
-48.42
-55.53
-63.74
-73.50
-84.68
-96.14
-105.68
-110.44
-107.84
-96.53
-77.03
-51.62
-23.70
3.23
26.42
44.37
56.81
64.34
68.04
68.97
68.03
65.91
63.13
60.14
57.40
55.26
53.89
53.21
52.99
52.98
53.01
53.09
53.23
53.26
52.70
51.00
47.69
42.73
36.62
30.19
24.15
18.76
13.67
8.16
1.56
-6.36
-15.21
-24.18
-32.40
-39.38
-45.18
-50.39
-55.94
-62.82
-71.66
-82.45
-94.10
-104.51
-110.89
-110.53
-101.76
-84.61
-60.95
-33.87
-6.83
17.32
36.84
51.21
60.76
66.30
68.69
68.82
67.46
65.27
62.80
60.39
58.17
56.17
54.32
52.61
51.11
49.94
49.20
48.91
48.87
48.73
48.04
46.32
43.26
38.78
33.13
26.81
20.44
14.51
9.11
3.96
-1.47
-7.65
-14.70
-22.30
-29.82
-36.57
-42.17
-46.62
-50.38
-54.33
-59.47
-66.76
-76.57
-88.35
-100.34
-109.78
-113.53
-109.09
-95.57
-74.05
-47.43
-19.45
6.41
27.74
43.64
54.40
60.95
64.35
65.39
64.63
62.53
59.62
56.49
53.68
51.55
50.17
49.38
48.96
48.74
48.67
48.78
49.04
49.28
49.13
48.13
45.85
42.05
36.85
30.63
23.95
17.43
11.53
6.41
1.91
-2.40
-7.05
-12.48
-18.77
-25.64
-32.49
-38.68
-43.80
-47.94
-51.58
-55.58
-60.89
-68.27
-77.98
-89.37
-100.76
-109.50
-112.67
-107.92
-94.42
-73.29
-47.28
-19.93
5.43
26.52
42.40
53.20
59.64
62.60
62.89
61.14
58.05
54.35
50.80
48.12
46.73
46.66
47.48
48.48
48.98
48.62
47.50
46.06
44.81
43.90
43.06
41.64
38.97
34.69
28.93
22.28
15.54
9.46
4.45
0.52
-2.79
-6.11
-10.08
-15.05
-20.91
-27.17
-33.10
-38.16
-42.11
-45.28
-48.38
-52.33
-57.93
-65.63
-75.29
-86.00
-96.05
-103.09
-104.61
-98.70
-84.68
-63.54
-37.76
-10.57
14.90
36.45
53.12
65.14
73.26
78.40
81.19
82.10
81.52
80.04
78.40
77.35
77.36
78.56
80.76
83.70
87.24
91.43
96.35
102.07
108.37
114.73
120.48
124.96
127.85
129.33
130.28
131.99
135.73
142.11
150.54
159.03
164.63
164.22
155.44
137.53
111.41
79.22
43.64
6.91
-29.74
-66.30
-103.75
-143.39
-185.97
-231.13
-277.02
-320.46
-357.40
-383.70
-395.89
-391.88
-371.53
-336.90
-291.94
-241.84
-191.95
-146.68
-108.71
-78.79
-56.15
-39.25
-26.52
-16.77
-9.18
-3.12
1.94
6.51
10.91
15.22
19.27
22.77
25.58
27.84
29.93
32.27
35.03
38.00
40.53
41.79
41.07
38.05
33.04
26.86
20.55
15.00
10.64
7.27
4.21
0.64
-4.09
-10.21
-17.45
-25.22
-32.83
-39.68
-45.54
-50.58
-55.48
-61.24
-68.80
-78.52
-89.62
-100.06
-106.90
-107.31
-99.63
-84.08
-62.74
-38.79
-15.40
5.19
22.01
35.07
44.88
51.91
56.42
58.65
59.01
58.12
56.70
55.32
54.31
53.73
53.62
54.05
55.14
56.98
59.45
62.18
64.67
66.39
66.91
65.95
63.30
58.91
52.92
45.75
38.10
30.74
24.25
18.73
13.77
8.64
2.65
-4.52
-12.64
-21.06
-29.00
-35.96
-41.96
-47.56
-53.80
-61.67
-71.76
-83.71
-96.03
-106.26
-111.58
-109.60
-99.19
-80.90
-56.86
-30.21
-4.14
18.84
37.33
51.03
60.35
66.00
68.67
68.95
67.41
64.66
61.40
58.32
55.96
54.56
54.04
54.06
54.24
54.34
54.29
54.21
54.21
54.27
54.09
53.19
51.03
47.31
42.11
35.91
29.42
23.31
17.88
12.97
8.03
2.46
-4.17
-11.75
-19.74
-27.36
-33.99
-39.44
-44.09
-48.78
-54.62
-62.60
-73.15
-85.88
-99.29
-110.93
-117.79
-117.17
-107.49
-88.95
-63.61
-34.81
-6.26
19.03
39.24
53.82
63.13
67.87
68.86
66.87
62.80
57.66
52.54
48.34
45.51
44.04
43.50
43.43
43.48
43.59
43.87
44.47
45.32
46.12
46.37
45.59
43.50
40.15
35.91
31.32
26.83
22.71
18.89
15.14
11.13
6.68
1.83
-3.24
-8.28
-13.09
-17.60
-21.86
-26.12
-30.79
-36.44
-43.49
-51.92
-60.81
-68.39
-72.29
-70.27
-60.97
-44.36
-21.77
4.52
31.91
58.00
80.92
99.37
112.60
120.38
122.96
121.07
115.79
108.47
100.47
92.95
86.66
81.83
78.21
75.13
71.82
67.61
62.02
54.72
45.39
33.72
19.47
2.74
-15.88
-35.33
-54.34
-71.87
-87.39
-100.95
-112.98
-123.79
-133.32
-141.07
-146.36
-148.68
-148.07
-145.16
-140.99
-136.84
-133.92
-133.18
-135.05
-139.18
-144.16
-147.60
-146.44
-137.97
-120.72
-95.11
-63.54
-29.63
2.92
31.26
53.93
70.73
82.22
89.26
92.72
93.39
92.10
89.66
86.73
83.79
81.04
78.53
76.24
74.22
72.50
71.09
69.88
68.69
67.23
65.21
62.37
58.54
53.74
48.16
42.24
36.45
31.13
26.33
21.74
16.78
10.89
3.85
-4.14
-12.38
-20.00
-26.27
-30.98
-34.59
-38.21
-43.18
-50.58
-60.62
-72.27
-83.29
-90.70
-91.56
-83.96
-67.63
-44.19
-16.73
11.08
36.04
56.07
70.51
79.83
85.05
87.22
87.12
85.37
82.41
78.77
74.95
71.29
67.96
64.90
62.05
59.43
57.25
55.77
55.09
55.05
55.13
54.61
52.78
49.17
43.76
36.96
29.45
21.92
14.80
8.07
1.39
-5.76
-13.67
-22.32
-31.36
-40.24
-48.47
-55.72
-61.98
-67.55
-73.00
-79.18
-86.91
-96.57
-107.64
-118.48
-126.48
-128.85
-123.56
-110.19
-90.06
-65.86
-40.75
-17.50
2.15
17.51
28.70
36.26
40.81
42.93
43.19
42.15
40.43
38.60
37.10
36.16
35.74
35.63
35.66
35.84
36.48
38.08
41.07
45.45
50.61
55.52
59.02
60.35
59.41
56.77
53.34
50.02
47.29
45.16
43.18
40.65
36.85
31.27
23.76
14.62
4.55
-5.56
-14.92
-23.18
-30.54
-37.71
-45.53
-54.67
-65.16
-76.20
-86.17
-92.92
-94.32
-88.93
-76.51
-58.17
-36.20
-13.38
7.71
25.32
38.73
48.09
54.00
57.18
58.15
57.32
55.13
52.20
49.31
47.20
46.33
46.68
47.84
49.21
50.33
51.04
51.46
51.79
52.10
52.15
51.45
49.54
46.23
41.70
36.46
31.17
26.30
21.97
17.90
13.53
8.32
2.01
-5.24
-12.88
-20.23
-26.72
-32.13
-36.72
-41.14
-46.23
-52.82
-61.42
-71.85
-83.02
-92.97
-99.12
-99.09
-91.47
-76.48
-55.99
-33.05
-10.83
8.27
23.11
33.73
40.85
45.22
47.29
47.25
45.25
41.66
37.18
32.69
28.98
26.50
25.32
25.17
25.64
26.44
27.39
28.47
29.61
30.62
31.10
30.57
28.65
25.22
20.53
15.10
9.56
4.39
-0.22
-4.46
-8.76
-13.57
-19.08
-25.10
-31.04
-36.20
-40.13
-42.87
-45.06
-47.78
-52.19
-59.05
-68.37
-79.18
-89.58
-97.07
-99.18
-94.20
-81.81
-63.26
-41.04
-18.15
2.74
19.92
32.78
41.51
46.71
48.99
48.89
46.95
43.81
40.18
36.72
33.91
31.91
30.63
29.86
29.42
29.24
29.35
29.80
30.46
31.00
30.89
29.59
26.72
22.30
16.78
10.96
5.65
1.45
-1.54
-3.66
-5.64
-8.18
-11.77
-16.42
-21.76
-27.14
-32.00
-36.02
-39.39
-42.69
-46.76
-52.40
-59.91
-68.91
-78.15
-85.64
-89.17
-86.89
-78.02
-63.08
-43.90
-23.02
-2.97
14.37
28.04
37.95
44.59
48.66
50.85
51.71
51.63
50.89
49.70
48.20
46.57
44.98
43.56
42.37
41.42
40.71
40.21
39.89
39.68
39.34
38.52
36.81
34.00
30.15
25.63
20.97
16.60
12.72
9.16
5.54
1.39
-3.51
-9.11
-15.05
-20.87
-26.28
-31.28
-36.23
-41.71
-48.23
-55.98
-64.65
-73.34
-80.67
-84.92
-84.48
-78.30
-66.23
-49.29
-29.50
-9.34
8.85
23.51
34.05
40.78
44.46
45.93
45.86
44.75
43.02
41.14
39.65
39.11
40.00
42.59
46.98
53.00
60.29
68.37
76.70
84.82
92.41
99.41
105.90
112.06
118.01
123.76
129.18
134.05
138.12
141.22
143.21
143.98
143.38
141.19
137.11
130.74
121.58
109.12
92.97
73.33
51.36
29.45
10.96
-0.62
-2.83
4.65
19.55
37.50
53.34
62.75
63.45
55.55
40.99
22.47
2.46
-17.36
-35.90
-52.33
-65.62
-74.59
-78.17
-75.92
-68.20
-56.07
-40.91
-23.77
-5.32
14.27
34.85
55.94
76.59
95.48
111.50
124.14
133.76
141.50
148.77
156.66
165.50
174.71
183.02
189.00
191.41
189.66
183.72
174.08
161.39
146.25
129.10
110.30
90.32
69.91
50.13
32.04
16.26
2.62
-10.02
-23.29
-38.77
-57.17
-78.09
-100.03
-121.20
-140.34
-157.40
-173.82
-192.29
-216.22
-248.66
-291.46
-344.17
-403.52
-463.99
-519.09
-563.30
-593.77
-611.38
-620.48
-627.40
-638.04
-655.59
-679.11
-703.79
-722.78
-729.73
-721.09
-696.94
-660.44
-615.98
-567.53
-517.62
-467.61
-418.54
-371.80
-329.14
-291.84
-259.97
-232.19
-206.42
-180.90
-154.82
-128.83
-104.44
-83.16
-65.84
-52.16
-40.90
-30.47
-19.61
-7.91
4.14
15.48
25.11
32.53
38.01
42.40
46.71
51.73
57.68
64.23
70.74
76.70
81.90
86.62
91.38
96.70
102.81
109.55
116.42
122.91
128.79
134.20
139.70
145.97
153.50
162.45
172.54
183.24
194.04
204.62
215.04
225.75
237.50
251.41
268.64
289.93
314.97
341.92
367.45
387.45
398.26
397.84
386.45
366.42
341.18
314.05
287.41
262.40
239.20
217.47
196.69
176.29
155.62
133.98
110.88
86.33
61.05
36.41
14.16
-4.16
-17.65
-26.28
-30.73
-32.04
-31.18
-28.74
-24.99
-20.17
-14.81
-9.78
-6.17
-4.93
-6.47
-10.47
-15.99
-21.79
-26.70
-30.00
-31.50
-31.48
-30.55
-29.40
-28.58
-28.41
-28.89
-29.68
-30.35
-30.58
-30.46
-30.62
-32.04
-35.61
-41.52
-48.81
-55.27
-57.87
-53.80
-41.33
-20.51
6.91
38.08
69.92
100.07
127.17
150.86
171.32
188.92
203.99
216.87
227.99
237.78
246.60
254.56
261.46
266.89
270.39
271.43
269.34
263.19
251.84
234.22
209.68
178.29
140.82
98.56
53.03
5.75
-41.82
-88.25
-132.08
-171.92
-206.44
-234.51
-255.36
-268.79
-275.45
-276.99
-275.73
-273.85
-272.47
-270.92
-266.85
-257.28
-239.97
-214.57
-182.84
-147.94
-113.04
-80.19
-50.02
-22.09
4.13
28.57
50.40
68.61
82.75
93.50
102.64
112.46
124.94
141.01
160.27
181.24
201.89
220.45
235.93
248.37
258.62
267.73
276.18
283.23
286.86
284.30
273.05
252.05
222.31
186.90
149.82
114.52
82.46
52.52
21.44
-14.87
-59.51
-113.24
-173.77
-236.08
-293.34
-338.58
-366.13
-373.04
-359.79
-330.09
-289.93
-245.85
-203.32
-165.56
-133.30
-105.34
-79.69
-54.43
-28.39
-1.22
26.82
55.13
83.01
109.86
135.39
159.61
182.87
205.51
227.51
248.08
265.55
277.62
282.01
277.17
262.83
240.07
210.90
177.61
142.12
105.68
69.12
33.18
-1.16
-32.78
-60.85
-85.41
-107.59
-129.47
-153.39
-181.06
-212.91
-247.68
-282.46
-313.18
-335.30
-344.85
-339.41
-318.85
-285.47
-243.54
-198.14
-153.98
-114.47
-81.43
-55.28
-35.60
-21.45
-11.67
-4.86
0.50
5.87
12.32
20.35
29.82
40.12
50.56
60.57
69.95
78.70
86.89
94.45
101.02
106.16
109.47
110.88
110.66
109.42
107.79
106.25
104.92
103.68
102.28
100.59
98.78
97.28
96.63
97.25
99.29
102.36
105.48
107.17
105.78
99.97
89.46
75.45
60.62
48.45
42.14
43.40
51.85
65.22
80.22
93.73
103.82
109.94
112.61
112.66
110.60
106.43
99.83
90.64
79.14
66.12
52.58
39.31
26.65
14.60
3.16
-7.45
-16.71
-24.25
-30.32
-36.13
-43.61
-54.70
-70.47
-90.57
-113.19
-135.63
-155.15
-169.60
-177.87
-179.82
-176.09
-167.88
-156.72
-144.34
-132.42
-122.42
-115.32
-111.65
-111.48
-114.38
-119.40
-124.99
-129.11
-129.54
-124.39
-112.71
-94.78
-72.08
-46.84
-21.42
2.11
22.36
38.50
50.22
57.52
60.70
60.41
57.64
53.55
49.32
45.89
43.74
42.95
43.20
44.09
45.25
46.55
47.97
49.49
50.88
51.66
51.17
48.82
44.36
38.00
30.32
22.17
14.47
8.08
3.64
1.35
0.86
1.16
0.81
-1.64
-7.11
-15.60
-26.13
-36.95
-45.98
-51.30
-51.60
-46.32
-35.91
-21.68
-5.59
10.22
24.04
34.96
42.93
48.49
52.28
54.69
55.79
55.52
53.94
51.46
48.78
46.64
45.57
45.66
46.56
47.69
48.44
48.35
47.22
45.10
42.14
38.52
34.33
29.60
24.25
18.24
11.55
4.32
-3.23
-10.76
-17.89
-24.32
-30.01
-35.28
-40.81
-47.40
-55.54
-64.91
-74.17
-81.14
-83.53
-79.78
-69.88
-55.65
-40.32
-27.72
-21.25
-23.09
-33.60
-51.22
-72.56
-92.95
-107.43
-112.03
-105.10
-88.02
-64.87
-41.23
-22.25
-11.16
-8.56
-12.77
-20.95
-30.19
-38.27
-43.76
-45.84
-44.14
-38.70
-30.17
-19.73
-8.88
1.04
9.29
15.90
21.41
26.44
31.20
35.31
37.86
37.89
