1520876918.00
64.000000
-0.00
-0.00
-0.00
-0.00
-0.00
-0.00
-0.00
-0.00
-0.00
-0.00
0.00
0.01
0.01
-0.00
-0.03
-0.05
-0.05
0.00
0.13
0.36
0.66
1.01
1.37
1.72
2.06
2.40
2.79
3.24
3.80
4.42
5.06
5.66
6.20
6.68
7.15
7.68
8.31
9.14
10.09
11.04
11.88
12.56
13.14
13.76
14.65
15.96
17.91
20.32
22.90
25.38
27.58
29.57
31.68
34.32
37.81
42.54
48.15
54.10
59.83
64.97
69.58
74.14
79.34
85.71
93.76
103.00
112.62
121.73
129.77
136.75
143.30
150.75
157.77
166.64
177.95
191.79
206.97
220.57
228.25
225.36
208.53
176.87
132.76
80.05
23.07
-34.94
-92.44
-149.16
-205.23
-260.37
-313.74
-363.87
-409.83
-450.91
-486.50
-515.74
-537.23
-549.22
-549.96
-538.37
-514.21
-478.67
-433.88
-382.45
-327.02
-269.84
-212.63
-156.66
-102.95
-52.37
-5.90
35.58
71.43
101.35
125.50
144.38
158.69
169.15
176.37
180.75
182.57
182.07
179.51
175.23
169.65
163.18
156.15
148.81
141.30
133.69
126.02
118.33
110.69
103.16
95.80
88.68
81.83
75.25
68.95
62.95
57.25
51.86
46.78
42.03
37.59
33.45
29.61
26.07
22.81
19.83
17.11
14.67
12.48
10.54
8.83
7.35
6.07
4.97
4.05
3.27
2.62
2.09
1.65
1.30
1.01
0.79
0.61
0.47
0.37
0.28
0.22
0.18
0.15
0.13
0.12
0.12
0.13
0.15
0.17
0.21
0.24
0.29
0.33
0.38
0.44
0.49
0.54
0.59
0.65
0.71
0.77
0.84
0.91
0.98
1.07
1.16
1.26
1.38
1.51
1.65
1.82
2.00
2.20
2.43
2.69
2.96
3.28
3.62
4.00
4.41
4.86
5.35
5.87
6.44
7.06
7.71
8.41
9.16
9.96
10.81
11.71
12.66
13.66
14.71
15.83
17.01
18.27
19.60
21.01
22.48
23.97
25.42
26.75
27.85
28.57
28.78
28.31
27.08
24.97
22.00
18.20
13.65
8.57
3.17
-2.28
-7.51
-12.25
-16.29
-19.47
-21.71
-22.97
-23.31
-22.85
-21.76
-20.21
-18.35
-16.36
-14.34
-12.36
-10.44
-8.58
-6.80
-5.10
-3.51
-2.01
-0.62
0.72
2.04
3.44
5.02
6.73
8.57
10.58
12.77
15.22
18.00
21.27
25.17
29.90
35.22
40.96
46.93
52.95
58.82
64.46
69.82
75.02
80.27
85.20
89.57
93.19
95.92
97.74
98.78
99.38
100.06
101.40
103.05
104.65
105.66
105.41
103.14
98.15
89.59
76.13
61.23
45.76
29.88
13.30
-4.45
-23.70
-44.45
-66.26
-88.43
-110.13
-131.46
-152.57
-173.73
-195.29
-217.81
-242.13
-269.04
-298.72
-329.86
-359.82
-384.26
-398.42
-398.73
-384.07
-355.90
-317.46
-272.31
-223.34
-172.85
-122.58
-74.29
-29.91
8.90
41.44
68.22
90.67
110.29
127.70
142.62
154.20
161.61
164.73
164.34
161.97
159.30
157.58
157.20
157.80
158.53
158.49
157.14
154.38
150.32
145.05
138.40
130.09
120.07
108.86
97.57
87.55
79.94
75.21
73.11
72.88
73.68
74.82
75.79
76.06
74.91
71.33
64.13
52.26
35.30
13.67
-11.25
-37.56
-63.23
-86.61
-106.68
-122.83
-134.66
-141.69
-143.52
-140.12
-132.22
-121.21
-108.74
-96.07
-83.76
-71.83
-60.26
-49.55
-40.71
-34.90
-32.66
-33.48
-36.01
-38.72
-40.72
-42.13
-43.91
-47.16
-52.43
-59.35
-66.81
-73.39
-77.80
-79.19
-77.17
-71.57
-62.48
-50.21
-35.49
-19.61
-4.33
8.45
17.29
21.68
22.44
21.50
21.17
23.32
28.50
35.87
43.61
49.90
53.65
54.88
54.44
53.44
52.60
52.08
51.59
50.78
49.50
47.85
46.00
43.90
41.28
37.77
33.14
27.52
21.42
15.45
10.17
5.81
2.31
-0.54
-2.90
-4.75
-5.84
-5.87
-4.64
-2.11
1.50
5.88
10.66
15.51
20.12
24.28
27.81
30.66
32.86
34.49
35.57
36.04
35.76
34.61
32.59
29.88
26.74
23.41
20.11
16.99
14.25
12.07
10.62
9.89
9.65
9.38
8.55
6.80
4.09
0.71
-2.87
-6.26
-9.31
-12.22
-15.38
-19.26
-24.14
-29.96
-36.29
-42.32
-47.04
-49.51
-49.01
-45.36
-38.92
-30.53
-21.30
-12.25
-4.14
2.61
7.87
11.72
14.27
15.73
16.36
16.49
16.44
16.41
16.44
16.42
16.21
15.66
14.73
13.43
11.80
9.91
7.88
5.86
3.91
2.07
0.24
-1.67
-3.71
-5.85
-8.02
-10.23
-12.62
-15.42
-18.79
-22.64
-26.52
-29.75
-31.58
-31.47
-29.26
-25.21
-19.82
-13.71
-7.43
-1.42
3.98
8.56
12.24
15.00
16.90
18.06
18.65
18.84
18.81
18.68
18.49
18.14
17.44
16.23
14.49
12.35
10.11
8.04
6.28
4.73
3.22
1.51
-0.55
-2.97
-5.69
-8.73
-12.16
-16.11
-20.71
-26.01
-31.77
-37.52
-42.50
-45.80
-46.62
-44.57
-39.86
-33.24
-25.77
-18.40
-11.67
-5.67
-0.20
4.87
9.52
13.54
16.75
19.11
20.84
22.19
23.32
24.16
24.57
24.42
23.82
22.93
21.94
20.78
19.18
16.77
13.31
8.86
3.75
-1.49
-6.44
-10.83
-14.60
-17.80
-20.44
-22.55
-24.22
-25.77
-27.67
-30.42
-34.29
-39.08
-44.07
-48.13
-50.13
-49.24
-45.29
-38.72
-30.48
-21.72
-13.40
-6.15
-0.08
5.08
9.83
14.66
19.77
25.05
30.07
34.34
37.57
39.76
41.20
42.26
43.17
43.83
43.90
43.03
41.09
38.31
35.20
32.25
29.65
27.21
24.46
20.93
16.53
11.57
6.67
2.46
-0.76
-3.10
-5.05
-7.26
-10.34
-14.70
-20.40
-27.16
-34.35
-41.07
-46.31
-49.13
-48.91
-45.51
-39.32
-31.11
-21.86
-12.45
-3.55
4.52
11.63
17.77
22.96
27.16
30.40
32.78
34.61
36.23
37.98
39.97
42.03
43.82
45.02
45.48
45.38
45.16
45.34
46.28
47.98
50.09
52.02
53.19
53.30
52.42
51.00
49.61
48.80
48.87
49.77
51.15
52.44
53.11
52.83
51.63
49.82
47.85
46.03
44.27
42.01
38.31
32.17
22.83
10.11
-5.25
-21.33
-34.97
-42.12
-38.92
-23.28
3.80
37.71
71.45
97.80
111.75
111.77
99.50
78.41
52.29
24.57
-1.55
-22.90
-36.85
-42.41
-41.37
-38.02
-37.38
-42.81
-54.20
-68.13
-79.86
-85.99
-86.01
-81.99
-76.82
-72.33
-68.70
-65.41
-62.71
-62.42
-67.13
-78.24
-94.47
-112.04
-126.19
-133.97
-135.62
-134.11
-133.08
-134.86
-140.07
-148.60
-160.94
-178.15
-200.44
-225.31
-247.09
-258.65
-254.30
-232.41
-195.80
-150.22
-101.74
-54.80
-11.64
27.02
61.01
90.26
115.05
136.37
155.81
175.00
194.72
214.43
232.21
245.02
249.82
244.61
229.51
207.00
181.24
156.60
136.16
120.89
109.72
100.65
91.64
81.47
69.78
56.86
43.19
29.25
15.40
2.00
-10.40
-20.91
-28.51
-32.35
-32.19
-28.83
-23.94
-19.60
-17.48
-18.17
-21.07
-24.83
-28.07
-29.90
-30.16
-29.13
-27.14
-24.25
-20.32
-15.19
-8.98
-2.18
4.48
10.22
14.60
17.57
19.51
21.02
22.65
24.65
26.89
28.88
30.04
29.88
28.26
25.36
21.56
17.29
12.80
8.11
3.14
-2.15
-7.63
-12.96
-17.82
-22.05
-25.88
-29.96
-35.17
-42.26
-51.53
-62.54
-74.07
-84.41
-91.79
-94.92
-93.39
-87.59
-78.51
-67.20
-54.47
-40.80
-26.62
-12.47
0.97
13.11
23.74
33.10
41.77
50.46
59.84
70.48
82.75
96.52
111.06
124.92
136.33
143.87
147.11
146.71
143.97
139.98
134.97
128.24
118.67
105.46
88.70
69.23
48.21
26.44
4.16
-18.87
-43.00
-68.10
-93.30
-116.86
-136.58
-150.45
-157.26
-157.07
-151.17
-141.50
-130.02
-118.16
-106.64
-95.59
-85.04
-75.12
-66.15
-58.49
-52.32
-47.47
-43.61
-40.32
-37.38
-34.75
-32.55
-30.85
-29.49
-28.16
-26.55
-24.52
-22.31
-20.44
-19.57
-20.12
-22.15
-25.30
-29.00
-32.69
-36.00
-38.79
-41.07
-43.00
-44.83
-46.90
-49.58
-53.09
-57.25
-61.33
-64.12
-64.37
-61.24
-54.70
-45.58
-35.29
-25.27
-16.51
-9.38
-3.65
1.17
5.52
9.61
13.46
16.93
19.97
22.61
24.94
27.01
28.76
30.03
30.61
30.44
29.64
28.53
27.49
26.80
26.44
26.09
25.19
23.22
19.96
15.57
10.62
5.73
1.39
-2.33
-5.77
-9.49
-14.10
-19.88
-26.77
-34.25
-41.45
-47.26
-50.56
-50.47
-46.63
-39.33
-29.51
-18.50
-7.64
2.01
9.90
16.00
20.68
24.45
27.86
31.19
34.45
37.45
39.87
41.48
42.26
42.37
42.05
41.50
40.76
39.71
38.30
36.56
34.68
32.90
31.44
30.29
29.25
27.97
26.13
23.53
20.11
16.04
11.57
6.98
2.54
-1.65
-5.59
-9.44
-13.46
-18.03
-23.46
-29.91
-37.16
-44.49
-50.75
-54.59
-54.91
-51.23
-43.92
-34.02
-22.98
-12.14
-2.46
5.57
11.85
16.55
19.99
22.65
24.97
27.44
30.21
33.19
36.01
38.29
39.69
40.13
39.72
38.75
37.51
36.34
35.46
34.88
34.42
33.67
32.16
29.64
26.18
22.19
18.17
14.45
11.10
7.92
4.67
1.25
-2.24
-5.56
-8.45
-10.89
-13.02
-15.18
-17.75
-21.09
-25.45
-30.82
-36.96
-43.23
-48.71
-52.29
-52.94
-50.02
-43.51
-34.14
-23.18
-12.15
-2.34
5.49
11.28
15.45
18.63
21.35
23.85
26.13
28.08
29.64
30.88
31.89
32.76
33.46
33.93
34.12
34.04
33.75
33.31
32.73
31.94
30.79
29.16
27.07
24.69
22.28
20.09
18.20
16.48
14.63
12.33
9.37
5.80
1.90
-1.94
-5.36
-8.20
-10.56
-12.79
-15.39
-18.81
-23.32
-28.78
-34.51
-39.41
-42.21
-41.86
-37.90
-30.72
-21.45
-11.63
-2.64
4.63
10.03
13.94
17.02
19.78
22.40
24.80
26.72
27.98
28.55
28.61
28.42
28.24
28.23
28.46
28.77
28.92
28.59
27.57
25.80
23.49
20.99
18.62
16.52
14.57
12.50
10.04
7.16
4.09
1.26
-0.98
-2.51
-3.58
-4.74
-6.70
-9.95
-14.66
-20.44
-26.41
-31.45
-34.41
-34.57
-31.76
-26.48
-19.61
-12.11
-4.74
1.98
7.82
12.66
16.38
18.92
20.28
20.59
20.11
19.17
18.03
16.96
16.18
15.90
16.23
17.10
18.24
19.23
19.68
19.36
18.36
17.00
15.61
14.39
13.22
11.84
9.90
7.30
4.16
0.85
-2.19
-4.71
-6.72
-8.58
-10.88
-14.21
-18.87
-24.68
-30.89
-36.33
-39.75
-40.19
-37.30
-31.51
-23.80
-15.46
-7.60
-0.91
4.48
8.84
12.57
15.95
18.98
21.50
23.26
24.13
24.19
23.74
23.14
22.62
22.29
22.02
21.62
20.86
19.58
17.82
15.66
13.24
10.62
7.83
4.74
1.30
-2.56
-6.74
-11.08
-15.36
-19.40
-23.14
-26.69
-30.24
-34.06
-38.33
-43.09
-48.21
-53.30
-57.81
-61.01
-62.13
-60.58
-56.15
-49.18
-40.50
-31.26
-22.53
-15.00
-8.87
-3.88
0.42
4.42
8.33
12.18
15.85
19.16
21.89
23.88
25.04
25.45
25.25
24.66
23.81
22.73
21.43
19.94
18.33
16.71
15.10
13.38
11.36
8.86
5.88
2.54
-0.92
-4.35
-7.64
-10.77
-13.77
-16.60
-19.29
-21.90
-24.64
-27.81
-31.66
-36.34
-41.77
-47.60
-53.21
-57.83
-60.62
-60.82
-58.03
-52.28
-44.09
-34.37
-24.18
-14.47
-5.94
1.09
6.63
10.94
14.38
17.27
19.83
22.05
23.87
25.22
26.20
27.00
27.90
29.07
30.50
32.00
33.29
34.10
34.34
34.05
33.36
32.39
31.16
29.59
27.53
24.92
21.82
18.40
14.93
11.53
8.11
4.44
0.29
-4.42
-9.43
-14.34
-18.75
-22.57
-26.06
-29.73
-34.14
-39.58
-45.95
-52.78
-59.29
-64.51
-67.54
-67.62
-64.39
-57.95
-48.95
-38.36
-27.30
-16.83
-7.66
-0.11
5.89
10.69
14.74
18.44
22.04
25.58
28.95
32.00
34.57
36.54
37.84
38.42
38.22
37.29
35.75
33.91
32.15
30.87
30.26
30.25
30.48
30.44
29.68
28.05
25.67
22.94
20.23
17.68
15.19
12.47
9.26
5.57
1.57
-2.39
-6.03
-9.29
-12.34
-15.50
-19.11
-23.39
-28.47
-34.31
-40.70
-47.20
-53.12
-57.52
-59.46
-58.21
-53.57
-45.98
-36.40
-26.10
-16.24
-7.62
-0.58
5.04
9.57
13.38
16.73
19.71
22.32
24.59
26.59
28.46
30.26
31.94
33.36
34.31
34.73
34.75
34.60
34.55
34.73
35.02
35.09
34.60
33.36
31.38
28.88
26.15
23.44
20.86
18.39
15.94
13.43
10.76
7.87
4.72
1.25
-2.52
-6.50
-10.52
-14.46
-18.26
-22.07
-26.17
-30.87
-36.33
-42.39
-48.53
-53.88
-57.42
-58.25
-55.79
-50.06
-41.63
-31.54
-20.98
-11.05
-2.45
4.55
10.02
14.27
17.59
20.27
22.51
24.49
26.37
28.21
30.00
31.63
33.03
34.14
35.02
35.82
36.64
37.53
38.36
38.92
38.91
38.15
36.55
34.23
31.43
28.45
25.53
22.84
20.36
17.98
15.52
12.84
9.92
6.83
3.73
0.78
-1.91
-4.29
-6.47
-8.69
-11.26
-14.55
-18.81
-24.07
-29.94
-35.64
-40.09
-42.17
-41.12
-36.80
-29.79
-21.15
-12.14
-3.72
3.57
9.66
14.76
18.98
22.38
24.81
26.16
26.49
26.09
25.41
24.95
25.02
25.63
26.55
27.36
27.72
27.51
26.84
26.03
25.38
25.00
24.67
24.00
22.51
19.95
16.42
12.37
8.44
5.20
2.92
1.43
0.23
-1.42
-4.16
-8.39
-14.07
-20.76
-27.64
-33.71
-37.95
-39.62
-38.35
-34.30
-28.07
-20.56
-12.68
-5.20
1.39
6.88
11.18
14.34
16.43
17.56
17.94
17.83
17.53
17.31
17.30
17.50
17.76
17.89
17.77
17.35
16.67
15.80
14.71
13.26
11.22
8.38
4.70
0.38
-4.16
-8.41
-11.97
-14.68
-16.78
-18.84
-21.52
-25.39
-30.56
-36.62
-42.65
-47.45
-49.91
-49.31
-45.53
-39.08
-30.86
-21.93
-13.21
-5.34
1.38
6.88
11.22
14.54
17.01
18.79
20.08
21.05
21.81
22.39
22.74
22.77
22.42
21.70
20.69
19.54
18.42
17.36
16.25
14.83
12.80
9.98
6.36
2.18
-2.19
-6.37
-10.14
-13.44
-16.44
-19.51
-23.12
-27.73
-33.54
-40.33
-47.31
-53.18
-56.50
-56.10
-51.59
-43.48
-33.11
-22.17
-12.20
-4.10
1.95
6.40
9.92
13.06
16.05
18.74
20.91
22.38
23.21
23.68
24.09
24.58
25.11
25.46
25.49
25.15
24.52
23.77
22.91
21.88
20.45
18.44
15.76
12.37
8.34
3.77
-1.14
-6.16
-11.03
-15.53
-19.64
-23.59
-27.82
-32.78
-38.77
-45.73
-53.17
-60.22
-65.78
-68.78
-68.37
-64.21
-56.53
-46.19
-34.38
-22.38
-11.19
-1.37
6.92
13.86
19.71
24.68
28.89
32.32
34.93
36.67
37.59
37.80
37.57
37.20
36.94
36.93
37.07
37.15
36.91
36.19
34.92
33.11
30.80
28.00
24.76
21.24
17.67
14.28
11.20
8.26
5.09
1.27
-3.38
-8.71
-14.28
-19.58
-24.27
-28.31
-32.01
-35.84
-40.24
-45.56
-51.89
-59.01
-66.30
-72.72
-76.95
-77.67
-73.94
-65.58
-53.28
-38.38
-22.51
-7.13
6.82
18.96
29.31
38.14
45.77
52.53
58.69
64.52
70.21
75.88
81.40
86.43
90.34
92.35
91.77
88.20
81.76
73.03
62.98
52.52
42.32
32.64
23.36
14.24
5.21
-3.46
-11.30
-17.76
-22.55
-25.78
-27.98
-29.88
-32.16
-35.14
-38.72
-42.50
-45.95
-48.76
-50.90
-52.56
-54.05
-55.64
-57.53
-59.87
-62.77
-66.16
-69.63
-72.28
-72.91
-70.27
-63.66
-53.25
-40.08
-25.80
-12.02
0.11
10.13
18.10
24.34
29.19
32.83
35.39
37.12
38.32
39.41
40.67
42.17
43.72
44.95
45.49
45.11
43.88
42.04
39.93
37.78
35.61
33.26
30.49
27.21
23.53
19.78
16.31
13.36
10.94
8.80
6.62
4.06
0.94
-2.72
-6.71
-10.67
-14.32
-17.49
-20.29
-23.02
-26.16
-30.14
-35.26
-41.43
-48.20
-54.71
-59.78
-62.24
-61.15
-56.21
-47.82
-37.05
-25.35
-14.07
-4.16
3.96
10.36
15.35
19.35
22.68
25.57
28.21
30.72
33.14
35.45
37.52
39.10
39.96
39.94
39.08
37.67
36.07
34.69
33.73
33.13
32.60
31.71
30.08
27.53
24.09
20.07
15.84
11.82
8.29
5.34
2.85
0.58
-1.70
-4.10
-6.59
-9.06
-11.34
-13.45
-15.52
-17.87
-20.90
-25.01
-30.46
-37.20
-44.73
-52.14
-58.15
-61.44
-60.99
-56.46
-48.31
-37.71
-26.14
-15.04
-5.40
2.35
8.27
12.76
16.34
19.46
22.35
25.09
27.59
29.69
31.34
32.57
33.55
34.44
35.32
36.15
36.75
36.95
36.63
35.78
34.45
32.73
30.64
28.18
25.34
22.19
18.86
15.52
12.29
9.24
6.36
3.62
1.01
-1.48
-3.82
-6.07
-8.33
-10.87
-14.02
-18.12
-23.38
-29.75
-36.81
-43.71
-49.36
-52.61
-52.62
-49.06
-42.37
-33.51
-23.76
-14.24
-5.70
1.61
7.74
12.88
17.05
20.20
22.22
23.21
23.46
23.45
23.61
24.13
24.90
25.59
25.86
25.57
24.81
23.84
22.90
22.06
21.20
20.02
18.21
15.60
12.31
8.65
5.01
1.79
-0.91
-3.21
-5.47
-8.07
-11.38
-15.57
-20.65
-26.45
-32.54
-38.30
-42.91
-45.44
-45.16
-41.75
-35.47
-27.14
-17.93
-9.02
-1.26
5.01
9.88
13.63
16.55
18.75
20.19
20.82
20.75
20.23
19.68
19.40
19.49
19.81
20.06
19.98
19.47
18.64
17.66
16.66
15.54
14.00
11.62
8.04
3.24
-2.39
-8.16
-13.35
-17.54
-20.76
-23.57
-26.73
-30.89
-36.19
-42.22
-48.06
-52.57
-54.68
-53.66
-49.37
-42.19
-33.06
-23.24
-14.00
-6.31
-0.68
2.93
5.03
6.31
7.39
8.69
10.26
11.95
13.47
14.56
15.06
14.99
14.49
13.80
13.23
12.98
13.17
13.68
14.15
14.06
12.91
10.33
6.30
1.18
-4.47
-9.94
-14.71
-18.45
-21.22
-23.42
-25.73
-28.86
-33.27
-38.86
-44.82
-49.83
-52.37
-51.34
-46.41
-38.16
-27.80
-16.75
-6.28
2.80
10.12
15.68
19.62
22.27
23.97
25.10
25.92
26.58
27.16
27.67
28.13
28.48
28.62
28.41
27.69
26.40
24.65
22.71
20.86
19.24
17.78
16.15
13.96
10.91
6.93
2.26
-2.65
-7.35
-11.54
-15.21
-18.64
-22.32
-26.73
-32.21
-38.73
-45.87
-52.73
-58.13
-60.86
-60.07
-55.46
-47.59
-37.60
-26.94
-16.85
-8.14
-0.98
4.97
10.19
15.11
19.92
24.57
28.86
32.53
35.45
37.55
38.87
39.52
39.66
39.35
38.64
37.53
36.05
34.23
32.17
29.94
27.61
25.16
22.53
19.64
16.39
12.69
8.51
3.83
-1.28
-6.65
-11.97
-16.90
-21.15
-24.63
-27.50
-30.17
-33.15
-37.01
-42.19
-48.82
-56.58
-64.53
-71.17
-74.87
-74.29
-68.96
-59.50
-47.40
-34.52
-22.39
-11.87
-2.96
4.75
11.83
18.58
25.09
31.21
36.75
41.51
45.35
48.19
50.02
50.91
51.04
50.65
49.98
49.22
48.52
47.87
47.14
46.10
44.45
41.91
38.37
33.97
29.06
24.10
19.52
15.54
12.15
9.13
6.14
2.85
-0.99
-5.46
-10.46
-15.76
-21.02
-25.99
-30.56
-34.90
-39.43
-44.74
-51.26
-59.03
-67.36
-74.91
-79.97
-80.98
-77.17
-68.84
-57.28
-44.29
-31.60
-20.30
-10.73
-2.61
4.62
11.40
17.93
24.16
29.89
34.93
39.17
42.63
45.41
47.57
49.14
50.14
50.55
50.46
50.04
49.49
48.97
48.49
47.90
46.95
45.39
43.08
40.03
36.39
32.40
28.26
24.19
20.33
16.71
13.25
9.70
5.80
1.37
-3.59
-8.85
-13.98
-18.61
-22.49
-25.75
-28.74
-32.02
-36.11
-41.39
-47.98
-55.63
-63.66
-70.98
-76.21
-78.00
-75.46
-68.44
-57.71
-44.70
-31.15
-18.54
-7.81
0.81
7.62
13.21
18.14
22.76
27.17
31.24
34.80
37.65
39.76
41.18
42.03
42.48
42.54
42.24
41.55
40.55
39.37
38.16
37.03
35.94
34.83
33.49
31.82
29.75
27.26
24.37
21.14
17.68
14.11
10.63
7.36
4.34
1.39
-1.76
-5.36
-9.49
-14.01
-18.59
-22.83
-26.57
-29.87
-33.03
-36.52
-40.72
-45.86
-51.80
-58.12
-63.98
-68.32
-70.02
-68.22
-62.60
-53.53
-42.08
-29.66
-17.69
-7.17
1.45
8.27
13.69
18.19
22.14
25.73
29.00
31.90
34.31
36.19
37.52
38.38
38.87
39.09
39.12
38.95
38.60
38.09
37.48
36.82
36.13
35.34
34.29
32.80
30.70
27.96
24.61
20.83
16.84
12.92
9.28
6.02
3.04
0.14
-2.99
-6.50
-10.42
-14.60
-18.80
-22.82
-26.55
-29.95
-33.07
-36.01
-39.01
-42.39
-46.49
-51.42
-56.85
-61.93
-65.39
-65.90
-62.61
-55.32
-44.68
-31.93
-18.58
-5.94
5.06
14.06
21.12
26.50
30.50
33.36
35.29
36.53
37.34
38.01
38.70
39.43
40.04
40.32
40.09
39.38
38.35
37.20
36.08
34.96
33.66
31.95
29.67
26.81
23.58
20.31
17.32
14.81
12.74
10.82
8.63
5.82
2.29
-1.75
-5.88
-9.64
-12.78
-15.37
-17.76
-20.44
-23.86
-28.35
-33.88
-40.12
-46.34
-51.50
-54.44
-54.20
-50.33
-43.13
-33.57
-22.99
-12.73
-3.78
3.44
8.98
13.15
16.26
18.55
20.06
20.79
20.82
20.38
19.85
19.61
19.86
20.52
21.25
21.67
21.51
20.79
19.76
18.73
17.84
17.03
16.00
14.44
12.18
9.30
6.08
2.88
-0.05
-2.64
-5.05
-7.53
-10.35
-13.78
-18.00
-23.09
-28.86
-34.79
-39.96
-43.25
-43.72
-40.87
-34.95
-26.79
-17.59
-8.48
-0.28
6.60
12.05
16.12
18.89
20.45
20.95
20.60
19.72
18.63
17.63
16.92
16.54
16.40
16.30
16.06
15.54
14.75
13.74
12.59
11.21
9.42
6.97
3.84
0.21
-3.48
-6.76
-9.43
-11.60
-13.75
-16.43
-20.12
-25.03
-31.01
-37.61
-44.09
-49.50
-52.79
-53.07
-49.92
-43.60
-35.04
-25.54
-16.44
-8.63
-2.46
2.22
5.75
8.45
10.55
12.11
13.19
13.82
14.08
14.07
13.89
13.64
13.40
13.23
13.15
13.16
13.20
13.10
12.64
11.47
9.25
5.80
1.26
-3.89
-8.97
-13.30
-16.52
-18.74
-20.53
-22.73
-26.15
-31.29
-38.18
-46.13
-53.88
-59.76
-62.21
-60.23
-53.79
-43.83
-31.99
-20.00
-9.21
-0.24
6.84
12.37
16.72
20.12
22.72
24.57
25.79
26.51
26.87
27.01
26.96
26.74
26.36
25.81
25.11
24.31
23.45
22.51
21.42
19.94
17.79
14.66
10.39
5.10
-0.81
-6.78
-12.27
-16.92
-20.76
-24.15
-27.69
-32.07
-37.76
-44.84
-52.80
-60.48
-66.30
-68.72
-66.67
-60.04
-49.71
-37.27
-24.51
-12.83
-2.93
5.15
11.78
17.42
22.40
26.83
30.72
34.04
36.81
39.06
40.80
42.02
42.73
42.92
42.61
41.89
40.82
39.42
37.68
35.59
33.16
30.48
27.74
25.12
22.70
20.37
17.86
14.83
11.02
6.42
1.26
-4.04
-9.09
-13.69
-17.87
-21.94
-26.32
-31.53
-37.99
-45.85
-54.75
-63.72
-71.20
-75.40
-74.87
-69.03
-58.51
-44.94
-30.44
-16.97
-5.72
2.98
9.62
15.00
19.94
24.95
30.18
35.46
40.48
44.90
48.47
51.14
52.95
53.99
54.30
53.90
52.85
51.28
49.47
47.64
45.94
44.24
42.22
39.51
35.85
31.32
26.27
21.15
16.28
11.68
6.98
1.70
-4.53
-11.71
-19.44
-27.00
-33.65
-38.96
-42.86
-45.74
-48.26
-51.15
-55.03
-60.12
-66.13
-72.15
-76.83
-78.66
-76.40
-69.60
-58.75
-45.14
-30.50
-16.40
-3.87
6.71
15.54
23.13
29.93
36.25
42.17
47.59
52.27
55.96
58.46
59.67
59.64
58.54
56.64
54.19
51.40
48.38
45.17
41.76
38.11
34.23
30.16
26.04
22.13
18.71
16.03
14.14
12.87
11.82
10.51
8.56
5.78
2.22
-1.95
-6.53
-11.44
-16.76
-22.71
-29.48
-37.24
-46.04
-55.71
-65.79
-75.44
-83.38
-88.15
-88.50
-83.86
-74.63
-62.15
-48.29
-34.77
-22.72
-12.42
-3.56
4.44
12.02
19.40
26.56
33.39
39.68
45.22
49.71
52.99
55.05
56.09
56.46
56.53
56.51
56.45
56.26
55.80
54.89
53.31
50.85
47.39
42.99
38.00
32.91
28.20
24.06
20.32
16.48
12.00
6.52
0.05
-7.02
-14.14
-20.70
-26.39
-31.14
-35.25
-39.26
-43.79
-49.36
-56.21
-64.11
-72.28
-79.48
-84.17
-85.01
-81.20
-72.93
-61.24
-47.81
-34.35
-22.16
-11.79
-3.19
4.11
10.60
16.61
22.26
27.51
32.25
36.37
39.78
42.38
44.13
45.07
45.30
45.02
44.48
43.90
43.42
43.11
42.87
42.50
41.73
40.33
38.20
35.43
32.29
29.08
25.98
22.98
19.78
16.01
11.38
5.89
-0.12
-6.11
-11.50
-15.99
-19.66
-23.04
-26.89
-31.97
-38.71
-47.05
-56.26
-65.11
-72.05
-75.66
-74.95
-69.74
-60.67
-49.03
-36.36
-24.05
-13.01
-3.64
4.11
10.47
15.75
20.16
23.90
27.09
29.79
32.04
33.85
35.22
36.20
36.83
37.17
37.27
37.08
36.63
35.90
35.03
34.10
33.18
32.18
30.90
29.12
26.80
24.09
21.31
18.79
16.62
14.64
12.39
9.43
5.49
0.70
-4.50
-9.59
-14.15
-18.11
-21.73
-25.50
-29.97
-35.54
-42.32
-49.99
-57.72
-64.19
-67.92
-67.66
-62.81
-53.74
-41.72
-28.55
-16.03
-5.40
2.87
8.98
13.59
17.32
20.53
23.34
25.67
27.46
28.84
30.05
31.29
32.67
34.08
35.23
35.84
35.78
35.10
34.06
32.92
31.86
30.88
29.83
28.49
26.69
24.38
21.68
18.82
16.05
13.49
11.06
8.54
5.62
2.14
-1.89
-6.23
-10.51
-14.43
-17.82
-20.77
-23.59
-26.73
-30.65
-35.60
-41.49
-47.73
-53.30
-56.99
-57.71
-54.83
-48.43
-39.24
-28.46
-17.36
-7.02
1.86
8.98
14.24
17.70
19.47
19.73
18.81
17.23
15.54
14.22
13.45
13.02
12.52
11.51
9.74
7.32
4.64
2.19
0.30
-1.05
-2.25
-3.96
-6.81
-11.14
-16.81
-23.25
-29.65
-35.30
-39.89
-43.56
-46.90
-50.77
-55.97
-63.10
-72.10
-81.99
-90.59
-94.78
-91.24
-77.62
-53.66
-21.74
13.59
46.94
73.77
91.55
100.08
100.84
95.97
87.48
77.01
66.00
55.86
47.86
42.74
40.25
39.22
38.12
35.88
32.41
28.70
26.20
26.05
28.53
32.98
38.15
42.73
45.76
46.76
45.72
42.94
38.92
34.24
29.38
24.56
19.63
14.13
7.49
-0.62
-10.00
-19.85
-28.89
-35.79
-39.53
-39.69
-36.55
-30.83
-23.41
-15.02
-6.17
2.76
11.26
18.65
24.18
27.34
28.28
27.80
27.14
27.48
29.36
32.53
36.03
38.72
39.70
38.63
35.62
31.02
25.17
18.24
10.39
1.87
-7.00
-15.80
-24.22
-32.15
-39.63
-46.74
-53.53
-59.99
-66.13
-72.06
-78.09
-84.53
-91.58
-99.08
-106.34
-112.23
-115.44
-114.94
-110.32
-102.04
-91.32
-79.74
-68.83
-59.58
-52.34
-46.93
-42.82
-39.41
-36.09
-32.27
-27.37
-20.90
-12.56
-2.33
9.56
22.61
36.29
50.02
63.24
75.40
85.93
94.26
99.89
102.46
101.83
98.09
91.67
83.17
73.29
62.65
51.65
40.39
28.77
16.56
3.53
-10.39
-25.14
-40.41
-55.55
-69.60
-81.27
-89.27
-92.60
-90.99
-84.99
-75.96
-65.69
-55.91
-47.85
-41.99
-38.17
-35.78
-34.24
-33.25
-32.98
-33.84
-36.13
-39.77
-44.05
-47.87
-50.14
-50.37
-48.95
-47.11
-46.40
-48.01
-52.36
-59.07
-67.35
-76.55
-86.48
-97.34
-109.23
-121.65
-133.27
-141.92
-145.02
-140.06
-125.09
-99.08
-62.32
-16.52
35.45
90.25
144.57
195.44
240.13
276.07
301.09
313.63
312.89
298.45
269.87
226.76
169.78
102.17
30.77
-34.61
-83.77
-109.79
-111.53
-93.93
-65.54
-34.84
-7.22
15.81
35.37
53.18
70.12
85.93
99.93
111.91
122.65
133.59
146.07
160.45
175.60
189.15
198.41
201.62
198.85
192.12
184.37
177.97
173.30
168.48
160.05
144.65
120.46
87.97
49.62
8.75
-31.59
-69.21
-102.70
-130.98
-152.98
-167.60
-174.16
-172.78
-164.68
-151.91
-136.85
-121.56
-107.33
-94.60
-83.27
-73.07
-63.92
-56.02
-49.68
-45.05
-41.89
-39.57
-37.28
-34.38
-30.62
-26.16
-21.47
-17.11
-13.64
-11.71
-12.23
-16.29
-24.85
-38.16
-55.23
-73.87
-91.23
-104.72
-112.86
-115.65
-114.36
-110.83
-106.86
-103.72
-102.19
-102.60
-104.93
-108.83
-113.49
-117.69
-120.01
-119.21
-114.52
-105.96
-94.21
-80.45
-65.93
-51.65
-38.14
-25.45
-13.42
-1.91
8.96
18.73
26.75
32.40
35.38
35.89
34.72
33.02
32.09
32.98
36.14
41.33
47.79
54.53
60.73
65.97
70.22
73.74
76.78
79.44
81.65
83.15
83.64
82.90
80.90
77.83
74.02
69.82
65.31
60.23
54.06
46.45
37.56
28.32
20.23
14.77
12.80
14.21
18.10
23.22
28.52
33.56
38.47
43.64
49.38
55.64
62.01
67.82
72.29
74.76
74.63
71.46
65.00
55.29
42.88
28.86
14.79
2.31
-7.30
-13.53
-16.76
-18.07
-18.69
-19.65
-21.50
-24.29
-27.83
-31.84
-36.18
-40.87
-46.13
-52.23
-59.34
-67.33
-75.64
-83.19
-88.51
-90.13
-86.86
-78.23
-64.63
-47.37
-28.47
-10.21
5.37
17.05
24.59
28.67
30.41
30.84
30.55
29.65
28.08
25.94
23.75
22.26
22.15
23.59
26.06
28.49
29.70
28.83
25.68
20.67
14.66
8.51
2.78
-2.53
-7.89
-14.03
-21.66
-31.12
-42.26
-54.54
-67.28
-80.09
-93.10
-106.99
-122.82
-142.02
-166.06
-196.27
-233.12
-275.45
-319.94
-361.41
-394.03
-413.13
-416.67
-405.64
-383.20
-353.04
-317.95
-279.18
-237.02
-191.62
-143.64
-94.18
-44.12
6.61
59.32
116.01
178.07
244.76
312.43
374.72
424.39
455.66
466.35
458.64
437.97
410.81
382.42
355.70
331.56
310.11
291.76
277.22
266.91
260.00
254.23
246.69
235.23
219.56
201.43
183.71
168.89
157.84
149.61
142.09
133.20
121.88
108.27
93.45
78.77
65.42
54.24
45.71
39.94
36.21
32.52
25.41
10.38
-16.74
-58.01
-111.75
-172.01
-229.53
-274.17
-297.78
-296.72
-272.82
-232.65
-185.37
-140.13
-103.88
-80.35
-70.21
-71.94
-82.85
-99.85
-119.72
-139.16
-154.76
-163.37
-162.65
-151.83
-132.04
-106.03
-77.23
-48.50
-21.39
3.96
28.17
51.65
73.92
93.66
109.17
119.15
123.33
122.43
117.85
111.02
102.99
94.19
84.57
73.84
61.91
48.98
35.66
22.81
11.32
1.81
-5.59
-11.25
-15.96
-20.60
-25.90
-32.30
-39.86
-48.40
-57.68
-67.38
-77.02
-85.91
-93.00
-97.08
-97.07
-92.41
-83.35
-70.92
-56.67
-42.11
-28.39
-16.09
-5.34
3.86
11.57
17.75
22.50
26.11
29.11
32.01
35.02
37.87
39.82
39.98
37.66
32.70
25.57
17.15
8.43
0.17
-7.28
-13.94
-20.12
-26.12
-32.17
-38.31
-44.56
-50.93
-57.50
-64.34
-71.42
-78.55
-85.23
-90.76
-94.28
-94.97
-92.20
-85.78
-75.96
-63.43
-49.15
-34.11
-19.11
-4.72
8.88
21.71
33.89
45.56
56.68
67.06
76.56
85.20
93.46
102.13
112.03
123.58
136.37
149.37
161.23
171.03
178.57
184.36
189.04
192.82
195.17
195.06
191.42
183.74
172.21
157.55
140.66
122.27
102.91
82.87
62.29
41.13
19.23
-3.51
-26.90
-50.18
-72.01
-90.72
-104.80
-113.46
-116.91
-116.30
-113.36
-109.80
-106.96
-105.46
-105.29
-106.07
-107.32
-108.67
-109.86
-110.61
-110.55
-109.12
-105.75
-100.10
-92.25
-82.73
-72.36
-61.95
-52.08
-42.95
-34.50
-26.62
-19.33
-12.87
-7.63
-3.97
-2.01
-1.53
-2.09
-3.23
-4.73
-6.65
-9.26
-12.76
-17.09
-21.74
-25.89
-28.63
-29.20
-27.27
-22.98
-16.92
-9.89
-2.72
4.00
9.99
15.26
19.98
24.28
28.21
31.68
34.53
36.64
37.92
38.36
37.96
36.79
34.89
32.29
29.03
25.09
20.45
15.12
9.20
2.87
-3.68
-10.26
-16.78
-23.14
-29.29
-35.08
-40.38
-45.16
-49.55
-53.82
-58.21
-62.66
-66.72
-69.49
-69.99
-67.43
-61.61
-53.01
-42.68
-31.93
-21.86
-13.17
-6.07
-0.40
4.11
7.72
10.57
12.81
14.62
16.25
17.95
19.93
22.17
24.50
26.64
28.33
29.45
30.04
30.25
30.21
29.93
29.24
27.88
25.53
22.04
17.52
12.35
7.06
2.10
-2.25
-6.09
-9.81
-13.91
-18.83
-24.75
-31.49
-38.51
-44.93
-49.73
-51.94
-50.92
-46.51
-39.17
-29.83
-19.62
-9.58
-0.37
7.74
14.82
21.04
26.58
31.52
35.90
39.76
43.16
46.14
48.67
50.62
51.84
52.21
51.73
50.54
48.89
47.04
45.19
43.43
41.71
39.87
37.67
34.83
31.19
26.80
21.95
17.19
13.08
9.91
7.56
5.48
2.90
-0.86
-6.07
-12.55
-19.55
-26.06
-30.99
-33.43
-32.87
-29.33
-23.43
-16.22
-8.94
-2.53
2.48
6.04
8.47
10.14
11.34
12.21
12.86
13.37
13.88
14.52
15.31
16.20
17.03
17.64
17.89
17.76
17.26
16.43
15.29
13.87
12.19
10.27
8.09
5.75
3.34
0.99
-1.19
-3.17
-5.05
-7.03
-9.40
-12.42
-16.25
-20.95
-26.32
-31.98
-37.31
-41.60
-44.16
-44.52
-42.57
-38.63
-33.34
-27.49
-21.84
-16.92
-12.99
-9.99
-7.67
-5.75
-4.00
-2.35
-0.82
0.52
1.68
2.78
3.97
5.33
6.76
7.96
8.58
8.41
7.54
6.31
5.18
4.50
4.33
4.46
4.49
4.09
3.08
1.54
-0.32
-2.30
-4.25
-6.17
-8.10
-10.10
-12.19
-14.41
-16.92
-19.95
-23.65
-27.97
-32.36
-35.90
-37.53
-36.45
-32.56
-26.46
-19.27
-12.20
-6.15
-1.41
2.19
5.05
7.60
10.05
12.46
14.74
16.80
18.58
20.09
21.31
22.26
22.94
23.34
23.45
23.28
22.83
22.10
21.06
19.64
17.80
15.53
12.92
10.18
7.50
5.05
2.85
0.84
-1.10
-3.04
-4.99
-6.93
-8.91
-11.13
-13.85
-17.30
-21.54
-26.34
-31.09
-35.02
-37.32
-37.40
-35.08
-30.61
-24.62
-17.98
-11.55
-5.93
-1.40
2.19
5.19
7.96
10.71
13.34
15.61
17.24
18.12
18.35
18.21
17.99
17.83
17.75
17.61
17.32
16.83
16.21
15.51
14.77
13.96
13.00
11.82
10.38
8.65
6.64
4.32
1.73
-1.05
-3.87
-6.54
-8.90
-10.88
-12.61
-14.40
-16.68
-19.85
-24.05
-29.05
-34.18
-38.53
-41.16
-41.40
-39.07
-34.45
-28.22
-21.22
-14.25
-7.96
-2.75
1.19
3.96
5.80
7.09
8.20
9.48
11.09
13.05
15.31
17.72
20.17
22.58
24.85
26.85
28.48
29.66
30.38
30.74
30.90
31.02
31.14
31.18
30.94
30.21
28.88
27.02
24.88
22.73
20.77
19.00
17.25
15.26
12.80
9.72
5.97
1.59
-3.23
-8.13
-12.53
-15.67
-16.88
-15.74
-12.35
-7.26
-1.35
4.46
9.48
13.38
16.09
17.75
18.58
18.80
18.59
18.15
17.61
17.11
16.68
16.32
15.95
15.45
14.68
13.59
12.28
10.92
9.78
9.04
8.69
8.47
8.07
7.19
5.81
4.15
2.52
1.20
0.20
-0.71
-1.86
-3.56
-5.95
-9.01
-12.55
-16.31
-19.93
-22.97
-24.99
-25.62
-24.69
-22.27
-18.68
-14.41
-9.98
-5.83
-2.26
0.63
2.87
4.53
5.69
6.38
6.60
6.44
6.07
5.77
5.79
6.24
7.06
8.05
8.96
9.63
10.02
10.13
9.92
9.36
8.35
6.96
5.33
3.75
2.49
1.69
1.24
0.80
-0.05
-1.71
-4.36
-7.84
-11.69
-15.20
-17.65
-18.45
-17.35
-14.52
-10.45
-5.81
-1.30
2.60
5.66
7.86
9.35
10.29
10.79
10.82
10.32
9.20
7.52
5.55
3.72
2.53
2.28
2.99
4.30
5.67
6.63
6.86
6.36
5.25
3.67
1.71
-0.57
-3.08
-5.63
-7.97
-9.93
-11.57
-13.13
-15.04
-17.73
-21.37
-25.76
-30.28
-33.93
-35.73
-34.94
-31.46
-25.85
-19.16
-12.61
-7.11
-3.04
-0.21
1.89
3.80
5.81
7.92
9.87
11.41
12.34
12.64
12.48
12.12
11.80
11.67
11.75
11.85
11.76
11.25
10.21
8.62
6.61
4.33
1.98
-0.28
-2.37
-4.23
-5.90
-7.55
-9.45
-11.91
-15.27
-19.61
-24.73
-30.13
-35.09
-38.80
-40.57
-40.05
-37.30
-32.82
-27.40
-21.93
-17.19
-13.64
-11.38
-10.15
-9.54
-9.12
-8.62
-7.98
-7.25
-6.55
-5.97
-5.51
-5.09
-4.59
-3.91
-3.05
-2.09
-1.23
-0.69
-0.67
-1.24
-2.36
-3.99
-6.09
-8.71
-11.93
-15.75
-19.94
-24.12
-27.83
-30.73
-32.74
-34.11
-35.27
-36.78
-39.04
-42.21
-46.10
-50.19
-53.67
-55.71
-55.58
-52.96
-48.00
-41.39
-34.06
-27.07
-21.19
-16.79
-13.72
-11.49
-9.43
-7.01
-4.15
-1.21
1.05
1.87
0.89
-1.69
-5.15
-8.62
-11.44
-13.40
-14.71
-15.82
-17.13
-19.00
-21.76
-25.78
-31.23
-37.65
-43.60
-46.75
-44.50
-35.04
-18.12
4.68
30.47
56.03
78.69
96.69
109.00
115.09
114.78
108.52
97.75
84.86
72.73
63.69
58.65
56.80
56.13
54.46
50.41
43.89
36.00
28.30
22.10
17.93
15.56
14.24
13.10
11.57
9.50
7.12
4.87
3.20
2.44
2.78
4.28
6.87
10.28
13.95
17.11
18.86
18.54
16.08
11.99
7.21
2.69
-1.02
-3.85
-6.11
-8.09
-9.91
-11.39
-12.37
-12.86
-13.19
-13.92
-15.57
-18.39
-22.24
-26.74
-31.38
-35.70
-39.39
-42.24
-44.00
-44.34
-42.88
-39.38
-33.99
-27.30
-20.31
-14.04
-9.21
-5.89
-3.57
-1.47
1.02
3.93
6.79
8.88
9.65
9.08
7.71
6.30
5.48
5.51
6.20
7.11
7.82
8.07
7.81
7.00
5.52
3.13
-0.43
-5.19
-10.75
-16.36
-21.15
-24.48
-26.18
-26.47
-25.66
-23.80
-20.61
-15.74
-9.20
-1.70
5.50
10.97
13.67
13.38
10.57
6.16
1.22
-3.34
-6.70
-8.26
-7.72
-5.27
-1.67
1.96
4.57
5.59
5.16
3.98
2.98
2.91
4.02
6.18
8.95
11.84
14.50
16.69
18.24
19.03
19.02
18.30
17.16
16.07
15.47
15.63
16.52
17.83
19.13
20.01
20.21
19.62
18.23
16.11
13.36
10.25
7.09
4.23
1.95
0.39
-0.37
-0.23
0.89
2.92
5.49
7.86
9.02
8.08
4.63
-1.01
-7.87
-14.68
-20.32
-24.11
-25.85
-25.64
-23.72
-20.35
-15.80
-10.49
-5.00
0.04
4.19
7.34
9.80
12.05
14.49
17.25
20.17
22.92
25.18
26.76
27.58
27.62
26.95
25.76
24.39
23.25
22.61
22.50
22.60
22.35
21.29
19.30
16.63
13.87
11.61
10.22
9.71
9.83
10.20
10.50
10.57
10.34
9.71
8.62
6.92
4.68
2.23
0.22
-0.54
0.59
3.75
8.48
13.80
18.67
22.38
24.71
25.94
26.52
26.74
26.64
26.02
24.71
22.70
20.25
17.79
15.72
14.34
13.68
13.61
13.85
14.02
13.78
12.80
10.90
8.08
4.48
0.41
-3.69
-7.32
-9.95
-11.25
-11.08
-9.71
-7.67
-5.67
-4.38
-4.27
-5.48
-7.82
-10.87
-13.95
-16.37
-17.46
-16.90
-14.82
-11.80
-8.76
-6.56
-5.77
-6.47
-8.29
-10.60
-12.75
-14.23
-14.72
-14.07
-12.23
-9.35
-5.87
-2.42
0.21
1.36
0.73
-1.47
-4.75
-8.43
-12.05
-15.43
-18.65
-21.86
-25.08
-28.13
-30.65
-32.29
-32.88
-32.48
-31.37
-29.99
-28.80
-28.22
-28.67
-30.42
-33.65
-38.33
-44.09
-50.26
-55.81
-59.64
-60.73
-58.51
-53.00
-44.81
-35.01
-24.77
-15.10
-6.71
0.08
5.24
8.90
11.29
12.65
13.24
13.32
13.19
13.12
13.33
13.89
14.68
15.44
15.84
15.65
14.91
13.83
12.78
11.99
11.55
11.27
10.90
10.21
9.14
7.73
6.03
4.08
1.81
-0.86
-3.91
-7.30
-10.95
-14.90
-19.29
-24.29
-29.95
-36.03
-41.87
-46.61
-49.36
-49.55
-47.07
-42.33
-36.08
-29.18
-22.36
-16.05
-10.35
-5.12
-0.05
5.11
10.50
15.98
21.23
25.80
29.33
31.66
32.91
33.34
33.24
32.76
31.80
30.21
27.84
24.74
21.27
17.89
15.16
13.43
12.77
12.89
13.25
13.15
12.06
9.71
6.26
2.30
-1.44
-4.31
-6.06
-6.94
-7.57
-8.67
-10.70
-13.60
-16.81
-19.44
-20.61
-19.71
-16.57
-11.44
-4.87
2.51
10.07
17.33
24.00
29.94
35.15
39.65
43.43
46.33
48.10
48.35
46.72
43.04
37.41
30.36
22.67
15.22
8.80
3.88
0.62
-1.03
-1.26
-0.34
1.42
3.59
5.60
6.89
7.07
6.07
4.15
1.84
-0.28
-1.81
-2.63
-2.93
-3.10
-3.63
-4.89
-7.05
-10.02
-13.51
-17.06
-20.17
-22.34
-23.19
-22.52
-20.33
-16.82
-12.33
-7.25
-1.96
3.20
7.85
11.72
14.59
16.35
17.08
17.05
16.57
15.98
15.56
15.48
15.82
16.61
17.75
19.04
20.24
21.14
21.61
21.61
21.17
20.28
18.86
16.83
14.21
11.27
8.50
6.43
5.42
5.41
5.89
6.11
5.34
3.21
-0.21
-4.47
-9.01
-13.31
-16.98
-19.71
-21.17
-21.07
-19.29
-16.05
-11.90
-7.64
-3.95
-1.18
0.80
2.40
4.06
5.94
7.88
9.51
10.50
10.82
10.77
10.84
11.42
12.62
14.17
15.60
16.47
16.60
16.16
15.47
14.88
14.47
14.03
13.15
11.53
9.14
6.27
3.51
1.39
0.25
0.06
0.52
1.10
1.20
0.26
-2.15
-6.14
-11.35
-17.00
-21.96
-25.11
-25.68
-23.51
-19.13
-13.51
-7.62
-2.20
2.47
6.44
9.86
12.79
15.08
16.53
17.04
16.72
15.97
15.21
14.89
15.17
15.90
16.71
17.09
16.63
15.16
12.90
10.25
7.73
5.71
4.25
3.18
2.10
0.60
-1.59
-4.57
-8.31
-12.61
-17.18
-21.67
-25.79
-29.38
-32.49
-35.34
-38.14
-40.91
-43.35
-44.91
-44.99
-43.25
-39.82
-35.24
-30.33
-25.79
-21.95
-18.71
-15.66
-12.39
-8.67
-4.61
-0.49
3.36
6.70
9.45
11.60
13.08
13.86
14.06
13.93
13.95
14.63
16.18
18.46
20.91
22.83
23.63
23.13
21.44
18.93
15.87
12.42
8.55
4.25
-0.39
-5.10
-9.53
-13.39
-16.52
-18.94
-20.82
-22.42
-24.10
-26.19
-28.96
-32.45
-36.44
-40.48
-43.99
-46.47
-47.64
-47.52
-46.26
-44.16
-41.44
-38.29
-34.85
-31.25
-27.61
-24.05
-20.59
-17.27
-14.03
-10.84
-7.61
-4.32
-0.99
2.24
5.18
7.60
9.35
10.44
11.06
11.55
12.21
13.23
14.60
16.19
17.83
19.38
20.76
21.93
22.71
22.79
21.83
19.59
16.18
12.01
7.71
3.90
0.86
-1.49
-3.56
-5.83
-8.71
-12.37
-16.77
-21.69
-26.83
-31.74
-35.92
-38.83
-40.00
-39.19
-36.46
-32.16
-26.81
-21.01
-15.22
-9.81
-4.98
-0.83
2.60
5.35
7.50
9.17
10.46
11.45
12.15
12.49
12.51
12.27
11.94
11.72
11.75
12.10
12.72
13.46
14.20
14.87
15.45
16.03
16.74
17.67
18.82
20.08
21.21
21.96
22.12
21.63
20.56
19.05
17.20
15.06
12.59
9.77
6.64
3.29
-0.13
-3.59
-7.14
-10.90
-14.86
-18.79
-22.17
-24.39
-24.90
-23.47
-20.31
-15.97
-11.11
-6.37
-2.08
1.66
4.88
7.64
9.94
11.77
13.21
14.40
15.56
16.86
18.32
19.80
21.04
21.78
21.88
21.29
20.10
18.54
16.91
15.59
14.84
14.75
15.11
15.49
15.35
14.31
12.37
9.83
7.22
4.99
3.45
2.64
2.49
2.82
3.45
4.17
4.79
5.07
4.74
3.62
1.61
-1.20
-4.53
-7.89
-10.76
-12.63
-13.19
-12.31
-10.13
-6.95
-3.14
0.90
4.79
8.25
11.12
13.36
15.08
16.40
17.44
18.26
18.84
19.13
19.15
18.99
18.82
18.79
18.97
19.24
19.41
19.16
18.30
16.80
14.80
12.63
10.57
8.82
7.38
6.08
4.71
3.13
1.37
-0.37
-1.85
-2.90
-3.45
-3.55
-3.33
-2.93
-2.50
-2.29
-2.61
-3.73
-5.78
-8.51
-11.32
-13.43
-14.17
-13.20
-10.68
-7.17
-3.35
0.20
3.16
5.50
7.42
9.10
10.69
12.24
13.65
14.79
15.51
15.72
15.41
14.70
13.85
13.19
12.99
13.27
13.83
14.25
14.15
13.37
12.09
10.66
9.42
8.46
7.57
6.44
4.87
2.98
1.18
-0.12
-0.70
-0.75
-0.80
-1.45
-3.13
-5.90
-9.36
-12.84
-15.56
-16.91
-16.58
-14.66
-11.58
-7.85
-4.02
-0.40
2.88
5.87
8.72
11.50
14.24
16.77
18.87
20.23
20.53
19.56
17.25
13.76
9.42
4.66
-0.14
-4.66
-8.73
-12.26
-15.25
-17.83
-20.14
-22.31
-24.41
-26.41
-28.09
-29.17
-29.33
-28.38
-26.30
-23.38
-20.25
-17.69
-16.56
-17.49
-20.71
-25.94
-32.46
-39.30
-45.43
-49.93
-52.09
-51.57
-48.37
-43.04
-36.50
-29.88
-24.17
-19.93
-17.14
-15.32
-13.85
-12.21
-10.21
-7.95
-5.68
-3.57
-1.72
-0.12
1.29
2.51
3.55
4.40
5.06
5.55
5.77
5.64
5.10
4.21
3.18
2.29
1.74
1.52
1.39
1.01
0.18
-1.06
-2.40
-3.46
-4.00
-4.09
-4.08
-4.40
-5.40
-7.18
-9.57
-12.22
-14.72
-16.71
-17.88
-18.06
-17.17
-15.25
-12.51
-9.30
-6.01
-3.02
-0.56
1.38
2.98
4.58
6.38
8.46
10.79
13.19
15.53
17.72
19.73
21.48
22.81
23.54
23.47
22.58
20.98
19.01
17.02
15.33
14.08
13.20
12.51
11.73
10.73
9.51
8.23
7.07
6.18
5.51
4.88
4.03
2.70
0.70
-2.05
-5.55
-9.71
-14.27
-18.73
-22.43
-24.63
-24.80
-22.79
-18.98
-14.12
-9.13
-4.76
-1.34
1.19
3.18
5.06
7.07
9.24
11.42
13.45
15.21
16.70
17.92
18.88
19.55
19.89
19.96
19.98
20.16
20.61
21.27
21.86
22.05
21.66
20.65
19.23
17.57
15.82
14.00
12.02
9.83
7.46
5.00
2.59
0.33
-1.64
-3.23
-4.35
-5.00
-5.36
-5.77
-6.64
-8.34
-11.02
-14.52
-18.31
-21.65
-23.73
-23.94
-22.01
-18.15
-12.94
-7.17
-1.58
3.38
7.59
11.19
14.41
17.31
19.65
20.96
20.74
18.71
14.97
9.96
4.33
-1.34
-6.68
-11.46
-15.55
-18.66
-20.38
-20.32
-18.40
-15.03
-11.14
-7.89
-6.35
-7.06
-9.99
-14.55
-19.73
-24.31
-27.00
-26.60
-22.34
-14.16
-2.97
9.44
20.88
29.42
34.07
34.97
33.20
30.09
26.65
23.26
19.81
16.27
13.08
11.21
11.65
14.58
18.85
22.08
21.55
15.61
4.76
-8.16
-18.96
-23.65
-20.18
-9.10
6.74
23.38
37.09
45.49
47.83
44.87
38.27
29.97
21.75
14.92
10.26
8.05
8.14
9.89
12.34
14.30
14.65
12.81
9.01
4.33
0.23
-2.13
-2.42
-1.29
0.05
0.45
-0.64
-3.05
-6.17
-9.40
-12.41
-15.23
-18.06
-21.06
-24.22
-27.28
-29.87
-31.55
-31.96
-30.93
-28.58
-25.33
-21.77
-18.44
-15.64
-13.32
-11.20
-8.97
-6.43
-3.65
-0.86
1.63
3.62
5.00
5.84
6.27
6.50
6.78
7.29
8.11
9.17
10.20
10.83
10.76
9.81
8.09
5.89
3.63
1.67
0.23
-0.71
-1.38
-2.06
-3.02
-4.38
-6.08
-7.92
-9.62
-10.97
-11.86
-12.37
-12.73
-13.27
-14.27
-15.86
-17.86
-19.82
-21.10
-21.09
-19.38
-16.02
-11.47
-6.51
-1.99
1.49
3.80
5.23
6.35
7.66
9.43
11.53
13.59
15.22
16.13
16.29
15.82
14.94
13.84
12.68
11.49
10.30
9.10
7.87
6.66
5.57
4.73
4.23
4.07
4.11
4.09
3.76
2.91
1.47
-0.51
-2.82
-5.17
-7.25
-8.82
-9.82
-10.45
-11.07
-12.10
-13.81
-16.24
-19.07
-21.84
-24.02
-25.19
-25.15
-23.95
-21.84
-19.15
-16.23
-13.30
-10.40
-7.41
-4.16
-0.50
3.46
7.40
10.83
13.21
14.24
13.89
12.41
10.30
8.13
6.40
5.52
5.67
6.81
8.66
10.85
13.00
14.83
16.26
17.27
17.84
17.83
16.97
14.96
11.58
6.81
0.84
-5.92
-12.99
-19.84
-25.99
-31.08
-34.92
-37.51
-39.05
-39.90
-40.46
-40.99
-41.58
-42.05
-42.12
-41.46
-39.91
-37.52
-34.53
-31.26
-27.96
-24.67
-21.27
-17.43
-12.85
-7.30
-0.76
6.53
14.07
21.20
27.20
31.49
33.67
33.67
31.77
28.64
25.12
22.10
20.26
19.87
20.77
22.51
24.53
26.41
27.97
29.25
30.36
31.30
31.90
31.89
30.97
28.98
25.95
22.11
17.80
13.33
8.96
4.82
0.96
-2.66
-6.10
-9.39
-12.53
-15.48
-18.12
-20.29
-21.85
-22.65
-22.69
-22.10
-21.15
-20.15
-19.37
-18.95
-18.79
-18.58
-17.91
-16.41
-13.85
-10.24
-5.86
-1.07
3.70
8.15
12.09
15.38
17.93
19.64
20.47
20.48
19.85
18.81
17.56
16.18
14.69
13.14
11.77
11.00
11.26
12.82
15.59
19.12
22.74
25.77
27.69
28.24
27.35
25.08
21.50
16.79
11.16
4.94
-1.46
-7.56
-12.84
-16.81
-19.10
-19.51
-18.11
-15.27
-11.60
-7.80
-4.45
-1.80
0.19
1.78
3.24
4.65
5.94
6.86
7.20
6.83
5.78
4.25
2.44
0.64
-0.90
-2.00
-2.55
-2.60
-2.26
-1.74
-1.18
-0.72
-0.42
-0.34
-0.53
-1.06
-1.90
-2.96
-4.10
-5.21
-6.29
-7.47
-8.97
-10.91
-13.33
-16.04
-18.76
-21.19
-23.01
-23.97
-23.75
-22.15
-19.13
-14.95
-10.25
-5.83
-2.34
-0.07
1.22
2.10
3.13
4.59
6.37
8.12
9.51
10.46
11.20
12.11
13.46
15.24
17.08
18.44
18.80
17.94
16.01
13.44
10.73
8.19
5.90
3.66
1.20
-1.69
-5.04
-8.73
-12.45
-15.78
-18.15
-19.06
-18.15
-15.55
-11.97
-8.60
-6.73
-7.26
-10.34
-15.25
-20.64
-25.09
-27.54
-27.59
-25.45
-21.76
-17.20
-12.42
-7.82
-3.68
-0.15
2.77
5.20
7.32
9.39
11.50
13.61
15.49
16.87
17.58
17.64
17.26
16.74
16.28
15.96
15.70
15.35
14.80
14.03
13.08
12.04
10.99
9.99
9.09
8.31
7.64
7.00
6.24
5.23
3.83
2.07
0.17
-1.61
-3.06
-4.15
-5.15
-6.51
-8.68
-11.88
-15.94
-20.26
-24.05
-26.53
-27.18
-25.95
-23.21
-19.62
-15.87
-12.49
-9.68
-7.31
-5.06
-2.58
0.26
3.34
6.39
9.07
11.20
12.76
13.88
14.71
15.40
16.02
16.61
17.15
17.61
17.97
18.13
18.01
17.52
16.67
15.53
14.32
13.28
12.64
12.45
12.57
12.66
12.30
11.16
9.16
6.47
3.45
0.46
-2.29
-4.78
-7.13
-9.47
-11.90
-14.49
-17.29
-20.38
-23.76
-27.20
-30.28
-32.38
-32.98
-31.87
-29.23
-25.64
-21.75
-18.10
-14.86
-11.93
-9.05
-5.99
-2.72
0.66
3.92
6.85
9.27
11.10
12.42
13.44
14.41
15.56
16.96
18.43
19.70
20.44
20.49
19.81
18.57
16.95
15.13
13.23
11.36
9.59
8.02
6.63
5.35
4.07
2.66
1.02
-0.80
-2.68
-4.47
-6.01
-7.24
-8.23
-9.16
-10.32
-12.06
-14.65
-18.23
-22.60
-27.25
-31.44
-34.33
-35.25
-33.91
-30.48
-25.52
-19.81
-14.12
-8.99
-4.65
-1.05
2.08
5.07
8.16
11.47
14.92
18.34
21.52
24.30
26.56
28.27
29.47
30.20
30.59
30.76
30.86
30.98
31.11
31.16
30.93
30.30
29.27
28.00
26.73
25.63
24.69
23.70
22.38
20.50
18.02
15.12
12.09
9.21
6.63
4.37
2.35
0.54
-1.17
-2.94
-5.08
-8.00
-11.96
-16.83
-22.02
-26.56
-29.45
-30.12
-28.61
-25.62
-22.17
-19.10
-16.93
-15.66
-14.94
-14.35
-13.53
-12.35
-10.85
-9.26
-7.90
-7.07
-6.95
-7.45
-8.32
-9.18
-9.75
-10.00
-10.11
-10.37
-10.99
-11.92
-12.93
-13.68
-13.86
-13.18
-11.38
-8.19
-3.46
2.64
9.48
16.00
20.95
23.28
22.45
18.64
12.61
5.44
-1.93
-8.93
-15.51
-21.99
-28.75
-35.95
-43.34
-50.38
-56.46
-61.18
-64.45
-66.41
-67.11
-66.39
-63.94
-59.46
-53.05
-45.28
-37.13
-29.67
-23.66
-19.46
-16.86
-15.32
-14.10
-12.52
-10.07
-6.40
-1.33
5.28
13.49
23.19
33.96
44.92
54.96
63.02
68.57
71.88
73.90
75.84
78.54
82.08
85.80
88.71
90.04
89.62
87.77
84.96
81.29
76.30
69.19
59.28
46.50
31.55
15.69
0.31
-13.43
-24.78
-33.20
-38.20
-39.34
-36.41
-29.77
-20.59
-10.65
-2.06
3.37
4.43
0.90
-6.61
-16.67
-27.36
-36.57
-42.44
-43.70
-40.01
-32.07
-21.38
-9.87
0.64
8.77
13.79
15.57
14.44
11.05
6.32
1.40
-2.53
-4.47
-3.93
-1.10
3.13
7.52
10.89
12.46
12.11
10.19
7.32
4.11
1.00
-1.71
-3.76
-5.00
-5.44
-5.40
-5.59
-6.94
-10.16
-15.35
-21.80
-28.07
-32.56
-34.16
-32.61
-28.64
-23.53
-18.64
-14.91
-12.69
-11.78
-11.65
-11.63
-11.06
-9.36
-6.16
-1.41
4.58
11.10
17.24
22.12
25.18
26.26
25.68
24.02
21.99
20.22
19.14
18.94
19.65
21.11
23.05
25.11
26.86
27.84
27.59
25.83
22.40
17.41
11.15
4.16
-2.94
-9.49
-14.89
-18.73
-20.79
-21.20
-20.40
-19.09
-18.07
-18.02
-19.26
-21.59
-24.41
-26.92
-28.51
-28.97
-28.56
-27.85
-27.39
-27.50
-28.07
-28.64
-28.56
-27.17
-24.02
-19.04
-12.59
-5.50
1.24
6.63
10.07
11.50
11.43
10.61
9.80
9.54
10.00
11.17
12.90
15.07
17.55
20.24
23.02
25.77
28.45
31.03
33.45
35.40
36.36
35.70
32.96
28.10
21.70
14.82
8.62
4.01
1.28
-0.02
-0.88
-2.49
-5.88
-11.58
-19.51
-28.96
-38.77
-47.54
-53.83
-56.50
-54.87
-48.86
-38.98
-26.13
-11.47
3.77
18.34
31.15
41.37
48.67
53.25
55.81
57.20
57.99
58.33
57.73
55.49
50.87
43.50
33.38
20.96
7.12
-6.91
-19.60
-29.42
-35.22
-36.60
-34.13
-29.22
-23.74
-19.50
-17.77
-18.90
-22.44
-27.31
-32.31
-36.47
-39.34
-41.01
-41.91
-42.62
-43.60
-45.19
-47.60
-50.93
-55.14
-60.03
-65.20
-70.15
-74.31
-77.27
-78.73
-78.55
-76.70
-73.13
-67.81
-60.81
-52.23
-42.38
-31.64
-20.48
-9.37
1.25
10.98
19.46
26.35
31.46
34.79
36.58
37.31
37.55
37.81
38.45
39.60
41.23
43.21
45.41
47.70
50.01
52.22
54.25
55.94
57.17
57.79
57.77
57.10
55.91
54.36
52.60
50.77
48.88
46.84
44.55
41.92
38.95
35.80
32.64
29.56
26.53
23.33
19.62
15.18
9.92
3.98
-2.32
-8.54
-14.21
-18.81
-21.90
-23.20
-22.72
-20.78
-17.98
-14.96
-12.19
-9.87
-7.94
-6.23
-4.58
-2.94
-1.33
0.22
1.74
3.28
4.87
6.43
7.85
9.00
9.85
10.44
10.88
11.26
11.57
11.79
11.82
11.63
11.23
10.70
10.14
9.64
9.28
9.08
8.97
8.82
8.44
7.67
6.46
4.96
3.39
2.05
1.10
0.48
-0.10
-1.06
-2.84
-5.75
-9.88
-14.97
-20.52
-25.81
-30.05
-32.57
-33.00
-31.33
-27.99
-23.64
-19.02
-14.70
-10.94
-7.67
-4.63
-1.56
1.65
4.82
7.65
9.81
11.14
11.72
11.83
11.78
11.82
12.05
12.37
12.67
12.81
12.74
12.47
12.07
11.56
10.91
10.04
8.90
7.47
5.87
4.24
2.73
1.36
0.02
-1.48
-3.30
-5.45
-7.79
-10.05
-11.99
-13.50
-14.62
-15.57
-16.63
-18.09
-20.15
-22.91
-26.21
-29.72
-32.80
-34.72
-34.86
-32.91
-29.04
-23.88
-18.26
-12.97
-8.48
-4.87
-1.93
0.68
3.20
5.71
8.13
10.35
12.26
13.85
15.14
16.17
16.94
17.43
17.63
17.55
17.27
16.83
16.33
15.84
15.41
15.11
14.95
14.87
14.75
14.41
13.67
12.44
10.73
8.65
6.35
3.95
1.56
-0.78
-2.98
-4.96
-6.67
-8.24
-9.97
-12.30
-15.62
-20.14
-25.77
-32.08
-38.40
-44.01
-48.18
-50.35
-50.20
-47.73
-43.35
-37.79
-31.98
-26.73
-22.62
-19.74
-17.87
-16.60
-15.52
-14.29
-12.68
-10.56
-7.84
-4.61
-1.06
2.52
5.81
8.65
11.07
13.20
15.21
17.08
18.67
19.69
19.92
19.32
18.15
16.80
15.63
14.65
13.47
11.30
7.29
0.81
-8.24
-19.40
-31.78
-44.19
-55.27
-63.60
-67.90
-67.35
-62.08
-53.38
-43.50
-34.95
-29.55
-27.73
-28.28
-28.86
-26.90
-20.47
-8.79
7.62
27.24
47.90
67.19
82.80
92.91
96.48
93.49
84.87
72.32
57.93
43.80
31.64
22.55
16.95
14.51
14.42
15.57
16.79
17.18
16.23
13.82
10.20
5.81
1.15
-3.29
-7.13
-10.02
-11.63
-11.64
-9.82
-6.08
-0.57
6.17
13.28
19.60
23.88
25.01
22.27
15.55
5.49
-6.67
-19.19
-30.24
-38.20
-42.01
-41.38
-36.85
-29.64
-21.45
-14.12
-9.29
-8.06
-10.74
-16.73
-24.69
-32.81
-39.30
-42.85
-42.87
-39.53
-33.59
-26.07
-18.00
-10.24
-3.50
1.72
5.08
6.52
6.31
5.05
3.52
2.38
1.94
2.02
2.07
1.40
-0.46
-3.58
-7.59
-11.85
-15.75
-18.81
-20.87
-21.88
-21.92
-21.08
-19.38
-16.84
-13.45
-9.20
-4.10
1.76
8.22
14.94
21.49
27.41
32.30
36.00
38.50
39.98
40.72
40.97
40.92
40.68
40.31
39.85
39.42
39.19
39.43
40.38
42.31
45.39
49.66
55.08
61.43
68.38
75.42
81.83
86.71
89.07
87.98
82.81
73.41
60.20
44.21
26.85
9.62
-6.20
-19.82
-30.96
-39.86
-47.00
-52.91
-57.92
-62.12
-65.31
-67.06
-66.88
-64.35
-59.31
-51.92
-42.68
-32.31
-21.63
-11.33
-1.95
6.32
13.52
19.85
25.60
31.02
36.26
41.26
45.74
49.16
50.82
50.01
46.24
39.40
29.86
18.35
5.80
-6.93
-19.10
-30.16
-39.58
-46.86
-51.44
-52.99
-51.40
-46.98
-40.41
-32.61
-24.59
-17.38
-11.94
-9.08
-9.39
-13.02
-19.54
-27.82
-36.26
-43.09
-46.91
-47.02
-43.58
-37.45
-29.81
-21.81
-14.33
-7.89
-2.69
1.24
4.01
5.89
7.27
8.60
10.23
12.32
14.75
17.21
19.27
20.59
21.02
20.62
19.70
18.69
18.01
17.92
18.48
19.45
20.42
20.90
20.52
19.08
16.68
13.59
10.23
6.94
4.00
1.45
-0.83
-3.09
-5.60
-8.54
-11.87
-15.31
-18.36
-20.40
-20.88
-19.57
-16.63
-12.59
-8.22
-4.16
-0.79
1.92
4.24
6.45
8.71
10.94
12.93
14.45
15.40
15.83
15.93
15.91
15.96
16.21
16.69
17.31
17.90
18.25
18.16
17.59
16.59
15.38
14.18
13.12
12.15
11.09
9.73
7.97
5.88
3.70
1.70
0.05
-1.27
-2.40
-3.56
-4.95
-6.70
-8.97
-11.87
-15.38
-19.31
-23.09
-25.95
-27.14
-26.27
-23.47
-19.37
-14.80
-10.45
-6.66
-3.39
-0.50
2.04
4.06
5.31
5.69
5.34
4.70
4.27
4.43
5.26
6.60
8.13
9.52
10.51
10.93
10.71
9.90
8.67
7.24
5.86
4.65
3.58
2.59
1.64
0.81
0.30
0.29
0.78
1.59
2.33
2.67
2.39
1.55
0.44
-0.57
-1.21
-1.46
-1.65
-2.27
-3.90
-6.85
-11.13
-16.39
-22.02
-27.30
-31.52
-34.10
-34.68
-33.21
-29.96
-25.49
-20.54
-15.78
-11.64
-8.24
-5.45
-3.09
-1.05
0.62
1.78
2.31
2.26
1.84
1.35
1.07
1.15
1.55
2.10
2.61
2.97
3.22
3.52
4.00
4.68
5.40
5.91
5.99
5.60
4.91
4.27
4.03
4.39
5.25
6.24
6.82
6.48
4.93
2.25
-1.13
-4.56
-7.41
-9.33
-10.35
-10.84
-11.45
-12.79
-15.22
-18.71
-22.72
-26.42
-28.82
-29.21
-27.32
-23.51
-18.58
-13.53
-9.18
-5.96
-3.85
-2.46
-1.33
-0.06
1.52
3.32
5.12
6.60
7.55
7.85
7.60
7.06
6.60
6.56
7.18
8.45
10.19
12.07
13.73
14.91
15.56
15.79
15.80
15.73
15.62
15.41
14.90
13.97
12.54
10.67
8.45
5.99
3.40
0.72
-1.95
-4.52
-6.89
-8.96
-10.71
-12.14
-13.28
-14.19
-14.90
-15.47
-16.00
-16.67
-17.68
-19.26
-21.49
-24.18
-26.86
-28.88
-29.62
-28.66
-26.02
-22.10
-17.56
-13.12
-9.30
-6.32
-4.10
-2.42
-1.05
0.13
1.09
1.76
2.03
1.89
1.44
0.83
0.25
-0.12
-0.18
0.12
0.69
1.35
1.82
1.85
1.26
0.02
-1.72
-3.65
-5.32
-6.25
-6.02
-4.38
-1.39
2.66
7.23
11.76
15.77
18.98
21.31
22.72
23.18
22.65
21.06
18.44
14.96
10.90
6.65
2.56
-1.13
-4.40
-7.41
-10.49
-13.96
-17.93
-22.17
-26.16
-29.15
-30.49
-29.78
-27.01
-22.52
-16.93
-10.96
-5.32
-0.63
2.68
4.48
4.96
4.60
3.99
3.64
3.74
4.22
4.81
5.30
5.68
6.15
7.01
8.43
10.39
12.71
15.15
17.57
19.86
21.96
23.75
25.00
25.50
25.15
24.04
22.44
20.65
18.92
17.38
16.04
14.88
13.83
12.88
11.97
11.02
9.95
8.75
7.45
6.17
4.97
3.81
2.50
0.79
-1.47
-4.24
-7.14
-9.64
-11.15
-11.28
-9.98
-7.46
-4.14
-0.48
3.12
6.33
8.91
10.71
11.67
11.89
11.63
11.21
10.90
10.83
10.94
11.12
11.23
11.21
11.11
11.02
10.99
11.05
11.23
11.62
12.30
13.33
14.63
15.99
17.10
17.73
17.81
17.47
16.95
16.47
16.14
15.92
15.70
15.32
14.66
13.57
11.97
9.77
7.06
3.99
0.85
-2.08
-4.66
-6.93
-9.16
-11.63
-14.57
-17.90
-21.24
-23.93
-25.31
-24.90
-22.70
-19.17
-15.14
-11.47
-8.79
-7.32
-6.90
-7.14
-7.68
-8.24
-8.67
-8.89
-8.82
-8.39
-7.57
-6.36
-4.83
-3.05
-1.13
0.75
2.37
3.38
3.53
2.71
1.02
-1.24
-3.68
-5.93
-7.72
-8.85
-9.23
-8.85
-7.89
-6.70
-5.84
-5.89
-7.24
-9.99
-13.81
-18.22
-22.75
-27.15
-31.47
-35.87
-40.41
-44.78
-48.34
-50.29
-49.99
-47.33
-42.78
-37.31
-31.99
-27.64
-24.59
-22.61
-21.17
-19.67
-17.62
-14.77
-11.10
-6.73
-1.91
3.07
7.88
12.20
15.72
18.23
19.60
19.86
19.16
17.77
16.01
14.15
12.37
10.72
9.20
7.82
6.61
5.63
4.90
4.39
3.98
3.56
3.03
2.38
1.57
0.53
-0.81
-2.60
-4.92
-7.80
-11.15
-14.89
-18.86
-22.90
-26.75
-29.97
-32.01
-32.32
-30.57
-26.80
-21.53
-15.57
-9.77
-4.72
-0.58
2.83
5.82
8.59
11.14
13.23
14.58
15.07
14.80
14.09
13.36
12.96
13.16
14.03
15.50
17.36
19.38
21.28
22.90
24.15
25.02
25.53
25.75
25.72
25.52
25.26
24.98
24.59
23.86
22.49
20.26
17.12
13.32
9.29
5.55
2.52
0.39
-0.95
-1.75
-2.44
-3.43
-5.06
-7.55
-10.96
-15.11
-19.62
-23.87
-27.13
-28.66
-27.97
-24.95
-20.01
-13.93
-7.68
-2.11
2.28
5.33
7.17
8.03
8.18
7.83
7.23
6.64
6.36
6.64
7.67
9.48
11.94
14.75
17.49
19.74
21.23
21.97
22.29
22.62
23.32
24.44
25.60
26.16
25.54
23.52
20.31
16.50
12.77
9.64
7.33
5.81
4.89
4.36
4.01
3.55
2.64
0.89
-2.02
-6.12
-11.04
-16.16
-20.77
-24.40
-26.96
-28.76
-30.25
-31.74
-33.17
-34.06
-33.78
-31.68
-27.49
-21.37
-13.91
-5.96
1.61
8.10
13.20
16.91
19.59
21.64
23.49
25.34
27.27
29.24
31.17
32.97
34.56
35.86
36.77
37.24
37.29
37.00
36.48
35.73
34.69
33.19
31.08
28.29
24.97
21.41
17.98
14.98
12.55
10.56
8.78
6.93
4.83
2.50
0.10
-2.11
-3.90
-5.17
-6.06
-6.88
-8.06
-10.05
-13.17
-17.43
-22.41
-27.31
-31.14
-33.04
-32.60
-30.02
-26.03
-21.51
-17.22
-13.50
-10.23
-7.15
-4.05
-1.03
1.46
2.78
2.34
-0.17
-4.60
-10.29
-16.13
-20.81
-23.15
-22.45
-18.72
-12.66
-5.49
1.39
6.80
9.95
10.58
9.00
5.89
2.22
-1.11
-3.37
-4.28
-3.88
-2.55
-0.75
1.04
2.45
3.20
3.18
2.37
0.96
-0.83
-2.76
-4.75
-6.88
-9.34
-12.33
-15.87
-19.77
-23.66
-27.12
-29.71
-31.11
-31.07
-29.50
-26.49
-22.36
-17.72
-13.33
-9.96
-8.10
-7.84
-8.77
-10.22
-11.46
-11.94
-11.40
-9.83
-7.28
-3.81
0.59
5.93
12.17
19.13
26.64
34.55
42.70
50.98
59.18
67.07
74.46
81.32
87.80
94.11
100.42
106.66
112.59
117.88
122.31
125.84
128.51
130.41
131.55
131.91
131.45
130.12
127.87
124.51
119.71
113.06
104.25
93.20
80.14
65.57
50.15
34.54
19.34
4.94
-8.38
-20.57
-31.72
-42.00
-51.61
-60.67
-69.22
-77.22
-84.58
-91.14
-96.67
-100.91
-103.59
-104.56
-103.87
-101.80
-98.87
-95.64
-92.66
-90.27
-88.64
-87.79
-87.58
-87.77
-88.05
-88.15
-87.86
-87.15
-86.22
-85.38
-84.85
-84.60
-84.32
-83.37
-81.16
-77.26
-71.65
-64.63
-56.76
-48.59
-40.57
-32.99
-26.00
-19.74
-14.30
-9.80
-6.31
-3.84
-2.36
-1.75
-1.90
-2.60
-3.59
-4.50
-5.03
-4.90
-4.12
-2.82
-1.28
0.16
1.27
1.90
2.06
1.87
1.51
1.17
0.96
0.90
0.83
0.53
-0.28
-1.75
-3.92
-6.64
-9.71
-12.99
-16.41
-19.98
-23.70
-27.43
-30.81
-33.38
-34.58
-33.99
-31.44
-27.04
-21.24
-14.67
-8.03
-1.91
3.31
7.55
11.03
14.18
17.42
21.00
24.93
28.89
32.42
35.05
36.49
36.77
36.14
35.04
33.86
32.86
32.04
31.20
30.10
28.57
26.62
24.33
21.89
19.34
16.71
13.96
11.17
8.53
6.28
4.62
3.50
2.65
1.67
0.21
-1.95
-4.87
-8.46
-12.58
-17.05
-21.57
-25.72
-28.93
-30.63
-30.44
-28.29
-24.48
-19.62
-14.44
-9.55
-5.28
-1.61
1.72
4.99
8.32
11.58
14.47
16.70
18.18
19.03
19.58
20.08
20.65
21.21
21.60
21.74
21.69
21.57
21.44
21.24
20.78
19.82
18.28
16.25
14.01
11.95
10.40
9.44
8.93
8.55
7.91
6.76
5.03
2.92
0.76
-1.08
-2.40
-3.20
-3.73
-4.35
-5.47
-7.42
-10.28
-13.88
-17.74
-21.13
-23.28
-23.63
-21.98
-18.63
-14.21
-9.47
-5.08
-1.38
1.56
3.83
5.59
6.93
7.90
8.57
9.08
9.64
10.46
11.64
13.17
14.89
16.53
17.84
18.66
18.97
18.86
18.53
18.18
17.94
17.83
17.73
17.42
16.71
15.48
13.76
11.70
9.55
7.49
5.64
4.04
2.66
1.47
0.44
-0.43
-1.20
-1.94
-2.74
-3.70
-4.91
-6.42
-8.29
-10.59
-13.35
-16.53
-19.97
-23.36
-26.25
-28.19
-28.77
-27.83
-25.43
-21.95
-17.93
-13.90
-10.22
-7.03
-4.23
-1.66
0.78
3.07
5.10
6.81
8.18
9.33
10.40
11.44
12.39
13.11
13.46
13.46
13.21
12.87
12.55
12.25
11.85
11.19
10.18
8.80
7.17
5.42
3.73
2.21
0.92
-0.14
-1.06
-1.95
-2.97
-4.23
-5.77
-7.54
-9.36
-11.06
-12.43
-13.30
-13.58
-13.27
-12.49
-11.50
-10.72
-10.65
-11.67
-13.92
-17.12
-20.63
-23.57
-25.14
-24.81
-22.47
-18.45
-13.24
-7.49
-1.74
3.56
8.16
12.04
15.29
18.12
20.65
22.83
24.45
25.29
25.23
24.40
23.19
22.07
21.43
21.44
22.09
23.20
24.49
25.66
26.43
26.57
25.96
24.65
22.82
20.72
18.65
16.84
15.46
14.49
13.83
13.27
12.53
11.39
9.73
7.64
5.41
3.39
1.90
1.09
0.94
1.11
1.13
0.44
-1.38
-4.38
-8.21
-12.16
-15.37
-17.06
-16.82
-14.71
-11.18
-6.93
-2.65
1.14
4.20
6.55
8.37
9.90
11.34
12.79
14.28
15.83
17.45
19.12
20.73
22.13
23.12
23.63
23.74
23.70
23.80
24.16
24.72
25.17
25.09
24.13
22.16
19.35
16.08
12.88
10.14
8.08
6.65
5.58
4.55
3.34
1.80
-0.05
-2.17
-4.48
-6.88
-9.28
-11.57
-13.70
-15.75
-17.97
-20.65
-23.95
-27.79
-31.73
-35.12
-37.29
-37.73
-36.33
-33.36
-29.44
-25.28
-21.44
-18.26
-15.65
-13.34
-10.99
-8.37
-5.50
-2.55
0.16
2.43
4.17
5.47
6.52
7.53
8.69
10.09
11.71
13.44
15.10
16.44
17.10
16.61
14.53
10.46
4.28
-3.80
-13.13
-22.87
-32.09
-40.05
-46.22
-50.31
-52.21
-51.89
-49.51
-45.41
-40.21
-34.76
-30.04
-26.89
-25.78
-26.74
-29.34
-32.86
-36.51
-39.70
-42.14
-43.85
-45.10
-46.16
-47.24
-48.28
-49.07
-49.32
-48.66
-46.78
-43.40
-38.32
-31.52
-23.27
-14.12
-4.88
3.61
10.65
15.81
19.07
20.70
21.13
20.90
20.54
20.44
20.93
22.13
23.99
26.28
28.63
30.61
31.88
32.19
31.52
30.05
28.11
26.18
24.66
23.87
23.84
24.36
25.04
25.42
25.07
23.76
21.47
18.35
14.66
10.70
6.70
2.82
-0.88
-4.45
-7.94
-11.40
-14.80
-18.03
-20.94
-23.29
-24.92
-25.65
-25.42
-24.31
-22.54
-20.41
-18.29
-16.42
-14.83
-13.34
-11.66
-9.56
-7.01
-4.14
-1.22
1.51
3.97
6.15
8.20
10.18
12.20
14.23
16.28
18.29
20.21
21.97
23.45
24.59
25.31
25.57
25.26
24.33
22.81
20.85
18.73
16.74
15.03
13.51
11.94
10.06
7.73
5.06
2.30
-0.27
-2.47
-4.26
-5.73
-7.02
-8.35
-9.96
-12.07
-14.82
-18.08
-21.50
-24.45
-26.22
-26.25
-24.26
-20.41
-15.22
-9.42
-3.79
1.07
4.77
7.27
8.64
9.09
8.81
8.05
7.06
6.12
5.49
5.28
5.51
6.04
6.74
7.46
8.12
8.71
9.20
9.63
10.04
10.48
10.96
11.49
11.99
12.42
12.71
12.88
12.96
12.94
12.79
12.39
11.67
10.57
9.17
7.66
6.21
4.99
4.03
3.27
2.42
1.14
-0.86
-3.80
-7.60
-11.91
-16.17
-19.70
-21.91
-22.44
-21.29
-18.75
-15.41
-11.91
-8.76
-6.20
-4.20
-2.49
-0.75
1.23
3.41
5.54
7.26
8.28
8.44
7.83
6.71
5.45
4.42
3.90
3.97
4.58
5.56
6.69
7.77
8.68
9.38
9.91
10.35
10.77
11.25
11.79
12.41
13.04
13.64
14.14
14.49
14.69
14.74
14.72
14.67
14.64
14.48
13.86
12.36
9.60
5.41
0.05
-5.85
-11.41
-15.78
-18.34
-18.84
-17.45
-14.69
-11.20
-7.65
-4.58
-2.31
-0.93
-0.36
-0.39
-0.81
-1.38
-1.89
-2.08
-1.75
-0.73
1.00
3.29
5.86
8.32
10.32
11.59
11.95
11.33
9.83
7.63
5.03
2.40
0.08
-1.65
-2.62
-2.80
-2.29
-1.28
-0.05
1.13
2.04
2.61
2.83
2.84
2.71
2.44
1.95
1.08
-0.34
-2.47
-5.43
-9.25
-13.74
-18.42
-22.56
-25.30
-25.94
-24.22
-20.44
-15.36
-9.91
-4.84
-0.62
2.69
5.21
7.18
8.79
10.15
11.34
12.33
13.13
13.66
13.93
13.96
13.81
13.57
13.29
12.98
12.59
12.05
11.33
10.47
9.57
8.72
7.97
7.21
6.25
4.85
2.92
0.61
-1.62
-3.25
-3.81
-3.23
-1.83
-0.26
0.78
0.80
-0.29
-2.23
-4.53
-6.71
-8.50
-9.83
-10.84
-11.76
-12.83
-14.18
-15.79
-17.47
-18.84
-19.46
-18.90
-16.92
-13.64
-9.51
-5.19
-1.37
1.54
3.52
4.89
6.13
7.63
9.56
11.80
14.10
16.21
18.04
19.66
21.17
22.69
24.22
25.66
26.87
27.63
27.78
27.17
25.76
23.56
20.70
17.40
13.94
10.63
7.85
5.86
4.87
4.85
5.54
6.50
7.26
7.45
6.95
5.96
4.73
3.60
2.72
2.05
1.39
0.45
-1.08
-3.43
-6.70
-10.87
-15.70
-20.77
-25.48
-29.20
-31.36
-31.65
-30.13
-27.21
-23.52
-19.65
-16.01
-12.75
-9.80
-7.07
-4.54
-2.38
-0.75
0.24
0.66
0.71
0.67
0.78
1.21
2.03
3.23
4.75
6.41
8.02
9.39
10.38
10.94
11.10
10.91
10.38
9.56
8.49
7.28
6.07
5.00
4.16
3.61
3.34
3.27
3.26
3.10
2.60
1.67
0.38
-1.01
-2.23
-3.12
-3.76
-4.42
-5.47
-7.10
-9.40
-12.27
-15.55
-19.08
-22.68
-26.02
-28.66
-30.12
-30.06
-28.40
-25.45
-21.71
-17.86
-14.40
-11.62
-9.56
-8.13
-7.20
-6.62
-6.28
-6.05
-5.78
-5.32
-4.50
-3.30
-1.75
0.03
1.88
3.65
5.19
6.41
7.25
7.68
7.77
7.61
7.39
7.33
7.59
8.27
9.32
10.63
12.04
13.35
14.43
15.13
15.34
14.98
14.03
12.54
10.59
8.30
5.82
3.24
0.71
-1.67
-3.80
-5.66
-7.33
-8.93
-10.68
-12.75
-15.32
-18.48
-22.20
-26.30
-30.36
-33.78
-35.95
-36.41
-35.10
-32.33
-28.70
-24.83
-21.16
-17.82
-14.67
-11.50
-8.14
-4.59
-1.02
2.34
5.29
7.72
9.70
11.34
12.80
14.18
15.51
16.72
17.70
18.37
18.69
18.64
18.29
17.74
17.14
16.66
16.46
16.61
17.09
17.72
18.26
18.50
18.27
17.57
16.51
15.24
13.92
12.63
11.35
9.99
8.46
6.70
4.77
2.79
0.89
-0.80
-2.23
-3.48
-4.71
-6.09
-7.84
-10.15
-13.14
-16.84
-21.09
-25.52
-29.57
-32.58
-34.01
-33.59
-31.44
-28.02
-23.97
-19.92
-16.30
-13.30
-10.84
-8.77
-6.90
-5.08
-3.22
-1.31
0.62
2.47
4.10
5.47
6.61
7.75
9.15
10.98
13.22
15.60
17.76
19.39
20.37
20.85
21.07
21.29
21.70
22.29
22.99
23.71
24.34
24.79
25.00
24.95
24.65
24.15
23.52
22.78
21.93
20.91
19.69
18.26
16.70
15.11
13.55
12.06
10.59
9.05
7.34
5.35
2.94
-0.03
-3.68
-8.02
-12.81
-17.57
-21.65
-24.42
-25.52
-25.00
-23.28
-20.95
-18.60
-16.58
-15.02
-13.83
-12.89
-12.11
-11.42
-10.81
-10.23
-9.61
-8.95
-8.23
-7.51
-6.84
-6.21
-5.55
-4.75
-3.73
-2.47
-1.04
0.40
1.64
2.50
2.86
2.70
2.15
1.42
0.77
0.43
0.56
1.18
2.24
3.54
4.86
5.95
6.58
6.53
5.71
4.15
1.99
-0.50
-3.02
-5.32
-7.24
-8.73
-9.89
-10.89
-11.92
-13.23
-15.01
-17.31
-19.95
-22.49
-24.37
-25.02
-24.17
-21.82
-18.42
-14.47
-10.48
-6.76
-3.42
-0.53
1.91
3.86
5.29
6.19
6.67
6.84
6.89
6.92
7.06
7.35
7.79
8.28
8.67
8.78
8.46
7.69
6.61
5.44
4.46
3.88
3.83
4.31
5.14
6.09
6.87
7.28
7.26
6.84
6.15
5.30
4.32
3.14
1.62
-0.28
-2.49
-4.82
-6.99
-8.74
-9.92
-10.48
-10.55
-10.37
-10.26
-10.57
-11.60
-13.42
-15.93
-18.79
-21.50
-23.59
-24.73
-24.76
-23.73
-21.80
-19.20
-16.15
-12.90
-9.64
-6.56
-3.81
-1.40
0.71
2.64
4.51
6.45
8.50
10.68
12.97
15.23
17.29
18.90
19.79
19.81
19.05
17.80
16.46
15.38
14.71
14.39
14.20
13.88
13.31
12.51
11.59
10.69
9.92
9.36
9.01
8.83
8.72
8.49
7.95
6.95
5.51
3.74
1.92
0.34
-0.83
-1.54
-1.94
-2.35
-3.08
-4.40
-6.45
-9.22
-12.50
-15.99
-19.26
-21.89
-23.49
-23.85
-22.97
-21.05
-18.49
-15.70
-13.01
-10.52
-8.23
-5.99
-3.71
-1.36
0.98
3.17
5.11
6.73
8.07
9.18
10.13
10.90
11.47
11.77
11.81
11.58
11.13
10.50
9.72
8.82
7.88
7.01
6.34
5.97
5.89
5.98
6.08
6.09
6.04
6.10
6.58
7.74
9.74
12.54
15.99
19.91
24.22
28.98
34.31
40.19
46.18
51.31
54.21
53.47
48.12
37.96
23.70
6.80
-10.86
-27.36
-41.03
-50.63
-55.50
-55.72
-52.17
-46.37
-40.17
-35.18
-32.39
-31.85
-32.84
-34.24
-35.00
-34.45
-32.46
-29.31
-25.67
-22.32
-20.04
-19.45
-20.79
-23.88
-28.05
-32.30
-35.56
-36.94
-35.98
-32.70
-27.62
-21.61
-15.60
-10.34
-6.21
-3.11
-0.64
1.70
4.25
7.06
9.96
12.72
15.16
17.28
19.28
21.47
24.13
27.41
31.22
35.23
38.94
41.78
43.34
43.50
42.44
40.61
38.62
37.04
36.27
36.46
37.41
38.61
39.33
38.83
36.50
32.11
25.74
17.83
9.01
0.07
-8.21
-15.16
-20.39
-23.94
-26.38
-28.62
-31.62
-35.87
-41.16
-46.51
-50.47
-51.58
-48.96
-42.51
-33.07
-22.10
-11.31
-2.19
4.24
7.69
8.44
7.21
4.84
2.14
-0.20
-1.65
-1.85
-0.71
1.58
4.49
7.29
9.25
9.91
9.14
7.18
4.46
1.52
-1.12
-2.96
-3.61
-2.82
-0.59
2.80
6.84
10.87
14.33
16.82
18.18
18.40
17.61
16.04
13.96
11.70
9.65
8.14
7.40
7.54
8.51
10.23
12.53
15.16
17.82
20.11
21.68
22.29
21.98
21.04
19.91
19.00
18.48
18.26
18.04
17.53
16.47
14.83
12.75
10.52
8.43
6.75
5.60
4.89
4.37
3.65
2.31
0.01
-3.41
-7.83
-12.83
-17.76
-21.84
-24.35
-24.85
-23.27
-19.94
-15.47
-10.55
-5.73
-1.36
2.37
5.42
7.82
9.66
11.06
12.21
13.33
14.59
16.01
17.40
18.50
19.01
18.75
17.78
16.33
14.75
13.42
12.62
12.53
13.10
14.11
15.08
15.40
14.44
11.82
7.53
2.03
-3.98
-9.74
-14.76
-18.88
-22.22
-24.92
-27.08
-28.72
-29.90
-30.84
-31.92
-33.50
-35.69
-38.18
-40.27
-41.22
-40.52
-38.15
-34.59
-30.55
-26.72
-23.43
-20.68
-18.19
-15.57
-12.57
-9.17
-5.46
-1.66
2.12
5.85
9.59
13.43
17.30
20.98
24.14
26.42
27.64
27.83
27.23
26.18
24.97
23.76
22.63
21.55
20.50
19.43
18.28
16.94
15.28
13.18
10.62
7.70
4.69
1.86
-0.59
-2.68
-4.65
-6.87
-9.65
-13.15
-17.30
-21.82
-26.35
-30.39
-33.44
-34.99
-34.67
-32.40
-28.45
-23.42
-18.04
-12.88
-8.25
-4.16
-0.43
3.13
6.56
9.83
12.74
15.13
16.85
17.86
18.24
18.24
18.16
18.28
18.81
19.74
20.90
22.03
22.88
23.25
23.04
22.24
20.88
19.03
16.73
14.07
11.15
8.11
5.14
2.44
0.14
-1.78
-3.47
-5.15
-6.98
-9.01
-11.16
-13.34
-15.47
-17.65
-20.04
-22.86
-26.26
-30.19
-34.42
-38.49
-41.84
-43.94
-44.46
-43.40
-41.11
-38.16
-35.22
-32.84
-31.24
-30.40
-30.09
-30.03
-30.01
-30.01
-30.15
-30.71
-32.02
-34.35
-37.76
-42.08
-46.87
-51.66
-56.06
-59.76
-62.50
-63.92
-63.52
-60.88
-55.83
-48.72
-40.26
-31.36
-22.83
-15.29
-9.14
-4.65
-1.89
-0.47
0.75
3.80
11.15
25.03
46.39
74.48
106.85
140.02
170.32
194.67
210.99
218.33
216.85
207.75
193.16
175.77
158.44
143.50
132.35
125.22
121.29
119.04
116.63
112.20
104.25
92.02
75.82
57.08
37.96
20.57
6.08
-5.61
-15.51
-24.67
-33.21
-40.03
-43.43
-42.06
-35.79
-25.86
-14.36
-3.33
5.81
12.34
16.03
16.98
15.71
13.28
11.29
11.26
14.00
18.92
24.22
27.77
28.11
25.06
19.60
13.09
6.29
-1.23
-11.08
-25.48
-46.31
-74.29
-108.25
-145.03
-179.94
-207.85
-224.81
-229.26
-222.53
-208.22
-190.70
-173.42
-157.75
-142.79
-125.98
-104.24
-75.15
-38.05
5.08
49.38
87.86
113.14
119.83
106.74
77.74
40.56
4.11
-24.63
-42.59
-50.61
-51.79
-49.18
-44.29
-37.11
-27.28
-15.36
-3.32
6.21
11.26
11.60
8.84
5.38
3.06
2.32
2.39
2.13
1.10
-0.15
-0.50
0.84
3.63
6.63
8.17
7.21
3.80
-0.94
-5.42
-8.36
-9.31
-8.68
-7.48
-6.92
-8.04
-11.63
-18.06
-27.07
-37.51
-47.21
-53.45
-53.80
-47.30
-35.06
-20.07
-6.14
3.58
7.62
6.53
2.14
-3.37
-8.41
-12.35
-15.30
-17.82
-20.62
-24.41
-29.82
-37.08
-45.84
-55.07
-63.43
-69.99
-74.72
-78.72
-83.83
-91.74
-103.16
-117.47
-132.53
-145.20
-151.92
-149.74
-137.72
-118.56
-99.18
-89.58
-99.35
-133.21
-187.69
-251.13
-307.54
-342.60
-348.99
-328.43
-289.66
-243.91
-200.12
-162.65
-131.48
-104.41
-79.14
-54.07
-27.74
2.16
38.87
85.03
140.01
198.21
249.75
283.68
293.03
278.41
248.37
215.82
192.42
183.89
188.71
200.61
212.80
221.61
227.46
233.27
241.79
253.62
267.07
279.39
288.31
292.99
294.10
292.98
290.72
287.48
282.56
274.90
263.88
249.81
234.06
218.57
205.10
194.62
187.16
182.04
178.34
175.35
172.71
170.40
168.54
167.22
166.47
