1520264030.00
64.000000
-0.00
-0.00
-0.00
-0.00
-0.00
-0.00
-0.00
-0.00
-0.00
-0.00
0.00
0.01
0.01
-0.00
-0.03
-0.05
-0.05
0.00
0.13
0.36
0.66
1.01
1.37
1.72
2.06
2.40
2.79
3.24
3.80
4.42
5.06
5.66
6.20
6.68
7.15
7.68
8.31
9.14
10.09
11.04
11.88
12.56
13.14
13.76
14.65
15.96
17.91
20.32
22.90
25.38
27.58
29.57
31.68
34.32
37.81
42.54
48.15
54.10
59.83
64.97
69.58
74.14
79.34
85.71
93.76
103.00
112.62
121.73
129.77
136.75
143.30
150.75
157.77
166.64
177.95
191.79
206.97
220.57
228.25
225.36
208.53
176.87
132.76
80.05
23.07
-34.94
-92.44
-149.16
-205.23
-260.37
-313.74
-363.87
-409.83
-450.91
-486.50
-515.74
-537.23
-549.22
-549.96
-538.37
-514.21
-478.67
-433.88
-382.45
-327.02
-269.84
-212.63
-156.66
-102.95
-52.37
-5.90
35.58
71.43
101.35
125.50
144.38
158.69
169.15
176.37
180.75
182.57
182.07
179.51
175.23
169.65
163.18
156.15
148.81
141.30
133.69
126.02
118.33
110.69
103.16
95.80
88.68
81.83
75.25
68.95
62.95
57.25
51.86
46.78
42.03
37.59
33.45
29.61
26.07
22.81
19.83
17.11
14.67
12.48
10.54
8.83
7.35
6.07
4.97
4.05
3.27
2.62
2.09
1.65
1.30
1.01
0.79
0.61
0.47
0.37
0.29
0.23
0.19
0.16
0.14
0.14
0.15
0.16
0.18
0.21
0.24
0.28
0.32
0.36
0.40
0.45
0.50
0.54
0.59
0.65
0.70
0.76
0.83
0.90
0.97
1.06
1.15
1.26
1.38
1.51
1.66
1.83
2.01
2.22
2.45
2.70
2.98
3.29
3.63
4.00
4.40
4.85
5.32
5.83
6.39
6.98
7.61
8.29
9.01
9.78
10.59
11.46
12.35
13.30
14.30
15.37
16.50
17.70
18.94
20.21
21.48
22.67
23.69
24.46
24.83
24.68
23.93
22.47
20.29
17.40
13.87
9.81
5.40
0.85
-3.62
-7.80
-11.49
-14.54
-16.87
-18.45
-19.35
-19.60
-19.34
-18.67
-17.67
-16.43
-15.02
-13.49
-11.93
-10.38
-8.85
-7.40
-6.00
-4.61
-3.17
-1.61
0.06
1.81
3.60
5.43
7.18
8.84
10.52
12.33
14.33
16.52
18.78
20.99
23.10
24.88
26.38
27.86
29.59
31.77
34.37
37.14
39.72
41.95
43.36
44.06
44.49
45.15
46.41
48.20
50.09
51.41
51.74
50.34
47.22
42.78
37.53
31.58
24.38
14.55
-0.32
-18.35
-39.83
-65.15
-94.11
-125.40
-156.12
-182.18
-199.29
-204.40
-196.83
-179.27
-155.95
-131.29
-108.53
-89.13
-73.11
-59.90
-48.98
-40.10
-33.55
-29.08
-25.87
-22.86
-19.29
-14.98
-10.45
-6.59
-4.18
-3.83
-5.31
-7.76
-9.94
-10.68
-9.24
-5.44
0.29
7.19
14.26
20.73
26.20
30.63
34.17
37.02
39.22
40.69
41.28
40.87
39.60
37.81
35.93
34.32
33.17
32.41
31.87
31.36
30.77
30.14
29.55
29.04
28.51
27.71
26.40
24.37
21.60
18.25
14.62
10.96
7.47
4.22
1.18
-1.74
-4.70
-7.91
-11.56
-15.67
-20.00
-23.93
-26.66
-27.44
-25.85
-21.99
-16.45
-10.09
-3.84
1.59
5.84
8.90
11.04
12.64
13.98
15.15
16.08
16.57
16.56
16.15
15.62
15.25
15.20
15.40
15.63
15.71
15.55
15.20
14.68
13.95
12.83
11.12
8.78
5.95
2.99
0.22
-2.14
-4.19
-6.23
-8.64
-11.74
-15.59
-19.96
-24.27
-27.80
-29.75
-29.59
-27.19
-22.85
-17.28
-11.28
-5.58
-0.61
3.48
6.73
9.25
11.12
12.46
13.37
14.00
14.49
14.93
15.28
15.47
15.39
15.01
14.40
13.65
12.89
12.23
11.72
11.34
10.99
10.50
9.70
8.42
6.59
4.31
1.78
-0.75
-3.10
-5.24
-7.29
-9.54
-12.21
-15.43
-19.12
-22.97
-26.49
-29.10
-30.22
-29.45
-26.63
-22.00
-16.09
-9.64
-3.44
1.95
6.32
9.80
12.69
15.25
17.58
19.55
20.95
21.69
21.85
21.70
21.49
21.36
21.22
20.84
20.00
18.67
17.09
15.59
14.43
13.63
12.87
11.71
9.78
7.01
3.69
0.34
-2.52
-4.69
-6.28
-7.73
-9.55
-12.10
-15.45
-19.37
-23.37
-26.81
-29.05
-29.64
-28.40
-25.47
-21.29
-16.39
-11.28
-6.28
-1.57
2.73
6.58
9.83
12.43
14.35
15.67
16.47
16.88
16.96
16.76
16.37
15.90
15.47
15.17
14.97
14.80
14.52
14.07
13.41
12.60
11.72
10.78
9.76
8.55
7.02
5.10
2.83
0.35
-2.11
-4.35
-6.27
-7.91
-9.46
-11.16
-13.27
-15.95
-19.23
-22.90
-26.48
-29.34
-30.77
-30.24
-27.59
-23.15
-17.58
-11.71
-6.26
-1.67
1.98
4.84
7.14
9.12
10.93
12.66
14.33
15.87
17.20
18.18
18.78
19.04
19.11
19.17
19.35
19.64
19.95
20.10
19.91
19.33
18.39
17.22
15.93
14.56
13.08
11.40
9.45
7.22
4.81
2.31
-0.15
-2.58
-4.96
-7.31
-9.60
-11.73
-13.70
-15.60
-17.71
-20.33
-23.60
-27.33
-30.90
-33.43
-34.08
-32.34
-28.27
-22.39
-15.59
-8.78
-2.64
2.46
6.49
9.59
12.03
14.04
15.72
17.07
18.05
18.60
18.75
18.54
18.05
17.30
16.33
15.18
13.91
12.65
11.57
10.79
10.31
10.01
9.74
9.29
8.55
7.46
6.05
4.36
2.49
0.47
-1.68
-4.01
-6.53
-9.22
-11.97
-14.63
-17.07
-19.18
-20.98
-22.55
-24.04
-25.65
-27.48
-29.58
-31.79
-33.71
-34.77
-34.41
-32.17
-28.00
-22.29
-15.76
-9.23
-3.37
1.45
5.24
8.14
10.39
12.15
13.55
14.68
15.68
16.67
17.67
18.64
19.42
19.91
20.12
20.25
20.64
21.66
23.57
26.46
30.18
34.26
37.98
40.41
40.61
37.90
32.06
23.33
12.38
-0.01
-13.08
-26.14
-38.57
-49.63
-58.57
-64.74
-67.77
-67.78
-65.37
-61.53
-57.35
-53.78
-51.39
-50.27
-50.02
-49.94
-49.28
-47.42
-44.08
-39.35
-33.59
-27.30
-21.02
-15.23
-10.24
-6.19
-2.94
-0.11
2.71
5.88
9.42
13.10
16.52
19.34
21.44
22.96
24.17
25.29
26.35
27.25
27.78
27.85
27.44
26.65
25.56
24.15
22.36
20.09
17.33
14.18
10.81
7.44
4.27
1.46
-0.94
-2.89
-4.44
-5.67
-6.74
-7.84
-9.21
-11.09
-13.54
-16.35
-19.00
-20.68
-20.61
-18.41
-14.18
-8.60
-2.56
3.15
8.14
12.47
16.45
20.41
24.51
28.73
32.91
36.86
40.46
43.56
46.02
47.75
48.74
49.14
49.17
49.08
49.07
49.19
49.47
49.91
50.51
51.20
51.78
51.88
51.06
49.01
45.78
41.73
37.49
33.58
30.23
27.30
24.37
20.89
16.41
10.61
3.29
-5.47
-15.22
-24.98
-33.41
-39.10
-41.08
-39.23
-34.24
-27.40
-19.95
-12.85
-6.64
-1.65
1.78
3.24
2.45
-0.47
-4.93
-9.98
-14.69
-18.48
-21.30
-23.43
-25.18
-26.65
-27.71
-28.15
-27.90
-27.16
-26.37
-26.00
-26.35
-27.48
-29.19
-31.13
-32.99
-34.57
-35.88
-37.11
-38.60
-40.72
-43.72
-47.60
-52.02
-56.29
-59.54
-60.91
-59.82
-56.12
-50.15
-42.63
-34.49
-26.58
-19.55
-13.70
-9.03
-5.36
-2.46
-0.13
1.72
3.11
4.01
4.41
4.42
4.21
3.98
3.90
4.05
4.37
4.77
5.11
5.31
5.27
4.91
4.14
2.89
1.20
-0.82
-3.03
-5.35
-7.86
-10.87
-14.66
-19.43
-24.97
-30.67
-35.56
-38.60
-39.01
-36.56
-31.62
-24.95
-17.51
-10.12
-3.34
2.55
7.47
11.53
14.93
17.90
20.68
23.33
25.81
27.89
29.36
30.13
30.34
30.20
29.97
29.77
29.56
29.20
28.54
27.48
25.99
24.03
21.53
18.46
14.83
10.75
6.40
1.96
-2.49
-7.04
-11.90
-17.18
-22.76
-28.10
-32.30
-34.38
-33.59
-29.74
-23.34
-15.38
-7.01
0.76
7.35
12.63
16.76
20.04
22.72
24.98
26.86
28.38
29.53
30.32
30.76
30.85
30.63
30.13
29.43
28.56
27.54
26.27
24.64
22.53
19.96
17.07
14.10
11.26
8.58
5.88
2.79
-1.04
-5.73
-11.12
-16.66
-21.63
-25.23
-26.86
-26.21
-23.35
-18.67
-12.81
-6.43
-0.15
5.60
10.58
14.76
18.27
21.27
23.94
26.30
28.25
29.63
30.27
30.23
29.76
29.25
29.11
29.58
30.66
32.11
33.59
34.74
35.27
34.99
33.83
31.81
29.11
25.92
22.48
18.93
15.27
11.39
7.15
2.47
-2.61
-7.81
-12.70
-16.73
-19.38
-20.24
-19.17
-16.31
-12.11
-7.23
-2.36
1.88
5.16
7.44
8.92
9.99
10.97
12.05
13.23
14.38
15.28
15.80
15.87
15.47
14.65
13.43
11.89
10.15
8.40
6.83
5.57
4.61
3.77
2.77
1.31
-0.71
-3.24
-5.99
-8.57
-10.71
-12.37
-13.80
-15.40
-17.56
-20.43
-23.85
-27.42
-30.58
-32.88
-33.93
-33.56
-31.67
-28.30
-23.58
-17.85
-11.59
-5.38
0.27
5.02
8.79
11.73
14.06
15.96
17.51
18.68
19.47
19.91
20.16
20.37
20.64
20.95
21.16
21.07
20.52
19.46
17.92
16.10
14.24
12.52
10.98
9.54
7.98
6.12
3.89
1.39
-1.13
-3.47
-5.52
-7.39
-9.24
-11.27
-13.59
-16.17
-18.89
-21.47
-23.53
-24.61
-24.27
-22.31
-18.88
-14.47
-9.79
-5.47
-1.89
0.94
3.19
5.11
6.81
8.29
9.49
10.39
11.01
11.42
11.66
11.72
11.58
11.31
11.04
10.93
11.08
11.47
11.91
12.16
11.95
11.16
9.83
8.16
6.45
4.93
3.67
2.56
1.40
-0.04
-1.87
-4.12
-6.72
-9.60
-12.60
-15.46
-17.68
-18.71
-18.10
-15.79
-12.21
-8.15
-4.41
-1.56
0.30
1.37
2.03
2.55
3.06
3.57
4.06
4.51
4.92
5.26
5.50
5.61
5.65
5.76
6.02
6.43
6.79
6.83
6.33
5.24
3.69
1.98
0.35
-1.05
-2.29
-3.54
-5.02
-6.85
-9.08
-11.62
-14.36
-17.10
-19.55
-21.40
-22.29
-21.94
-20.24
-17.35
-13.63
-9.60
-5.78
-2.54
-0.08
1.66
2.81
3.60
4.18
4.63
4.89
4.89
4.59
4.03
3.36
2.79
2.45
2.39
2.59
2.96
3.39
3.74
3.82
3.50
2.70
1.47
-0.04
-1.59
-3.02
-4.33
-5.56
-6.86
-8.36
-10.12
-12.14
-14.31
-16.35
-17.87
-18.42
-17.66
-15.54
-12.35
-8.67
-5.09
-2.04
0.33
2.09
3.39
4.40
5.20
5.79
6.15
6.34
6.38
6.33
6.23
6.07
5.86
5.58
5.25
4.95
4.75
4.67
4.67
4.60
4.25
3.47
2.21
0.58
-1.21
-2.95
-4.49
-5.79
-6.96
-8.14
-9.51
-11.21
-13.31
-15.66
-17.93
-19.64
-20.23
-19.34
-16.94
-13.43
-9.49
-5.79
-2.79
-0.56
1.15
2.66
4.22
5.83
7.32
8.43
9.01
9.06
8.75
8.35
8.08
8.07
8.26
8.49
8.56
8.37
7.90
7.27
6.59
5.91
5.18
4.29
3.19
1.91
0.56
-0.74
-1.93
-2.99
-4.00
-5.06
-6.25
-7.68
-9.44
-11.61
-14.18
-17.03
-19.93
-22.54
-24.48
-25.41
-25.08
-23.39
-20.46
-16.61
-12.32
-8.12
-4.43
-1.49
0.75
2.51
4.08
5.70
7.41
9.09
10.47
11.33
11.55
11.22
10.58
9.95
9.58
9.57
9.88
10.32
10.73
10.95
10.91
10.58
9.95
9.03
7.84
6.41
4.79
3.08
1.34
-0.33
-1.89
-3.28
-4.52
-5.61
-6.62
-7.64
-8.80
-10.18
-11.79
-13.55
-15.42
-17.34
-19.28
-21.24
-23.13
-24.77
-25.88
-26.14
-25.39
-23.61
-21.02
-17.96
-14.75
-11.60
-8.61
-5.79
-3.15
-0.75
1.36
3.14
4.59
5.73
6.62
7.30
7.82
8.20
8.48
8.72
8.95
9.22
9.56
10.00
10.51
11.07
11.59
11.96
12.08
11.86
11.28
10.37
9.18
7.81
6.36
4.90
3.44
1.95
0.41
-1.19
-2.81
-4.39
-5.91
-7.36
-8.83
-10.42
-12.23
-14.36
-16.87
-19.73
-22.75
-25.62
-27.84
-28.93
-28.53
-26.55
-23.24
-19.12
-14.76
-10.69
-7.21
-4.38
-2.10
-0.19
1.51
3.14
4.78
6.47
8.21
9.97
11.62
13.06
14.13
14.77
14.99
14.90
14.65
14.34
14.05
13.81
13.60
13.35
12.96
12.26
11.12
9.53
7.67
5.82
4.27
3.16
2.41
1.79
1.05
0.02
-1.31
-2.83
-4.44
-6.11
-7.88
-9.81
-11.99
-14.47
-17.30
-20.51
-24.00
-27.50
-30.61
-32.80
-33.56
-32.67
-30.20
-26.55
-22.32
-18.13
-14.36
-11.12
-8.21
-5.38
-2.43
0.64
3.58
6.14
8.14
9.60
10.75
11.90
13.26
14.84
16.48
17.91
18.90
19.36
19.39
19.17
18.90
18.65
18.41
18.02
17.28
16.10
14.45
12.48
10.37
8.32
6.44
4.77
3.22
1.67
0.05
-1.68
-3.46
-5.20
-6.81
-8.29
-9.73
-11.29
-13.13
-15.42
-18.30
-21.82
-25.89
-30.19
-34.17
-37.12
-38.42
-37.70
-35.00
-30.74
-25.58
-20.16
-14.97
-10.29
-6.18
-2.64
0.41
3.10
5.56
7.94
10.27
12.50
14.43
15.88
16.72
17.05
17.08
17.12
17.44
18.15
19.23
20.55
21.92
23.17
24.13
24.61
24.49
23.68
22.27
20.45
18.53
16.82
15.48
14.39
13.23
11.59
9.21
6.08
2.50
-1.12
-4.47
-7.48
-10.34
-13.31
-16.64
-20.38
-24.44
-28.57
-32.49
-35.86
-38.19
-38.94
-37.67
-34.17
-28.75
-22.13
-15.30
-9.16
-4.27
-0.67
2.02
4.36
6.76
9.32
11.81
13.89
15.33
16.15
16.68
17.25
18.10
19.15
20.12
20.72
20.78
20.36
19.65
18.85
18.00
17.06
15.92
14.50
12.75
10.72
8.44
5.96
3.38
0.77
-1.77
-4.14
-6.35
-8.45
-10.62
-13.08
-16.09
-19.76
-23.92
-28.05
-31.36
-33.03
-32.49
-29.60
-24.78
-18.72
-12.25
-6.05
-0.57
3.94
7.41
9.89
11.51
12.52
13.17
13.68
14.14
14.58
14.96
15.27
15.53
15.76
15.95
16.06
15.99
15.69
15.16
14.45
13.61
12.63
11.45
10.00
8.17
5.99
3.47
0.74
-2.07
-4.91
-7.79
-10.83
-14.19
-17.94
-21.91
-25.64
-28.41
-29.46
-28.24
-24.67
-19.16
-12.58
-5.87
0.13
4.93
8.38
10.60
11.83
12.31
12.29
12.03
11.74
11.59
11.67
11.93
12.27
12.53
12.62
12.51
12.23
11.85
11.42
10.96
10.45
9.84
9.04
7.96
6.50
4.66
2.52
0.23
-2.08
-4.38
-6.80
-9.59
-12.92
-16.77
-20.80
-24.35
-26.62
-26.99
-25.19
-21.41
-16.24
-10.39
-4.51
0.94
5.76
9.84
13.12
15.60
17.28
18.27
18.75
18.92
18.95
18.95
18.95
18.98
19.09
19.27
19.46
19.52
19.29
18.67
17.60
16.10
14.22
12.03
9.61
7.09
4.66
2.44
0.45
-1.45
-3.56
-6.20
-9.61
-13.78
-18.41
-22.97
-26.74
-28.99
-29.23
-27.31
-23.48
-18.35
-12.65
-7.03
-1.91
2.52
6.23
9.30
11.87
14.06
16.03
17.89
19.68
21.34
22.72
23.66
24.05
23.89
23.33
22.62
22.04
21.73
21.71
21.79
21.71
21.22
20.15
18.45
16.15
13.33
10.15
6.80
3.50
0.42
-2.37
-5.03
-7.90
-11.36
-15.60
-20.47
-25.45
-29.69
-32.31
-32.62
-30.41
-26.00
-20.17
-13.86
-7.86
-2.67
1.67
5.35
8.61
11.62
14.32
16.59
18.36
19.65
20.62
21.43
22.14
22.68
22.89
22.68
22.08
21.33
20.68
20.31
20.23
20.26
20.07
19.39
18.01
15.88
13.08
9.81
6.36
3.07
0.20
-2.12
-3.98
-5.69
-7.64
-10.11
-13.23
-16.93
-20.93
-24.84
-28.21
-30.60
-31.57
-30.81
-28.23
-24.06
-18.81
-13.19
-7.87
-3.28
0.46
3.49
6.09
8.55
11.02
13.53
15.99
18.28
20.25
21.77
22.75
23.07
22.74
21.91
20.82
19.85
19.28
19.24
19.61
20.05
20.14
19.58
18.32
16.52
14.50
12.44
10.37
8.12
5.53
2.51
-0.81
-4.16
-7.27
-10.00
-12.39
-14.66
-17.07
-19.83
-23.05
-26.62
-30.24
-33.45
-35.72
-36.61
-35.86
-33.48
-29.74
-25.08
-19.98
-14.90
-10.19
-6.04
-2.45
0.72
3.67
6.58
9.53
12.44
15.16
17.53
19.41
20.76
21.58
21.87
21.73
21.26
20.63
20.08
19.75
19.68
19.77
19.78
19.47
18.65
17.23
15.27
12.87
10.22
7.52
4.90
2.43
0.15
-1.98
-3.98
-5.85
-7.58
-9.20
-10.77
-12.38
-14.11
-16.04
-18.15
-20.45
-22.88
-25.36
-27.63
-29.29
-29.88
-29.01
-26.63
-23.01
-18.77
-14.57
-10.91
-7.92
-5.45
-3.17
-0.87
1.50
3.80
5.84
7.51
8.86
10.00
11.08
12.14
13.11
13.87
14.32
14.46
14.35
14.13
13.89
13.69
13.54
13.38
13.10
12.63
11.91
10.90
9.65
8.25
6.85
5.58
4.47
3.46
2.38
1.06
-0.61
-2.60
-4.80
-7.06
-9.20
-11.16
-12.95
-14.65
-16.51
-18.76
-21.60
-25.00
-28.62
-31.88
-34.06
-34.57
-33.17
-30.02
-25.59
-20.52
-15.42
-10.73
-6.68
-3.37
-0.72
1.46
3.43
5.42
7.54
9.74
11.82
13.53
14.67
15.19
15.16
14.74
14.07
13.27
12.40
11.52
10.74
10.13
9.79
9.69
9.66
9.47
8.87
7.75
6.17
4.41
2.79
1.58
0.84
0.46
0.13
-0.40
-1.31
-2.58
-4.07
-5.63
-7.13
-8.53
-9.89
-11.30
-12.90
-14.80
-17.01
-19.39
-21.68
-23.51
-24.53
-24.48
-23.25
-20.92
-17.68
-13.88
-9.94
-6.31
-3.34
-1.18
0.28
1.35
2.41
3.74
5.37
7.13
8.71
9.88
10.50
10.61
10.37
9.93
9.44
8.98
8.62
8.47
8.57
8.94
9.46
9.96
10.19
10.03
9.46
8.62
7.69
6.76
5.88
4.96
3.93
2.78
1.54
0.25
-1.11
-2.58
-4.23
-5.96
-7.66
-9.11
-10.25
-11.15
-12.06
-13.27
-14.99
-17.20
-19.69
-22.08
-23.96
-24.96
-24.87
-23.63
-21.33
-18.24
-14.75
-11.25
-8.09
-5.47
-3.38
-1.66
-0.09
1.48
3.11
4.69
6.11
7.23
8.06
8.65
9.09
9.41
9.57
9.53
9.34
9.13
9.06
9.24
9.57
9.84
9.81
9.33
8.41
7.24
6.00
4.88
3.93
3.12
2.37
1.58
0.69
-0.34
-1.49
-2.71
-3.94
-5.18
-6.50
-8.05
-9.98
-12.41
-15.31
-18.47
-21.45
-23.66
-24.54
-23.72
-21.27
-17.69
-13.76
-10.22
-7.52
-5.64
-4.26
-2.99
-1.61
-0.10
1.38
2.72
3.88
4.94
6.01
7.08
8.10
8.96
9.59
10.01
10.29
10.50
10.71
10.94
11.17
11.35
11.35
11.01
10.23
8.97
7.32
5.46
3.58
1.79
0.11
-1.51
-3.14
-4.81
-6.58
-8.50
-10.69
-13.21
-16.02
-18.94
-21.58
-23.50
-24.32
-23.78
-21.88
-18.84
-15.07
-11.03
-7.17
-3.82
-1.11
0.93
2.41
3.43
4.13
4.60
4.91
5.13
5.30
5.48
5.74
6.08
6.49
6.90
7.21
7.38
7.42
7.40
7.40
7.41
7.33
7.00
6.29
5.19
3.84
2.43
1.15
0.05
-0.91
-1.91
-3.07
-4.54
-6.45
-8.84
-11.66
-14.65
-17.29
-19.01
-19.29
-18.02
-15.45
-12.14
-8.68
-5.52
-2.84
-0.62
1.25
2.88
4.35
5.68
6.88
7.95
8.81
9.39
9.70
9.78
9.76
9.78
9.91
10.14
10.46
10.84
11.27
11.68
11.95
11.92
11.44
10.50
9.20
7.75
6.33
5.06
3.99
3.09
2.29
1.46
0.40
-1.04
-2.87
-4.80
-6.26
-6.57
-5.22
-2.14
2.24
7.18
11.96
16.14
19.64
22.67
25.43
27.93
29.97
31.25
31.62
31.12
29.97
28.47
26.84
25.20
23.56
21.88
20.20
18.57
17.02
15.56
14.14
12.65
10.96
8.98
6.65
3.94
0.90
-2.37
-5.80
-9.30
-12.90
-16.69
-20.80
-25.39
-30.53
-36.14
-41.93
-47.41
-51.86
-54.57
-55.00
-52.99
-48.87
-43.43
-37.65
-32.42
-28.35
-25.63
-24.14
-23.48
-23.12
-22.45
-20.90
-18.07
-13.96
-9.07
-4.33
-0.77
0.90
0.65
-0.83
-2.46
-3.24
-2.77
-1.44
-0.21
-0.13
-1.91
-5.47
-9.97
-14.08
-16.54
-16.54
-14.03
-9.66
-4.43
0.63
4.68
7.27
8.25
7.71
6.02
3.95
2.65
3.49
7.62
15.48
26.37
38.47
49.31
56.53
58.73
55.96
49.70
42.23
35.76
31.65
30.01
29.91
29.99
29.10
26.81
23.48
19.91
16.88
14.75
13.35
12.17
10.60
8.23
4.93
0.78
-4.15
-9.89
-16.59
-24.29
-32.63
-40.73
-47.35
-51.30
-51.93
-49.44
-44.73
-39.13
-33.79
-29.33
-25.68
-22.34
-18.70
-14.31
-9.03
-2.86
4.13
11.87
20.25
28.96
37.52
45.31
51.72
56.37
59.11
60.01
59.18
56.72
52.75
47.58
41.83
36.41
32.21
29.84
29.36
30.20
31.40
31.90
30.86
27.68
22.14
14.21
4.08
-7.77
-20.45
-32.65
-42.82
-49.60
-52.32
-51.30
-47.84
-43.79
-40.84
-39.94
-41.06
-43.41
-46.01
-48.15
-49.57
-50.29
-50.41
-49.77
-48.11
-45.21
-41.20
-36.54
-31.91
-27.85
-24.52
-21.67
-18.82
-15.53
-11.73
-7.64
-3.76
-0.54
1.86
3.65
5.30
7.34
10.00
13.07
16.00
18.06
18.71
17.85
15.76
13.11
10.55
8.57
7.29
6.52
5.87
4.99
3.69
1.98
0.05
-1.86
-3.62
-5.30
-7.07
-9.19
-11.78
-14.73
-17.69
-20.14
-21.56
-21.58
-20.13
-17.37
-13.64
-9.30
-4.73
-0.24
3.94
7.56
10.46
12.54
13.83
14.47
14.63
14.53
14.29
13.99
13.65
13.33
13.12
13.13
13.44
14.02
14.72
15.33
15.69
15.74
15.56
15.30
15.03
14.65
13.95
12.69
10.82
8.48
6.02
3.76
1.88
0.32
-1.17
-2.86
-4.96
-7.49
-10.30
-13.12
-15.53
-17.07
-17.35
-16.14
-13.53
-9.94
-5.99
-2.31
0.67
2.80
4.22
5.17
5.91
6.56
7.18
7.76
8.33
8.93
9.58
10.23
10.82
11.25
11.50
11.62
11.68
11.79
11.95
12.08
12.01
11.59
10.76
9.55
8.08
6.50
4.91
3.37
1.90
0.48
-0.95
-2.44
-4.16
-6.24
-8.77
-11.69
-14.68
-17.23
-18.74
-18.72
-16.99
-13.77
-9.63
-5.27
-1.35
1.73
3.91
5.38
6.44
7.33
8.17
8.93
9.51
9.84
9.93
9.85
9.70
9.53
9.30
8.95
8.40
7.64
6.80
6.00
5.37
4.92
4.56
4.14
3.50
2.54
1.29
-0.26
-2.05
-4.05
-6.25
-8.58
-10.94
-13.17
-15.09
-16.43
-16.96
-16.46
-14.83
-12.16
-8.78
-5.15
-1.75
1.06
3.17
4.65
5.74
6.65
7.50
8.27
8.85
9.13
9.01
8.54
7.82
7.03
6.37
5.98
5.96
6.29
6.84
7.36
7.59
7.27
6.32
4.80
2.93
1.01
-0.72
-2.13
-3.26
-4.29
-5.49
-7.13
-9.41
-12.34
-15.66
-18.86
-21.31
-22.41
-21.81
-19.56
-16.06
-11.97
-7.91
-4.30
-1.32
1.02
2.85
4.25
5.27
5.99
6.50
6.87
7.20
7.55
7.93
8.29
8.56
8.71
8.72
8.59
8.37
8.04
7.62
7.11
6.50
5.77
4.89
3.86
2.64
1.24
-0.34
-2.01
-3.72
-5.37
-6.98
-8.64
-10.54
-12.77
-15.27
-17.68
-19.42
-19.95
-18.97
-16.58
-13.29
-9.77
-6.56
-3.89
-1.70
0.28
2.21
4.15
5.97
7.54
8.79
9.80
10.69
11.58
12.46
13.27
13.89
14.25
14.30
14.05
13.52
12.77
11.83
10.78
9.74
8.76
7.88
7.05
6.13
4.97
3.43
1.57
-0.45
-2.40
-4.10
-5.59
-7.04
-8.73
-10.87
-13.49
-16.41
-19.23
-21.51
-22.87
-23.05
-21.96
-19.69
-16.46
-12.64
-8.69
-4.98
-1.78
0.80
2.79
4.38
5.71
7.00
8.34
9.75
11.11
12.24
12.98
13.28
13.24
13.04
12.88
12.87
12.96
13.03
13.01
12.87
12.67
12.40
11.97
11.22
10.05
8.52
6.83
5.23
3.82
2.53
1.17
-0.46
-2.41
-4.57
-6.69
-8.59
-10.17
-11.56
-12.99
-14.67
-16.67
-18.81
-20.69
-21.78
-21.66
-20.12
-17.31
-13.65
-9.69
-5.92
-2.65
0.02
2.12
3.85
5.38
6.82
8.25
9.63
10.86
11.90
12.72
13.34
13.77
14.00
13.96
13.60
12.97
12.23
11.56
11.14
11.02
11.11
11.22
11.11
10.63
9.76
8.56
7.15
5.68
4.24
2.85
1.51
0.19
-1.10
-2.35
-3.56
-4.82
-6.26
-8.09
-10.48
-13.43
-16.78
-20.15
-23.02
-24.91
-25.45
-24.51
-22.23
-18.94
-15.10
-11.13
-7.33
-3.90
-0.90
1.59
3.57
5.10
6.37
7.62
9.01
10.55
12.00
13.01
13.33
12.97
12.25
11.57
11.24
11.26
11.40
11.38
11.07
10.61
10.21
9.98
9.83
9.56
8.92
7.84
6.46
5.03
3.76
2.72
1.81
0.84
-0.34
-1.83
-3.61
-5.59
-7.68
-9.80
-11.94
-14.19
-16.63
-19.23
-21.80
-23.93
-25.10
-24.86
-23.06
-19.91
-15.96
-11.91
-8.36
-5.60
-3.55
-1.92
-0.40
1.23
2.92
4.52
5.83
6.77
7.38
7.82
8.24
8.70
9.19
9.68
10.12
10.49
10.76
10.93
10.98
10.85
10.50
9.82
8.77
7.31
5.49
3.47
1.48
-0.30
-1.78
-3.00
-4.16
-5.39
-6.78
-8.31
-9.94
-11.64
-13.50
-15.62
-17.99
-20.37
-22.32
-23.30
-22.90
-21.02
-17.91
-14.06
-10.03
-6.27
-2.98
-0.17
2.22
4.31
6.07
7.45
8.37
8.79
8.79
8.53
8.20
7.99
7.99
8.18
8.45
8.69
8.79
8.70
8.44
8.05
7.54
6.85
5.87
4.52
2.82
0.93
-0.94
-2.57
-3.85
-4.79
-5.53
-6.28
-7.26
-8.66
-10.58
-13.03
-15.89
-18.86
-21.54
-23.44
-24.16
-23.44
-21.28
-17.92
-13.80
-9.43
-5.32
-1.85
0.78
2.52
3.47
3.85
3.95
4.07
4.46
5.17
6.13
7.14
7.94
8.44
8.66
8.73
8.82
9.00
9.20
9.28
9.10
8.54
7.60
6.32
4.76
2.98
1.07
-0.83
-2.53
-3.91
-4.97
-5.94
-7.26
-9.44
-12.69
-16.78
-20.98
-24.25
-25.63
-24.68
-21.57
-17.03
-12.03
-7.34
-3.39
-0.21
2.34
4.45
6.16
7.48
8.40
9.00
9.41
9.74
10.05
10.29
10.39
10.31
10.09
9.87
9.81
10.01
10.47
11.05
11.51
11.51
10.76
9.21
6.95
4.31
1.69
-0.59
-2.39
-3.72
-4.79
-5.88
-7.31
-9.43
-12.42
-16.16
-20.19
-23.71
-25.82
-25.80
-23.47
-19.19
-13.77
-8.11
-2.96
1.28
4.52
6.87
8.53
9.72
10.63
11.43
12.27
13.23
14.26
15.27
16.12
16.69
16.94
16.91
16.66
16.31
15.91
15.56
15.25
14.91
14.34
13.32
11.65
9.24
6.21
2.88
-0.41
-3.34
-5.86
-8.13
-10.50
-13.29
-16.68
-20.59
-24.64
-28.24
-30.70
-31.46
-30.17
-26.90
-22.03
-16.26
-10.31
-4.83
-0.17
3.59
6.61
9.14
11.37
13.38
15.17
16.71
17.98
18.98
19.71
20.21
20.45
20.45
20.24
19.86
19.39
18.90
18.42
17.93
17.35
16.57
15.47
13.94
11.94
9.49
6.74
3.89
1.12
-1.49
-4.03
-6.74
-9.92
-13.78
-18.28
-23.07
-27.52
-30.88
-32.44
-31.84
-29.13
-24.83
-19.70
-14.46
-9.61
-5.30
-1.47
1.99
5.07
7.68
9.72
11.24
12.39
13.41
14.43
15.45
16.26
16.70
16.70
16.37
15.96
15.69
15.66
15.78
15.92
15.88
15.52
14.76
13.53
11.77
9.53
6.90
4.07
1.30
-1.32
-3.83
-6.44
-9.40
-12.96
-17.18
-21.92
-26.89
-31.57
-35.28
-37.30
-37.04
-34.25
-29.19
-22.65
-15.63
-9.05
-3.49
0.93
4.48
7.54
10.39
13.11
15.61
17.71
19.31
20.46
21.33
22.18
23.17
24.32
25.53
26.59
27.31
27.58
27.37
26.72
25.67
24.29
22.62
20.68
18.47
16.01
13.31
10.42
7.43
4.46
1.62
-1.08
-3.69
-6.36
-9.27
-12.57
-16.39
-20.73
-25.42
-30.08
-34.10
-36.74
-37.36
-35.58
-31.49
-25.63
-18.79
-11.86
-5.49
-0.07
4.35
7.92
10.85
13.34
15.52
17.45
19.19
20.77
22.21
23.53
24.71
25.70
26.44
26.87
27.02
26.91
26.67
26.35
25.95
25.39
24.55
23.37
21.86
20.15
18.34
16.51
14.64
12.62
10.35
7.79
4.96
1.97
-1.09
-4.12
-7.06
-9.94
-12.87
-16.09
-19.83
-24.17
-28.82
-33.07
-36.01
-36.80
-35.07
-31.05
-25.48
-19.25
-13.16
-7.62
-2.75
1.51
5.25
8.51
11.29
13.63
15.54
17.08
18.31
19.30
20.12
20.84
21.50
22.10
22.56
22.85
22.97
22.98
22.96
22.96
22.95
22.80
22.37
21.55
20.35
18.87
17.28
15.73
14.25
12.77
11.13
9.20
6.90
4.23
1.31
-1.72
-4.68
-7.42
-9.80
-11.82
-13.66
-15.64
-18.14
-21.41
-25.35
-29.48
-32.98
-34.98
-34.85
-32.40
-27.99
-22.31
-16.26
-10.59
-5.77
-1.91
1.17
3.83
6.36
8.90
11.34
13.47
15.09
16.14
16.74
17.15
17.52
17.87
18.12
18.17
18.04
17.94
18.04
18.42
18.96
19.36
19.36
18.79
17.71
16.31
14.83
13.38
12.00
10.55
8.92
7.06
5.04
3.03
1.19
-0.40
-1.84
-3.31
-4.99
-6.97
-9.13
-11.23
-13.03
-14.48
-15.74
-17.16
-19.10
-21.69
-24.76
-27.77
-30.05
-30.92
-29.99
-27.26
-23.09
-18.12
-13.07
-8.54
-4.89
-2.25
-0.49
0.66
1.52
2.36
3.42
4.77
6.36
8.05
9.64
10.97
12.00
12.74
13.31
13.83
14.36
14.87
15.24
15.31
15.01
14.38
13.50
12.50
11.45
10.32
9.02
7.50
5.74
3.82
1.82
-0.18
-2.14
-4.04
-5.82
-7.39
-8.68
-9.74
-10.75
-12.00
-13.73
-15.96
-18.44
-20.67
-22.13
-22.42
-21.39
-19.21
-16.23
-12.87
-9.52
-6.47
-3.90
-1.87
-0.34
0.75
1.48
1.90
2.04
1.91
1.58
1.12
0.64
0.31
0.28
0.66
1.49
2.66
3.93
4.99
5.59
5.59
5.02
4.06
2.89
1.66
0.41
-0.86
-2.14
-3.36
-4.47
-5.42
-6.27
-7.15
-8.21
-9.59
-11.36
-13.47
-15.73
-17.81
-19.33
-19.89
-19.29
-17.56
-15.01
-12.06
-9.16
-6.61
-4.50
-2.79
-1.31
0.07
1.43
2.76
3.98
4.93
5.47
5.53
5.18
4.63
4.12
3.82
3.83
4.07
4.39
4.64
4.74
4.65
4.39
4.01
3.43
2.56
1.28
-0.41
-2.38
-4.37
-6.12
-7.51
-8.62
-9.78
-11.30
-13.40
-15.97
-18.61
-20.71
-21.70
-21.20
-19.22
-16.06
-12.27
-8.45
-5.09
-2.45
-0.56
0.74
1.68
2.42
3.10
3.73
4.32
4.89
5.43
5.90
6.22
6.27
6.02
5.51
4.91
4.46
4.36
4.66
5.26
5.91
6.35
6.37
5.85
4.78
3.24
1.40
-0.54
-2.41
-4.08
-5.55
-6.93
-8.43
-10.29
-12.71
-15.76
-19.25
-22.73
-25.55
-27.05
-26.75
-24.59
-20.91
-16.41
-11.84
-7.80
-4.58
-2.17
-0.41
0.92
1.97
2.86
3.64
4.35
5.00
5.60
6.16
6.68
7.17
7.63
8.01
8.28
8.40
8.38
8.29
8.25
8.33
8.47
8.46
7.99
6.87
5.07
2.80
0.37
-1.93
-4.01
-5.90
-7.85
-9.99
-12.45
-15.20
-18.10
-20.96
-23.52
-25.48
-26.53
-26.43
-25.10
-22.64
-19.34
-15.62
-11.87
-8.41
-5.40
-2.86
-0.68
1.29
3.19
5.09
6.95
8.64
10.02
10.98
11.53
11.82
12.09
12.54
13.26
14.14
14.91
15.26
14.98
14.07
12.76
11.33
10.02
8.88
7.77
6.48
4.88
2.94
0.79
-1.37
-3.39
-5.26
-7.07
-8.99
-11.15
-13.61
-16.41
-19.49
-22.72
-25.92
-28.80
-30.91
-31.81
-31.11
-28.68
-24.70
-19.63
-14.14
-8.93
-4.50
-1.10
1.38
3.27
5.02
6.98
9.28
11.81
14.27
16.33
17.78
18.55
18.75
18.57
18.18
17.77
17.47
17.41
17.62
18.00
18.31
18.26
17.59
16.21
14.27
12.09
10.03
8.33
7.02
5.97
4.96
3.79
2.32
0.56
-1.41
-3.46
-5.48
-7.37
-9.15
-10.98
-13.07
-15.71
-19.06
-23.09
-27.44
-31.56
-34.74
-36.33
-35.92
-33.45
-29.26
-23.98
-18.32
-12.90
-8.08
-3.96
-0.45
2.62
5.33
7.74
9.92
11.93
13.87
15.81
17.70
19.42
20.81
21.80
22.47
23.03
23.67
24.44
25.29
26.05
26.54
26.64
26.33
25.64
24.67
23.45
22.05
20.50
18.84
17.09
15.24
13.27
11.11
8.71
6.03
3.11
0.06
-2.94
-5.69
-8.09
-10.14
-12.01
-13.96
-16.31
-19.25
-22.84
-26.91
-31.06
-34.74
-37.34
-38.34
-37.40
-34.53
-30.04
-24.46
-18.47
-12.65
-7.45
-3.08
0.46
3.33
5.78
8.07
10.40
12.85
15.38
17.84
20.04
21.79
23.00
23.66
23.89
23.92
24.02
24.43
25.21
26.29
27.46
28.37
28.78
28.50
27.51
25.89
23.83
21.56
19.31
17.29
15.61
14.23
13.00
11.75
10.35
8.73
6.94
5.04
3.03
0.88
-1.42
-3.85
-6.33
-8.74
-11.06
-13.33
-15.65
-18.11
-20.74
-23.59
-26.72
-30.20
-33.94
-37.61
-40.52
-41.88
-41.05
-37.85
-32.68
-26.40
-19.94
-14.04
-9.06
-5.00
-1.68
1.17
3.75
6.22
8.65
11.02
13.22
15.10
16.58
17.71
18.61
19.48
20.42
21.41
22.36
23.12
23.63
23.89
23.97
23.95
23.83
23.50
22.84
21.75
20.26
18.50
16.69
14.99
13.43
11.89
10.17
8.18
5.97
3.75
1.73
0.00
-1.55
-3.19
-5.17
-7.60
-10.35
-13.16
-15.73
-17.92
-19.83
-21.76
-24.11
-27.18
-30.90
-34.83
-38.17
-40.00
-39.63
-36.80
-31.85
-25.54
-18.80
-12.48
-7.09
-2.76
0.64
3.43
5.90
8.25
10.61
12.92
15.16
17.22
19.04
20.61
21.97
23.27
24.63
26.13
27.69
29.19
30.50
31.61
32.66
33.80
35.07
36.32
37.27
37.62
37.27
36.34
35.09
33.76
32.40
30.93
29.23
27.26
25.11
22.90
20.68
18.29
15.46
11.91
7.51
2.43
-2.99
-8.43
-13.75
-19.10
-24.82
-31.17
-38.07
-44.94
-50.83
-54.70
-55.70
-53.41
-47.92
-39.72
-29.57
-18.36
-6.90
4.15
14.35
23.43
31.23
37.54
42.12
44.84
45.82
45.48
44.44
43.18
41.74
39.71
36.29
30.67
22.31
11.02
-2.93
-18.83
-35.45
-51.03
-63.43
-70.62
-71.31
-65.50
-54.68
-41.47
-28.89
-19.56
-15.04
-15.61
-20.43
-27.86
-36.02
-43.21
-48.18
-50.25
-49.35
-45.94
-40.94
-35.57
-31.19
-28.90
-29.29
-32.20
-36.74
-41.47
-44.92
-45.95
-44.10
-39.55
-33.04
-25.62
-18.29
-11.82
-6.58
-2.56
0.53
3.05
5.27
7.22
8.79
9.79
10.18
10.06
9.68
9.31
9.18
9.36
9.80
10.40
11.05
11.69
12.26
12.73
13.08
13.30
13.32
13.05
12.39
11.25
9.58
7.43
4.95
2.37
-0.12
-2.37
-4.35
-6.15
-7.94
-9.86
-12.06
-14.66
-17.66
-20.92
-24.08
-26.58
-27.84
-27.41
-25.17
-21.36
-16.52
-11.24
-6.02
-1.25
2.86
6.22
8.79
10.67
12.04
13.10
14.01
14.79
15.38
15.65
15.56
15.19
14.74
14.38
14.24
14.28
14.39
14.39
14.16
13.62
12.68
11.25
9.31
6.90
4.23
1.65
-0.50
-2.06
-3.14
-4.17
-5.67
-8.06
-11.44
-15.50
-19.59
-22.90
-24.65
-24.27
-21.62
-16.92
-10.79
-4.09
2.37
7.92
12.24
15.34
17.44
18.87
19.95
20.92
21.98
23.25
24.79
26.53
28.29
29.75
30.66
30.89
30.61
30.16
29.94
30.12
30.47
30.48
29.49
27.09
23.33
18.70
13.92
9.61
6.05
3.11
0.39
-2.60
-6.17
-10.41
-15.08
-19.74
-23.81
-26.69
-27.90
-27.16
-24.49
-20.23
-14.97
-9.42
-4.25
0.10
3.41
5.68
7.07
7.79
8.09
8.19
8.28
8.42
8.56
8.48
7.90
6.62
4.63
2.20
-0.17
-1.95
-2.76
-2.56
-1.67
-0.63
0.01
-0.11
-1.06
-2.63
-4.48
-6.27
-7.75
-8.85
-9.66
-10.46
-11.64
-13.59
-16.55
-20.37
-24.48
-27.95
-29.84
-29.50
-26.84
-22.29
-16.63
-10.68
-5.03
-0.01
4.29
7.97
11.18
14.10
16.90
19.69
22.48
25.14
27.48
29.35
30.71
31.57
32.05
32.20
32.03
31.56
30.86
30.09
29.46
29.07
28.83
28.47
27.59
25.88
23.26
19.87
16.05
12.18
8.58
5.36
2.52
-0.12
-2.76
-5.58
-8.75
-12.38
-16.39
-20.54
-24.34
-27.09
-28.08
-26.84
-23.33
-18.07
-11.98
-6.02
-0.95
2.98
6.00
8.55
11.13
13.99
17.12
20.31
23.21
25.46
26.74
26.90
25.97
24.27
22.29
20.62
19.64
19.39
19.56
19.66
19.24
18.09
16.29
14.11
11.84
9.69
7.76
6.02
4.38
2.80
1.20
-0.48
-2.38
-4.69
-7.63
-11.36
-15.89
-21.07
-26.46
-31.47
-35.49
-37.97
-38.57
-37.15
-33.83
-28.99
-23.22
-17.16
-11.39
-6.29
-1.99
1.60
4.64
7.30
9.71
11.96
14.18
16.42
18.67
20.84
22.70
24.09
24.93
25.27
25.32
25.27
25.21
25.13
24.99
24.71
24.31
23.85
23.41
22.95
22.36
21.41
19.98
18.07
15.93
13.86
12.08
10.58
9.13
7.37
5.07
2.14
-1.27
-4.88
-8.41
-11.59
-14.11
-15.65
-15.92
-14.77
-12.38
-9.22
-5.93
-3.04
-0.76
1.11
3.00
5.31
8.27
11.87
15.94
20.28
24.80
29.45
34.27
39.37
44.93
51.20
58.28
65.95
73.52
79.94
84.19
85.65
84.43
81.17
76.73
71.66
66.12
59.94
53.06
45.68
38.27
31.24
24.66
18.18
11.22
3.31
-5.64
-15.36
-25.30
-34.93
-43.73
-51.30
-57.16
-60.96
-62.51
-62.02
-60.04
-57.37
-54.76
-52.71
-51.38
-50.61
-50.10
-49.60
-48.89
-47.87
-46.56
-45.14
-43.87
-43.04
-42.88
-43.45
-44.63
-46.05
-47.28
-47.85
-47.42
-45.81
-43.13
-39.69
-35.97
-32.46
-29.53
-27.36
-25.95
-25.24
-25.16
-25.67
-26.73
-28.21
-29.89
-31.47
-32.71
-33.55
-34.01
-34.26
-34.45
-34.71
-35.11
-35.69
-36.52
-37.67
-39.17
-40.89
-42.52
-43.59
-43.63
-42.34
-39.69
-35.95
-31.56
-26.94
-22.41
-18.11
-14.04
-10.14
-6.36
-2.66
0.91
4.26
7.27
9.80
11.78
13.24
14.27
15.01
15.58
16.04
16.42
16.77
17.16
17.71
18.47
19.42
20.39
21.15
21.46
21.17
20.30
18.96
17.37
15.74
14.22
12.87
11.66
10.48
9.18
7.68
5.94
4.07
2.25
0.62
-0.85
-2.34
-4.19
-6.68
-9.91
-13.66
-17.39
-20.43
-22.18
-22.31
-20.85
-18.10
-14.56
-10.72
-7.03
-3.79
-1.13
1.00
2.83
4.63
6.58
8.65
10.65
12.31
13.49
14.24
14.75
15.20
15.59
15.84
15.77
15.36
14.78
14.30
14.11
14.20
14.33
14.20
13.61
12.61
11.40
10.28
9.40
8.76
8.28
7.74
7.00
5.96
4.58
2.91
1.07
-0.78
-2.46
-3.88
-5.13
-6.39
-7.92
-9.91
-12.42
-15.30
-18.27
-20.88
-22.67
-23.21
-22.20
-19.64
-15.85
-11.39
-6.92
-2.96
0.22
2.60
4.31
5.57
6.54
7.35
8.13
8.95
9.83
10.73
11.52
12.06
12.30
12.27
12.13
12.02
11.97
11.91
11.70
11.28
10.73
10.23
10.00
10.07
10.26
10.24
9.69
8.53
7.01
5.55
4.51
3.97
3.67
3.17
2.14
0.53
-1.41
-3.23
-4.59
-5.42
-5.96
-6.59
-7.68
-9.45
-11.85
-14.72
-17.71
-20.46
-22.54
-23.55
-23.15
-21.21
-17.92
-13.76
-9.42
-5.59
-2.70
-0.84
0.28
1.11
2.04
3.23
4.55
5.77
6.68
7.29
7.76
8.35
9.18
10.18
11.17
11.89
12.21
12.16
11.88
11.50
11.07
10.52
9.76
8.68
7.26
5.59
3.86
2.24
0.85
-0.33
-1.42
-2.58
-3.95
-5.57
-7.38
-9.30
-11.27
-13.32
-15.48
-17.73
-19.83
-21.36
-21.81
-20.82
-18.39
-14.87
-10.93
-7.20
-4.09
-1.71
0.07
1.46
2.59
3.46
4.00
4.21
4.20
4.18
4.36
4.88
5.72
6.73
7.70
8.49
9.05
9.42
9.67
9.87
9.93
9.71
9.03
7.79
6.02
3.85
1.47
-0.92
-3.18
-5.18
-6.86
-8.20
-9.29
-10.35
-11.70
-13.59
-16.14
-19.12
-22.02
-24.15
-24.86
-23.83
-21.09
-17.08
-12.45
-7.85
-3.75
-0.38
2.22
4.13
5.44
6.23
6.59
6.67
6.68
6.82
7.15
7.66
8.25
8.81
9.37
10.01
10.82
11.81
12.80
13.55
13.80
13.42
12.43
10.98
9.22
7.25
5.07
2.67
0.07
-2.64
-5.32
-7.88
-10.34
-12.87
-15.73
-19.17
-23.21
-27.57
-31.63
-34.57
-35.69
-34.61
-31.44
-26.77
-21.42
-16.14
-11.43
-7.46
-4.07
-1.05
1.76
4.40
6.79
8.79
10.32
11.38
12.08
12.54
12.92
13.30
13.72
14.12
14.42
14.59
14.62
14.53
14.32
13.91
13.21
12.10
10.57
8.69
6.59
4.40
2.18
-0.02
-2.18
-4.28
-6.31
-8.37
-10.67
-13.48
-16.97
-21.06
-25.28
-28.91
-31.12
-31.31
-29.29
-25.36
-20.19
-14.58
-9.21
-4.51
-0.61
2.55
5.12
7.31
9.25
11.08
12.92
14.80
16.68
18.43
19.90
21.01
21.79
22.38
22.94
23.55
24.16
24.58
24.67
24.36
23.68
22.68
21.39
19.77
17.76
15.39
12.74
9.99
7.26
4.63
2.11
-0.37
-2.84
-5.37
-8.02
-10.89
-14.13
-17.86
-22.10
-26.70
-31.27
-35.21
-37.87
-38.67
-37.29
-33.81
-28.66
-22.55
-16.26
-10.44
-5.48
-1.47
1.76
4.54
7.20
9.97
12.90
15.89
18.74
21.25
23.28
24.77
25.77
26.38
26.72
26.90
26.99
26.98
26.83
26.48
25.87
25.03
24.01
22.89
21.72
20.54
19.34
18.09
16.71
15.11
13.21
10.93
8.28
5.37
2.36
-0.53
-3.17
-5.54
-7.74
-10.04
-12.79
-16.23
-20.40
-24.98
-29.30
-32.51
-33.85
-32.92
-29.79
-24.96
-19.18
-13.21
-7.66
-2.85
1.11
4.34
7.07
9.58
12.07
14.56
16.95
19.02
20.59
21.61
22.18
22.42
22.45
22.31
21.96
21.42
20.80
20.29
20.04
20.03
20.12
20.02
19.49
18.37
16.72
14.73
12.66
10.76
9.24
8.11
7.27
6.43
5.27
3.52
1.14
-1.65
-4.45
-6.92
-8.99
-10.89
-13.13
-16.17
-20.15
-24.80
-29.44
-33.24
-35.48
-35.72
-33.87
-30.16
-25.07
-19.27
-13.44
-8.19
-3.90
-0.58
1.99
4.24
6.50
8.95
11.52
14.03
16.24
18.01
19.31
20.17
20.68
20.92
20.99
20.98
20.98
21.04
21.17
21.31
21.34
21.13
20.57
19.61
18.29
16.69
14.99
13.39
12.03
10.98
10.15
9.33
8.26
6.76
4.79
2.43
-0.08
-2.55
-4.84
-6.91
-8.84
-10.74
-12.76
-15.01
-17.63
-20.74
-24.34
-28.21
-31.85
-34.53
-35.47
-34.23
-30.83
-25.88
-20.30
-15.00
-10.54
-7.03
-4.23
-1.80
0.49
2.73
4.90
6.96
8.93
10.84
12.65
14.24
15.52
16.42
17.00
17.40
17.79
18.26
18.84
19.45
20.04
20.51
20.77
20.74
20.33
19.46
18.12
16.35
14.29
12.10
9.94
8.00
6.40
5.15
4.16
3.19
2.02
0.49
-1.38
-3.43
-5.41
-7.12
-8.49
-9.63
-10.78
-12.20
-14.14
-16.73
-19.95
-23.56
-27.15
-30.12
-31.82
-31.78
-29.81
-26.11
-21.25
-15.96
-10.99
-6.88
-3.88
-1.87
-0.48
0.79
2.37
4.43
6.86
9.32
11.45
13.04
14.13
14.93
15.62
16.27
16.79
17.02
16.92
16.56
16.14
15.81
15.58
15.33
14.88
14.10
12.98
11.64
10.26
8.96
7.83
6.87
6.00
5.07
3.96
2.57
0.95
-0.74
-2.32
-3.70
-4.89
-6.05
-7.36
-8.96
-10.89
-13.13
-15.64
-18.40
-21.29
-24.01
-26.06
-26.86
-25.93
-23.21
-19.09
-14.33
-9.74
-5.91
-3.10
-1.19
0.08
1.05
1.91
2.75
3.49
4.05
4.31
4.30
4.09
3.86
3.79
3.96
4.43
5.10
5.89
6.69
7.47
8.18
8.77
9.17
9.33
9.20
8.77
8.10
7.25
6.32
5.35
4.36
3.32
2.17
0.87
-0.56
-2.05
-3.52
-4.90
-6.25
-7.67
-9.37
-11.50
-14.10
-17.00
-19.83
-22.09
-23.29
-23.11
-21.49
-18.70
-15.16
-11.42
-7.93
-4.95
-2.63
-0.89
0.41
1.49
2.59
3.88
5.41
7.07
8.70
10.10
11.21
12.01
12.58
12.92
13.01
12.84
12.38
11.76
11.09
10.47
9.89
9.26
8.40
7.16
5.50
3.53
1.45
-0.51
-2.13
-3.36
-4.30
-5.19
-6.32
-7.90
-10.01
-12.54
-15.26
-17.83
-19.92
-21.19
-21.37
-20.27
-17.90
-14.50
-10.53
-6.60
-3.28
-0.87
0.62
1.53
2.30
3.31
4.65
6.15
7.45
8.21
8.29
7.82
7.11
6.54
6.36
6.61
7.17
7.80
8.33
8.66
8.73
8.55
8.07
7.17
5.77
3.92
1.82
-0.18
-1.78
-2.81
-3.40
-3.95
-4.93
-6.76
-9.59
-13.23
-17.21
-20.86
-23.52
-24.71
-24.24
-22.22
-19.03
-15.20
-11.29
-7.77
-4.91
-2.77
-1.14
0.29
1.85
3.70
5.80
7.87
9.55
10.50
10.62
10.07
9.21
8.45
8.09
8.20
8.64
9.12
9.40
9.42
9.27
9.10
8.98
8.82
8.37
7.46
6.00
4.15
2.15
0.23
-1.48
-3.02
-4.49
-6.04
-7.82
-9.96
-12.55
-15.56
-18.82
-21.92
-24.34
-25.58
-25.31
-23.47
-20.32
-16.38
-12.25
-8.47
-5.34
-2.94
-1.12
0.32
1.54
2.62
3.60
4.53
5.51
6.64
7.93
9.28
10.48
11.36
11.85
12.04
12.04
11.97
11.88
11.75
11.61
11.47
11.35
11.21
10.92
10.33
9.29
7.74
5.73
3.42
1.01
-1.26
-3.16
-4.60
-5.61
-6.49
-7.64
-9.45
-12.14
-15.55
-19.18
-22.36
-24.39
-24.84
-23.60
-20.91
-17.28
-13.26
-9.38
-5.98
-3.24
-1.17
0.32
1.44
2.41
3.51
4.92
6.71
8.78
10.91
12.83
14.32
15.33
15.88
16.13
16.22
16.25
16.31
16.43
16.61
16.82
16.95
16.81
16.22
15.02
13.31
11.30
9.35
7.70
6.45
5.43
4.36
2.98
1.20
-0.84
-2.87
-4.65
-6.08
-7.28
-8.55
-10.17
-12.38
-15.25
-18.70
-22.40
-25.86
-28.44
-29.54
-28.76
-26.09
-21.97
-17.12
-12.34
-8.25
-5.11
-2.79
-1.02
0.51
1.99
3.45
4.87
6.23
7.56
8.87
10.17
11.42
12.54
13.47
14.13
14.54
14.74
14.83
14.92
15.09
15.30
15.45
15.38
15.00
14.34
13.49
12.63
11.86
11.22
10.66
10.10
9.45
8.61
7.50
6.00
4.06
1.75
-0.75
-3.18
-5.31
-7.04
-8.50
-9.97
-11.80
-14.24
-17.32
-20.78
-24.07
-26.56
-27.64
-26.97
-24.57
-20.83
-16.43
-12.04
-8.24
-5.24
-2.97
-1.13
0.58
2.32
4.06
5.66
6.97
7.99
8.81
9.61
10.45
11.26
11.89
12.25
12.37
12.48
12.87
13.69
14.85
16.03
16.75
16.64
15.58
13.74
11.53
9.43
7.77
6.67
5.96
5.38
4.68
3.75
2.67
1.56
0.45
-0.71
-2.05
-3.67
-5.45
-7.15
-8.51
-9.50
-10.29
-11.36
-13.13
-15.82
-19.28
-22.98
-26.19
-28.18
-28.49
-27.04
-24.09
-20.20
-16.02
-12.14
-8.92
-6.50
-4.74
-3.38
-2.18
-0.95
0.35
1.68
3.00
4.27
5.45
6.53
7.50
8.38
9.19
10.03
10.96
11.99
13.04
13.91
14.40
14.41
14.00
13.35
12.62
11.93
11.21
10.36
9.29
8.00
6.60
5.25
4.06
3.06
2.14
1.12
-0.14
-1.75
-3.67
-5.77
-7.85
-9.70
-11.30
-12.77
-14.40
-16.47
-19.11
-22.10
-24.96
-27.04
-27.77
-26.86
-24.37
-20.74
-16.55
-12.37
-8.62
-5.47
-2.91
-0.81
0.98
2.61
4.14
5.62
7.06
8.47
9.78
10.95
11.90
12.57
12.95
13.10
13.10
13.04
12.97
12.91
12.86
12.80
12.65
12.38
11.88
11.05
9.90
8.51
7.07
5.77
4.71
3.87
3.14
2.35
1.38
0.22
-1.10
-2.53
-4.01
-5.53
-7.08
-8.64
-10.22
-11.87
-13.69
-15.81
-18.30
-21.06
-23.74
-25.81
-26.64
-25.86
-23.42
-19.74
-15.53
-11.55
-8.29
-5.89
-4.16
-2.76
-1.42
-0.01
1.40
2.76
4.04
5.31
6.60
7.92
9.16
10.19
10.93
11.41
11.76
12.11
12.50
12.83
12.95
12.76
12.28
11.67
11.10
10.63
10.19
9.57
8.60
7.28
5.70
4.08
2.54
1.09
-0.31
-1.72
-3.12
-4.47
-5.72
-6.92
-8.19
-9.70
-11.51
-13.64
-16.03
-18.59
-21.21
-23.72
-25.83
-27.14
-27.27
-26.01
-23.43
-19.88
-15.95
-12.13
-8.77
-5.96
-3.57
-1.42
0.62
2.59
4.45
6.11
7.60
9.01
10.43
11.92
13.44
14.85
16.04
16.94
17.53
17.90
18.11
18.20
18.12
17.82
17.21
16.23
14.93
13.40
11.81
10.29
8.91
7.71
6.58
5.41
4.08
2.50
0.66
-1.39
-3.52
-5.64
-7.63
-9.48
-11.31
-13.31
-15.69
-18.62
-22.07
-25.84
-29.53
-32.61
-34.55
-34.92
-33.44
-30.15
-25.45
-20.00
-14.56
-9.81
-6.07
-3.32
-1.20
0.73
2.80
5.07
7.40
9.57
11.39
12.85
13.99
14.96
15.87
16.78
17.67
18.54
19.31
19.93
20.36
20.59
20.64
20.51
20.17
19.55
18.57
17.24
15.64
13.94
12.29
10.74
9.23
7.60
5.67
3.37
0.74
-2.07
-4.86
-7.44
-9.75
-11.85
-13.85
-15.95
-18.32
-21.05
-24.14
-27.44
-30.63
-33.30
-34.94
-35.07
-33.44
-30.06
-25.26
-19.65
-13.91
-8.72
-4.48
-1.34
0.87
2.53
4.06
5.83
8.00
10.50
13.06
15.35
17.16
18.40
19.18
19.70
20.11
20.48
20.80
21.11
21.46
21.92
22.54
23.23
23.79
23.99
23.67
22.84
21.69
20.44
19.23
18.08
16.89
15.53
14.01
12.37
10.76
9.25
7.78
6.20
4.27
1.86
-1.02
-4.18
-7.25
-9.88
-11.87
-13.29
-14.54
-16.18
-18.74
-22.51
-27.33
-32.61
-37.48
-41.00
-42.45
-41.47
-38.16
-32.97
-26.65
-20.01
-13.79
-8.50
-4.32
-1.14
1.35
3.54
5.70
7.93
10.22
12.43
14.49
16.33
17.94
19.30
20.38
21.18
21.74
22.21
22.73
23.45
24.39
25.42
26.32
26.81
26.73
25.99
24.72
23.15
21.56
20.22
19.24
18.56
18.00
17.30
16.29
14.90
13.20
11.28
9.23
7.03
4.65
2.06
-0.69
-3.49
-6.16
-8.61
-10.79
-12.77
-14.72
-16.87
-19.47
-22.65
-26.36
-30.28
-33.80
-36.20
-36.85
-35.41
-31.98
-27.06
-21.44
-15.91
-11.14
-7.42
-4.73
-2.75
-1.05
0.75
2.85
5.22
7.66
9.95
11.93
13.56
14.87
15.91
16.71
17.31
17.77
18.23
18.82
19.61
20.51
21.33
21.77
21.64
20.85
19.53
17.90
16.16
14.44
12.73
10.95
8.99
6.80
4.44
2.07
-0.13
-2.02
-3.61
-5.03
-6.50
-8.27
-10.51
-13.28
-16.48
-19.80
-22.78
-24.85
-25.47
-24.37
-21.64
-17.71
-13.29
-9.07
-5.52
-2.78
-0.66
1.10
2.76
4.42
6.01
7.45
8.64
9.59
10.35
11.00
11.58
12.11
12.57
12.96
13.32
13.72
14.18
14.66
15.01
15.05
14.63
13.74
12.51
11.14
9.85
8.73
7.72
6.65
5.36
3.67
1.59
-0.81
-3.32
-5.73
-7.86
-9.65
-11.24
-12.87
-14.86
-17.44
-20.68
-24.32
-27.82
-30.46
-31.50
-30.47
-27.33
-22.49
-16.76
-11.05
-6.17
-2.60
-0.32
1.02
1.98
3.10
4.62
6.48
8.39
10.03
11.23
12.06
12.72
13.41
14.22
15.07
15.79
16.28
16.53
16.64
16.68
16.68
16.54
16.16
15.50
14.58
13.49
12.33
11.13
9.92
8.64
7.23
5.59
3.66
1.41
-1.09
-3.69
-6.18
-8.42
-10.40
-12.31
-14.44
-17.08
-20.36
-24.13
-27.93
-31.13
-33.07
-33.29
-31.67
-28.49
-24.24
-19.53
-14.80
-10.37
-6.41
-3.01
-0.21
1.96
3.57
4.80
5.93
7.14
8.47
9.83
11.02
11.87
12.44
12.92
13.53
14.44
15.61
16.87
17.96
18.74
19.12
19.11
18.72
17.91
16.64
14.93
12.95
10.94
9.17
7.78
6.69
5.64
4.36
2.71
0.73
-1.40
-3.43
-5.28
-6.94
-8.56
-10.37
-12.54
-15.18
-18.30
-21.71
-25.05
-27.81
-29.43
-29.48
-27.78
-24.53
-20.19
-15.44
-10.86
-6.84
-3.48
-0.68
1.74
3.91
5.83
7.43
8.73
9.83
10.91
12.11
13.39
14.53
15.29
15.48
15.19
14.69
14.28
14.14
14.25
14.44
14.51
14.40
14.14
13.83
13.50
13.09
12.46
11.55
10.36
9.02
7.65
6.34
5.07
3.74
2.21
0.46
-1.45
-3.34
-5.08
-6.62
-8.07
-9.63
-11.62
-14.25
-17.62
-21.63
-25.98
-30.12
-33.44
-35.30
-35.24
-33.19
-29.45
-24.66
-19.64
-15.05
-11.31
-8.45
-6.24
-4.32
-2.41
-0.37
1.81
4.02
6.16
8.11
9.79
11.17
12.24
13.05
13.74
14.44
15.23
16.10
16.91
17.46
17.61
17.33
16.78
16.17
15.64
15.19
14.66
13.81
12.48
10.75
8.88
7.18
5.86
4.87
3.97
2.80
1.15
-0.97
-3.34
-5.70
-7.89
-9.88
-11.82
-13.89
-16.24
-18.96
-22.06
-25.44
-28.82
-31.78
-33.71
-34.02
-32.35
-28.78
-23.84
-18.35
-13.18
-8.90
-5.74
-3.55
-2.01
-0.72
0.61
2.19
4.10
6.33
8.80
11.26
13.43
15.02
15.88
16.03
15.69
15.20
14.93
15.10
15.72
16.59
17.36
17.71
17.44
16.58
15.29
13.77
12.23
10.73
9.33
8.05
6.84
5.63
4.28
2.60
0.48
-2.04
-4.75
-7.34
-9.59
-11.47
-13.18
-15.06
-17.40
-20.30
-23.56
-26.72
-29.18
-30.31
-29.67
-27.23
-23.31
-18.52
-13.62
-9.24
-5.73
-3.09
-1.10
0.57
2.18
3.83
5.46
6.92
8.08
8.89
9.45
9.90
10.43
11.12
11.99
12.98
13.97
14.85
15.53
15.93
16.01
15.75
15.17
14.36
13.42
12.42
11.39
10.30
9.06
7.59
5.85
3.83
1.60
-0.77
-3.19
-5.61
-8.09
-10.74
-13.73
-17.11
-20.75
-24.24
-26.97
-28.30
-27.76
-25.28
-21.20
-16.16
-10.87
-5.90
-1.58
2.04
5.04
7.56
9.76
11.78
13.77
15.85
18.05
20.30
22.45
24.40
26.13
27.72
29.26
30.79
32.23
33.44
34.28
34.71
34.74
34.36
33.48
32.03
29.98
27.42
24.59
21.74
19.06
16.56
14.16
11.62
8.72
5.27
1.30
-2.95
-6.97
-10.06
-11.57
-11.15
-8.92
-5.48
-1.61
1.97
4.87
7.01
8.48
9.34
9.54
9.01
7.89
6.48
5.25
4.56
4.47
4.74
4.96
4.81
4.24
3.45
2.76
2.37
2.26
2.16
1.75
0.80
-0.72
-2.73
-5.08
-7.74
-10.77
-14.25
-18.19
-22.42
-26.65
-30.65
-34.33
-37.78
-41.10
-44.28
-47.00
-48.76
-49.05
-47.55
-44.36
-39.90
-34.80
-29.66
-24.90
-20.73
-17.24
-14.44
-12.37
-11.04
-10.37
-10.13
-9.99
-9.58
-8.66
-7.17
-5.28
-3.25
-1.35
0.24
1.49
2.47
3.22
3.79
4.05
3.79
2.73
0.65
-2.50
-6.44
-10.70
-14.68
-18.01
-20.66
-23.00
-25.58
-28.81
-32.73
-36.85
-40.37
-42.45
-42.51
-40.46
-36.70
-31.91
-26.84
-22.07
-17.87
-14.21
-10.88
-7.66
-4.40
-1.10
2.12
5.12
7.77
9.97
11.68
12.90
13.67
14.10
14.36
14.61
15.00
15.64
16.53
17.60
18.64
19.38
19.52
18.79
17.09
14.53
11.46
8.24
5.19
2.38
-0.36
-3.30
-6.69
-10.53
-14.52
-18.07
-20.50
-21.26
-20.10
-17.18
-13.06
-8.47
-4.09
-0.32
2.74
5.29
7.59
9.84
12.11
14.30
16.27
17.92
19.17
19.98
20.32
20.19
19.68
18.93
18.17
17.64
17.45
17.64
18.13
18.84
19.61
20.29
20.65
20.47
19.58
17.98
15.85
13.48
11.09
8.81
6.63
4.47
2.31
0.20
-1.85
-3.90
-6.15
-8.83
-12.02
-15.46
-18.58
-20.66
-21.09
-19.68
-16.64
-12.58
-8.18
-4.06
-0.53
2.30
4.52
6.31
7.93
9.61
11.59
13.96
16.59
19.17
21.30
22.74
23.51
23.84
24.05
24.34
24.66
24.84
24.78
24.49
24.15
23.83
23.42
22.63
21.15
18.93
16.23
13.59
11.50
10.17
9.46
8.94
8.18
6.95
5.25
3.28
1.25
-0.78
-2.85
-5.03
-7.43
-10.07
-12.95
-15.98
-18.98
-21.59
-23.34
-23.79
-22.63
-19.95
-16.20
-12.06
-8.19
-4.97
-2.53
-0.73
0.67
1.87
3.03
4.26
5.63
7.20
8.92
10.68
12.29
13.62
14.55
15.11
15.36
15.42
15.42
15.46
15.63
15.93
16.23
16.31
15.94
15.01
13.63
12.02
10.47
9.15
8.07
7.05
5.90
4.51
2.92
1.26
-0.36
-1.90
-3.47
-5.20
-7.15
-9.25
-11.32
-13.23
-14.94
-16.53
-18.11
-19.65
-20.95
-21.66
-21.42
-20.06
-17.72
-14.76
-11.70
-8.90
-6.57
-4.66
-3.01
-1.42
0.27
2.15
4.20
6.34
8.37
10.09
11.32
12.02
12.26
12.24
12.17
12.19
12.34
12.53
12.68
12.69
12.50
12.12
11.54
10.77
9.80
8.67
7.46
6.26
5.14
4.12
3.18
2.27
1.37
0.46
-0.50
-1.51
-2.59
-3.71
-4.79
-5.74
-6.46
-6.99
-7.44
-8.09
-9.22
-11.02
-13.44
-16.16
-18.64
-20.32
-20.82
-19.99
-18.07
-15.41
-12.49
-9.68
-7.22
-5.21
-3.60
-2.33
-1.27
-0.33
0.58
1.50
2.45
3.38
4.26
5.03
5.64
6.05
6.24
6.32
6.45
6.81
7.53
8.57
9.76
10.80
11.42
11.43
10.84
9.80
8.52
7.24
6.11
5.18
4.41
3.72
3.02
2.25
1.38
0.40
-0.72
-1.96
-3.28
-4.59
-5.78
-6.77
-7.51
-8.09
-8.67
-9.43
-10.51
-12.02
-13.84
-15.71
-17.20
-17.83
-17.30
-15.57
-12.97
-10.08
-7.50
-5.64
-4.58
-4.09
-3.76
-3.23
-2.29
-0.95
0.68
2.38
3.95
5.23
6.11
6.57
6.65
6.49
6.23
5.99
5.85
5.80
5.79
5.76
5.62
5.33
4.82
4.06
3.09
2.02
1.09
0.54
0.45
0.74
1.08
1.10
0.55
-0.60
-2.13
-3.72
-5.07
-6.12
-6.93
-7.66
-8.46
-9.39
-10.50
-11.81
-13.38
-15.21
-17.13
-18.79
-19.73
-19.53
-18.04
-15.43
-12.19
-8.89
-6.01
-3.81
-2.32
-1.38
-0.83
-0.47
-0.16
0.18
0.63
1.18
1.80
2.40
2.90
3.21
3.29
3.23
3.12
3.14
3.42
3.99
4.77
5.60
6.26
6.56
6.41
5.80
4.85
3.79
2.86
2.29
2.16
2.34
2.54
2.42
1.72
0.44
-1.17
-2.74
-3.95
-4.67
-4.99
-5.19
-5.64
-6.63
-8.34
-10.74
-13.62
-16.56
-19.10
-20.73
-21.11
-20.14
-17.96
-14.90
-11.44
-7.99
-4.93
-2.52
-0.86
0.12
0.57
0.77
1.01
1.48
2.21
3.06
3.84
4.41
4.72
4.88
5.03
5.30
5.73
6.27
6.87
7.44
7.93
8.23
8.27
8.00
7.41
6.57
5.60
4.62
3.73
2.94
2.20
1.47
0.69
-0.19
-1.17
-2.25
-3.44
-4.73
-6.15
-7.74
-9.58
-11.76
-14.30
-17.11
-19.88
-22.19
-23.55
-23.62
-22.32
-19.93
-16.94
-13.89
-11.19
-9.02
-7.34
-5.98
-4.80
-3.73
-2.78
-1.94
-1.19
-0.49
0.22
0.93
1.59
2.14
2.54
2.82
3.06
3.39
3.90
4.62
5.46
6.20
6.59
6.45
5.77
4.63
3.24
1.73
0.20
-1.32
-2.83
-4.26
-5.58
-6.79
-8.00
-9.34
-11.04
-13.20
-15.85
-18.84
-21.86
-24.49
-26.30
-26.89
-26.05
-23.85
-20.62
-16.87
-13.17
-9.94
-7.35
-5.36
-3.80
-2.40
-0.99
0.52
2.15
3.83
5.48
6.97
8.20
9.12
9.74
10.15
10.52
11.00
11.66
12.45
13.22
13.83
14.15
14.16
13.87
13.32
12.48
11.34
9.86
8.08
6.06
3.88
1.64
-0.67
-3.02
-5.48
-8.07
-10.84
-13.84
-17.10
-20.65
-24.35
-27.93
-30.91
-32.72
-32.89
-31.20
-27.84
-23.34
-18.41
-13.73
-9.73
-6.55
-4.01
-1.84
0.26
2.45
4.79
7.20
9.49
11.49
13.07
14.21
15.00
15.60
16.15
16.79
17.55
18.43
19.31
20.05
20.46
20.37
19.73
18.59
17.13
15.56
14.02
12.55
11.02
9.29
7.21
4.80
2.21
-0.35
-2.70
-4.82
-6.84
-9.06
-11.76
-15.14
-19.14
-23.46
-27.50
-30.56
-31.99
-31.41
-28.85
-24.72
-19.66
-14.33
-9.25
-4.66
-0.60
2.97
6.08
8.73
10.95
12.82
14.47
16.02
17.51
18.85
19.92
20.62
20.97
21.09
21.19
21.44
21.91
22.53
23.13
23.48
23.45
23.02
22.30
21.47
20.63
19.75
18.67
17.20
15.19
12.71
9.91
7.07
4.39
1.97
-0.27
-2.54
-5.10
-8.19
-11.92
-16.20
-20.72
-24.95
-28.29
-30.13
-30.05
-27.94
-24.05
-18.96
-13.40
-8.08
-3.47
0.31
3.42
6.20
8.91
11.66
14.42
17.04
19.42
21.50
23.25
24.63
25.56
25.98
25.91
25.50
25.02
24.72
24.71
24.93
25.14
25.07
24.49
23.34
21.71
19.79
17.82
16.00
14.45
13.15
12.00
10.82
9.46
7.83
5.97
3.99
1.95
-0.21
-2.66
-5.59
-9.11
-13.13
-17.36
-21.39
-24.67
-26.69
-27.03
-25.47
-22.15
-17.58
-12.58
-8.01
-4.43
-1.93
-0.16
1.47
3.45
5.96
8.85
11.74
14.29
16.33
17.90
19.14
20.22
21.18
22.01
22.72
23.29
23.80
24.29
24.77
25.19
25.39
25.21
24.50
23.20
21.35
19.16
16.92
15.01
13.63
12.82
12.29
11.62
10.46
8.66
6.38
3.96
1.70
-0.30
-2.14
-4.08
-6.28
-8.85
-11.81
-15.11
-18.72
-22.45
-25.91
-28.52
-29.65
-28.87
-26.18
-22.03
-17.19
-12.40
-8.18
-4.72
-1.94
0.35
2.33
4.14
5.88
7.65
9.44
11.15
12.55
13.48
13.84
13.76
13.53
13.41
13.59
14.06
14.76
15.57
16.41
17.24
17.97
18.45
18.53
18.11
17.20
15.93
14.48
13.02
11.64
10.40
9.21
7.96
6.49
4.69
2.53
0.12
-2.34
-4.61
-6.57
-8.19
-9.62
-11.06
-12.72
-14.70
-17.02
-19.51
-21.90
-23.76
-24.65
-24.23
-22.43
-19.47
-15.86
-12.19
-8.97
-6.52
-4.89
-3.91
-3.33
-2.85
-2.23
-1.34
-0.17
1.14
2.41
3.47
4.24
4.74
5.13
5.52
6.04
6.76
7.72
8.89
10.21
11.55
12.74
13.66
14.17
14.24
13.85
13.03
11.83
10.39
8.88
7.52
6.45
5.69
5.10
4.43
3.46
2.06
0.34
-1.49
-3.21
-4.69
-6.03
-7.46
-9.24
-11.51
-14.19
-16.98
-19.50
-21.34
-22.27
-22.17
-21.10
-19.16
-16.55
-13.53
-10.42
-7.52
-5.06
-3.13
-1.66
-0.42
0.78
2.11
3.62
5.21
6.74
8.05
9.05
9.74
10.22
10.58
10.86
11.03
11.04
10.85
10.45
9.89
9.21
8.39
7.40
6.23
4.95
3.71
2.69
2.02
1.63
1.31
0.78
-0.17
-1.60
-3.36
-5.24
-7.01
-8.51
-9.71
-10.69
-11.58
-12.55
-13.71
-15.14
-16.81
-18.55
-20.07
-21.07
-21.23
-20.42
-18.62
-16.04
-13.01
-9.93
-7.15
-4.89
-3.15
-1.78
-0.54
0.75
2.12
3.48
4.64
5.54
6.22
6.81
7.44
8.06
8.52
8.65
8.38
7.81
7.20
6.80
6.73
6.90
7.11
7.12
6.79
6.12
5.20
4.17
3.14
2.16
1.23
0.28
-0.76
-1.96
-3.30
-4.68
-5.96
-7.05
-7.98
-8.86
-9.84
-11.04
-12.51
-14.17
-15.97
-17.78
-19.42
-20.64
-21.13
-20.62
-18.99
-16.46
-13.44
-10.41
-7.72
-5.48
-3.57
-1.83
-0.19
1.31
2.57
3.51
4.20
4.74
5.27
5.84
6.39
6.80
6.96
6.84
6.49
6.07
5.74
5.68
5.97
6.55
7.22
7.70
7.75
7.30
6.47
5.54
4.77
4.30
4.07
3.89
3.45
2.56
1.18
-0.54
-2.33
-3.96
-5.32
-6.46
-7.58
-8.95
-10.77
-13.10
-15.81
-18.69
-21.38
-23.52
-24.72
-24.72
-23.41
-20.95
-17.72
-14.22
-10.90
-8.05
-5.74
-3.91
-2.38
-1.03
0.26
1.55
2.87
4.20
5.50
6.60
7.34
7.59
7.39
6.88
6.29
5.86
5.70
5.80
6.06
6.37
6.65
6.85
6.91
6.73
6.19
5.21
3.83
2.23
0.71
-0.51
-1.29
-1.74
-2.06
-2.50
-3.19
-4.15
-5.35
-6.74
-8.44
-10.52
-12.98
-15.64
-18.05
-19.69
-20.09
-19.08
-16.85
-13.88
-10.74
-7.86
-5.42
-3.36
-1.50
0.25
1.92
3.45
4.76
5.85
6.75
7.52
8.21
8.79
9.25
9.57
9.77
9.91
10.02
10.08
10.01
9.73
9.20
8.39
7.40
6.29
5.14
4.00
2.88
1.81
0.85
0.04
-0.62
-1.16
-1.70
-2.36
-3.27
-4.49
-6.05
-7.92
-10.04
-12.29
-14.53
-16.55
-18.14
-19.04
-19.02
-17.94
-15.85
-12.96
-9.66
-6.41
-3.58
-1.40
0.09
1.03
1.62
2.03
2.40
2.79
3.22
3.70
4.21
4.75
5.33
5.95
6.57
7.16
7.68
8.12
8.54
8.98
9.42
9.79
9.94
9.72
9.07
7.98
6.55
4.90
3.20
1.55
0.05
-1.23
-2.34
-3.39
-4.57
-6.10
-8.12
-10.66
-13.57
-16.60
-19.41
-21.61
-22.84
-22.86
-21.62
-19.29
-16.26
-12.95
-9.75
-6.88
-4.39
-2.22
-0.31
1.41
3.00
4.49
5.97
7.44
8.86
10.08
10.92
11.31
11.32
11.19
11.19
11.53
12.24
13.17
14.07
14.70
14.91
14.64
13.88
12.73
11.31
9.79
8.34
7.03
5.83
4.61
3.21
1.55
-0.34
-2.33
-4.26
-6.05
-7.75
-9.50
-11.48
-13.84
-16.69
-20.05
-23.73
-27.33
-30.21
-31.74
-31.45
-29.31
-25.71
-21.33
-16.91
-13.02
-9.85
-7.33
-5.17
-3.05
-0.76
1.78
4.49
7.18
9.64
11.74
13.43
14.81
15.96
16.94
17.77
18.44
19.02
19.58
20.22
20.90
21.51
21.84
21.70
20.98
19.71
18.03
16.16
14.30
12.58
11.05
9.63
8.15
6.44
4.38
1.98
-0.56
-3.03
-5.25
-7.18
-8.92
-10.68
-12.68
-15.12
-18.08
-21.50
-25.21
-28.78
-31.65
-33.25
-33.11
-31.10
-27.50
-22.95
-18.21
-13.94
-10.42
-7.62
-5.22
-2.82
-0.20
2.71
5.75
8.73
11.42
13.74
15.66
17.21
18.42
19.30
19.90
20.29
20.57
20.84
21.14
21.48
21.83
22.14
22.31
22.22
21.72
20.67
19.04
16.94
14.66
12.50
10.70
9.34
8.29
7.31
6.14
4.67
2.90
0.94
-1.07
-3.04
-4.90
-6.71
-8.58
-10.72
-13.33
-16.60
-20.56
-24.98
-29.37
-33.01
-35.21
-35.42
-33.53
-29.85
-25.03
-19.89
-15.11
-11.05
-7.74
-4.92
-2.27
0.46
3.34
6.24
9.00
11.46
13.57
15.36
16.89
18.21
19.34
20.31
21.15
21.90
22.62
23.31
23.92
24.32
24.38
24.00
23.12
21.80
20.15
18.30
16.46
14.77
13.36
12.26
11.33
10.33
8.97
7.07
4.61
1.81
-0.98
-3.43
-5.43
-7.14
-8.91
-11.10
-13.96
-17.43
-21.17
-24.67
-27.30
-28.53
-28.03
-25.77
-22.05
-17.48
-12.74
-8.41
-4.82
-1.94
0.47
2.73
5.05
7.44
9.73
11.68
13.10
13.92
14.29
14.44
14.66
15.14
15.94
16.98
18.05
18.93
19.43
19.50
19.15
18.45
17.52
16.46
15.36
14.26
13.17
11.99
10.61
8.90
6.78
4.30
1.65
-0.95
-3.31
-5.38
-7.32
-9.38
-11.80
-14.72
-18.06
-21.52
-24.67
-27.03
-28.20
-27.89
-26.06
-22.88
-18.73
-14.13
-9.67
-5.77
-2.68
-0.32
1.56
3.28
5.06
6.87
8.52
9.77
10.55
10.99
11.38
11.99
12.89
13.90
14.71
15.05
14.82
14.13
13.20
12.21
11.24
10.20
8.99
7.53
5.81
3.91
1.98
0.16
-1.46
-2.90
-4.29
-5.82
-7.69
-10.00
-12.79
-15.94
-19.23
-22.33
-24.79
-26.14
-26.02
-24.26
-21.01
-16.73
-12.03
-7.55
-3.75
-0.82
1.31
2.88
4.14
5.36
6.69
8.12
9.57
10.87
11.89
12.59
13.01
13.23
13.31
13.22
12.93
12.43
11.81
11.24
10.85
10.61
10.35
9.78
8.68
7.00
4.88
2.59
0.39
-1.56
-3.24
-4.76
-6.31
-8.13
-10.44
-13.34
-16.73
-20.27
-23.46
-25.66
-26.39
-25.43
-22.89
-19.25
-15.12
-11.10
-7.52
-4.47
-1.78
0.78
3.38
6.03
8.56
10.74
12.38
13.39
13.85
13.93
13.88
13.92
14.13
14.50
14.92
15.28
15.53
15.66
15.73
15.68
15.43
14.81
13.72
12.17
10.32
8.35
6.43
4.58
2.76
0.89
-1.06
-3.01
-4.94
-6.81
-8.73
-10.91
-13.54
-16.71
-20.25
-23.74
-26.56
-28.09
-27.89
-25.94
-22.59
-18.49
-14.34
-10.61
-7.50
-4.90
-2.60
-0.43
1.64
3.57
5.34
7.02
8.73
10.52
12.29
13.82
14.87
15.29
15.15
14.71
14.28
14.11
14.24
14.55
14.83
14.92
14.78
14.48
14.13
13.75
13.24
12.40
11.08
9.28
7.14
4.87
2.67
0.64
-1.29
-3.17
-5.13
-7.21
-9.49
-12.01
-14.84
-18.00
-21.35
-24.60
-27.22
-28.70
-28.58
-26.70
-23.25
-18.77
-13.95
-9.50
-5.87
-3.18
-1.23
0.35
1.92
3.67
5.61
7.54
9.26
10.62
11.61
12.39
13.09
13.82
14.54
15.16
15.58
15.77
15.78
15.71
15.62
15.47
15.21
14.74
14.09
13.31
12.48
11.65
10.81
9.92
9.01
8.11
7.21
6.27
5.09
3.53
1.53
-0.75
-2.99
-4.91
-6.39
-7.60
-8.95
-10.82
-13.40
-16.58
-19.99
-23.16
-25.72
-27.33
-27.78
-26.95
-24.82
-21.58
-17.58
-13.40
-9.59
-6.56
-4.42
-2.98
-1.85
-0.65
0.87
2.72
4.73
6.68
8.39
9.79
10.86
11.65
12.17
12.46
12.56
12.57
12.58
12.69
12.87
13.02
13.02
12.77
12.26
11.55
10.73
9.81
8.79
7.65
6.40
5.08
3.75
2.41
1.04
-0.44
-2.04
-3.66
-5.16
-6.42
-7.46
-8.49
-9.78
-11.57
-13.90
-16.65
-19.53
-22.20
-24.32
-25.59
-25.80
-24.89
-22.93
-20.24
-17.29
-14.57
-12.45
-11.03
-10.10
-9.30
-8.26
-6.75
-4.80
-2.63
-0.58
1.09
2.27
3.08
3.75
4.53
5.53
6.66
7.74
8.58
9.17
9.63
10.15
10.87
11.72
12.44
12.75
12.50
11.71
10.61
9.46
8.47
7.66
6.98
6.32
5.64
4.92
4.10
3.11
1.85
0.25
-1.66
-3.72
-5.76
-7.63
-9.36
-11.12
-13.14
-15.56
-18.35
-21.20
-23.54
-24.81
-24.59
-22.82
-19.81
-16.15
-12.48
-9.24
-6.60
-4.42
-2.47
-0.56
1.37
3.22
4.85
6.14
7.12
7.90
8.58
9.21
9.74
10.01
9.96
9.62
9.20
8.97
9.17
9.87
10.93
12.02
12.78
12.97
12.55
11.68
10.61
9.56
8.66
7.88
7.10
6.16
4.95
3.43
1.65
-0.25
-2.10
-3.74
-5.12
-6.25
-7.29
-8.43
-9.88
-11.74
-14.04
-16.63
-19.24
-21.51
-23.08
-23.63
-23.03
-21.35
-18.84
-15.86
-12.75
-9.74
-6.94
-4.38
-2.06
0.01
1.84
3.42
4.78
5.97
7.01
7.96
8.82
9.59
10.25
10.76
11.06
11.14
11.04
10.83
10.62
10.46
10.38
10.33
10.25
10.09
9.86
9.47
8.85
7.81
6.26
4.19
1.81
-0.54
-2.55
-4.06
-5.15
-6.11
-7.26
-8.82
-10.87
-13.32
-15.98
-18.61
-20.88
-22.47
-23.03
-22.33
-20.40
-17.54
-14.23
-10.98
-8.12
-5.73
-3.68
-1.80
-0.02
1.66
3.16
4.42
5.45
6.30
7.07
7.77
8.38
8.86
9.18
9.37
9.48
9.51
9.48
9.34
9.08
8.66
8.10
7.38
6.52
5.54
4.49
3.40
2.33
1.29
0.26
-0.77
-1.80
-2.81
-3.77
-4.73
-5.80
-7.12
-8.75
-10.60
-12.34
-13.54
-13.80
-12.87
-10.80
-7.87
-4.51
-1.17
1.77
4.12
5.78
6.87
7.58
8.20
8.97
10.04
11.43
13.00
14.55
15.84
16.74
17.21
17.27
17.05
16.70
16.38
16.20
16.19
16.21
16.05
15.44
14.20
12.29
9.88
7.23
4.63
2.26
0.15
-1.84
-3.94
-6.43
-9.49
-13.22
-17.51
-22.05
-26.26
-29.52
-31.28
-31.29
-29.68
-26.97
-23.80
-20.75
-18.15
-16.07
-14.42
-13.10
-12.10
-11.46
-11.19
-11.22
-11.40
-11.54
-11.55
-11.44
-11.31
-11.30
-11.45
-11.68
-11.84
-11.75
-11.37
-10.87
-10.59
-10.90
-12.03
-13.90
-16.11
-18.12
-19.50
-20.13
-20.27
-20.41
-21.07
-22.57
-24.81
-27.37
-29.60
-30.87
-30.71
-28.96
-25.79
-21.61
-16.90
-12.09
-7.51
-3.32
0.41
3.68
6.51
8.90
10.90
12.55
13.94
15.20
16.38
17.59
18.80
19.94
20.85
21.41
21.54
21.35
21.02
20.75
20.61
20.49
20.06
18.99
17.09
14.40
11.23
7.94
4.83
1.97
-0.77
-3.66
-6.91
-10.54
-14.28
-17.60
-19.87
-20.55
-19.44
-16.72
-12.93
-8.73
-4.64
-0.90
2.48
5.66
8.73
11.59
14.08
16.03
17.47
18.58
19.62
20.76
21.97
23.01
23.67
23.86
23.71
23.54
23.64
24.07
24.64
24.96
24.66
23.59
21.84
19.64
17.27
14.89
12.59
10.42
8.45
6.69
5.04
3.20
0.75
-2.65
-7.08
-12.19
-17.31
-21.57
-24.30
-25.10
-24.02
-21.38
-17.71
-13.56
-9.39
-5.47
-1.91
1.37
4.53
7.73
11.03
14.33
17.38
19.95
21.88
23.15
23.91
24.35
24.61
24.73
24.71
24.50
24.13
23.68
23.23
22.84
22.50
22.13
21.60
20.76
19.49
17.75
15.55
12.98
10.20
7.42
4.76
2.31
0.02
-2.24
-4.63
-7.30
-10.29
-13.53
-16.76
-19.60
-21.58
-22.27
-21.44
-19.13
-15.69
-11.65
-7.54
-3.79
-0.54
2.23
4.60
6.66
8.43
9.93
11.22
12.41
13.55
14.67
15.70
16.56
17.23
17.75
18.24
18.76
19.32
19.80
20.05
19.98
19.61
19.00
18.22
17.28
16.10
14.65
12.89
10.90
8.77
6.59
4.38
2.17
-0.02
-2.16
-4.16
-6.03
-7.86
-9.81
-12.02
-14.53
-17.14
-19.46
-21.06
-21.56
-20.84
-18.97
-16.27
-13.13
-9.94
-6.98
-4.39
-2.18
-0.26
1.46
3.05
4.49
5.74
6.75
7.48
7.99
8.36
8.71
9.12
9.63
10.19
10.72
11.18
11.52
11.72
11.75
11.55
11.06
10.20
8.99
7.53
5.95
4.38
2.89
1.49
0.17
-1.08
-2.25
-3.41
-4.66
-6.18
-8.12
-10.49
-13.12
-15.63
-17.50
-18.22
-17.53
-15.46
-12.44
-9.14
-6.21
-4.08
-2.74
-1.87
-1.08
-0.08
1.11
2.22
3.00
3.34
3.36
3.32
3.41
3.62
3.84
3.88
3.70
3.38
3.03
2.77
2.56
2.28
1.78
0.95
-0.19
-1.55
-2.95
-4.24
-5.26
-5.96
-6.36
-6.58
-6.81
-7.32
-8.33
-9.94
-12.09
-14.57
-17.00
-18.98
-20.14
-20.24
-19.28
-17.43
-15.04
-12.52
-10.20
-8.27
-6.74
-5.49
-4.32
-3.06
-1.59
0.07
1.84
3.56
5.04
6.17
6.92
7.35
7.58
7.72
7.79
7.77
7.63
7.36
7.00
6.60
6.20
5.75
5.13
4.23
3.00
1.49
-0.15
-1.73
-3.11
-4.18
-4.95
-5.53
-6.15
-7.10
-8.59
-10.66
-13.07
-15.37
-17.01
-17.56
-16.85
-15.02
-12.45
-9.57
-6.84
-4.51
-2.71
-1.40
-0.45
0.33
1.14
2.09
3.20
4.39
5.52
6.39
6.90
7.01
6.81
6.47
6.19
6.10
6.21
6.40
6.47
6.25
5.70
4.86
3.83
2.73
1.60
0.47
-0.65
-1.70
-2.61
-3.34
-3.96
-4.59
-5.41
-6.56
-8.05
-9.81
-11.71
-13.61
-15.45
-17.12
-18.45
-19.15
-18.94
-17.61
-15.24
-12.20
-9.01
-6.17
-3.91
-2.17
-0.68
0.83
2.49
4.22
5.75
6.82
7.25
7.06
6.43
5.65
5.01
4.70
4.79
5.21
5.81
6.43
6.91
7.11
6.99
6.53
5.79
4.85
3.82
2.76
1.71
0.65
-0.44
-1.54
-2.60
-3.60
-4.54
-5.49
-6.49
-7.61
-8.81
-10.05
-11.32
-12.66
-14.16
-15.83
-17.55
-18.97
-19.67
-19.27
-17.66
-15.06
-12.00
-9.02
-6.56
-4.74
-3.37
-2.19
-0.96
0.39
1.77
3.04
4.11
5.00
5.75
6.46
7.12
7.74
8.29
8.71
9.00
9.12
9.07
8.87
8.59
8.30
8.07
7.90
7.72
7.44
6.96
6.22
5.21
3.93
2.40
0.67
-1.19
-3.03
-4.68
-6.05
-7.18
-8.21
-9.35
-10.76
-12.55
-14.66
-16.98
-19.25
-21.13
-22.26
-22.32
-21.19
-19.01
-16.14
-13.10
-10.31
-8.01
-6.17
-4.62
-3.15
-1.63
-0.02
1.65
3.32
4.93
6.35
7.45
8.14
8.37
8.26
7.98
7.78
7.78
8.03
8.39
8.70
8.83
8.73
8.39
7.85
7.13
6.30
5.40
4.50
3.62
2.72
1.67
0.39
-1.11
-2.63
-3.91
-4.77
-5.24
-5.64
-6.42
-7.93
-10.27
-13.18
-16.21
-18.86
-20.75
-21.63
-21.46
-20.29
-18.29
-15.76
-13.09
-10.62
-8.63
-7.19
-6.16
-5.30
-4.35
-3.11
-1.55
0.28
2.20
4.02
5.57
6.76
7.59
8.18
8.71
9.39
10.32
11.50
12.80
14.05
15.03
15.55
15.47
14.77
13.50
11.77
9.81
7.83
5.98
4.29
2.72
1.15
-0.47
-2.15
-3.82
-5.44
-7.03
-8.69
-10.60
-12.90
-15.58
-18.47
-21.18
-23.20
-24.14
-23.74
-22.08
-19.44
-16.28
-12.99
-9.86
-6.99
-4.34
-1.87
0.44
2.48
4.17
5.43
6.36
7.16
8.05
9.20
10.59
12.05
13.34
14.26
14.80
15.03
15.07
15.02
14.88
14.58
14.13
13.51
12.75
11.88
10.87
9.66
8.23
6.60
4.83
3.00
1.15
-0.76
-2.80
-5.04
-7.50
-10.16
-12.94
-15.72
-18.33
-20.58
-22.23
-23.01
-22.67
-21.04
-18.16
-14.30
-9.98
-5.79
-2.23
0.46
2.33
3.61
4.61
5.56
6.56
7.61
8.63
9.58
10.40
11.10
11.71
12.33
13.03
13.80
14.56
15.18
15.53
15.56
15.35
15.02
14.66
14.28
13.77
13.03
11.99
10.60
8.93
6.99
4.83
2.47
-0.02
-2.59
-5.19
-7.84
-10.65
-13.74
-17.17
-20.86
-24.50
-27.64
-29.72
-30.31
-29.20
-26.47
-22.50
-17.79
-12.94
-8.41
-4.47
-1.16
1.69
4.30
6.88
9.46
11.90
13.95
15.45
16.36
16.87
17.28
17.87
18.74
19.82
20.83
21.50
21.65
21.28
20.52
19.59
18.63
17.68
16.63
15.33
13.60
11.38
8.73
5.89
3.12
0.69
-1.31
-2.94
-4.43
-6.06
-8.06
-10.55
-13.52
-16.88
-20.48
-24.05
-27.19
-29.30
-29.73
-28.04
-24.22
-18.78
-12.63
-6.82
-2.08
1.32
3.64
5.47
7.37
9.68
12.34
15.04
17.35
19.02
20.03
20.58
20.98
21.46
22.04
22.59
22.89
22.84
22.54
22.17
21.90
21.70
21.37
20.56
19.05
16.87
14.23
11.53
9.05
6.91
5.01
3.19
1.31
-0.69
-2.85
-5.28
-8.15
-11.62
-15.66
-19.99
-24.00
-26.95
-28.18
-27.36
-24.59
-20.40
-15.54
-10.71
-6.38
-2.68
0.49
3.37
6.09
8.63
10.88
12.70
14.05
15.01
15.75
16.39
16.97
17.46
17.76
17.78
17.49
16.93
16.22
15.51
14.89
14.42
13.98
13.37
12.37
10.84
8.81
6.47
4.13
2.06
0.39
-0.92
-2.11
-3.42
-5.15
-7.46
-10.37
-13.74
-17.24
-20.39
-22.65
-23.57
-22.88
-20.63
-17.17
-13.06
-8.93
-5.30
-2.45
-0.36
1.20
2.57
4.08
5.89
7.96
10.05
11.84
13.09
13.72
13.91
14.01
14.34
15.04
16.02
17.02
17.72
17.92
17.56
16.70
15.48
13.99
12.34
10.62
8.89
7.20
5.56
3.95
2.33
0.63
-1.21
-3.28
-5.63
-8.31
-11.30
-14.49
-17.79
-20.99
-23.83
-25.94
-26.92
-26.47
-24.49
-21.22
-17.13
-12.82
-8.80
-5.36
-2.53
-0.20
1.84
3.78
5.67
7.50
9.14
10.41
11.24
11.69
11.95
12.31
12.95
13.91
14.98
15.91
16.44
16.48
16.14
15.59
15.03
14.48
13.88
13.01
11.65
9.69
7.19
4.41
1.69
-0.66
-2.55
-4.07
-5.47
-7.01
-8.87
-11.11
-13.70
-16.56
-19.58
-22.55
-25.09
-26.70
-26.88
-25.38
-22.30
-18.17
-13.80
-9.92
-6.99
-5.03
-3.74
-2.64
-1.34
0.32
2.27
4.21
5.82
6.82
7.14
6.90
6.34
5.79
5.53
5.68
6.22
6.98
7.80
8.50
9.00
9.28
9.35
9.19
8.79
8.15
7.32
6.40
5.50
4.67
3.83
2.81
1.48
-0.19
-2.08
-3.95
-5.61
-6.98
-8.22
-9.58
-11.30
-13.36
-15.52
-17.28
-18.12
-17.67
-15.85
-12.89
-9.23
-5.36
-1.69
1.51
4.20
6.45
8.43
10.28
12.13
13.95
15.64
17.06
18.08
18.66
18.86
18.79
18.56
18.29
18.02
17.81
17.68
17.62
17.56
17.36
16.85
15.93
14.59
12.96
11.23
9.60
8.23
7.12
6.18
5.23
4.04
2.47
0.44
-2.05
-4.95
-8.13
-11.44
-14.67
-17.61
-20.05
-21.83
-22.85
-23.11
-22.59
-21.31
-19.32
-16.77
-13.94
-11.23
-8.95
-7.28
-6.09
-5.08
-3.89
-2.31
-0.36
1.71
3.56
4.96
5.83
6.27
6.49
6.65
6.82
6.95
6.93
6.66
6.11
5.35
4.53
3.81
3.26
2.86
2.49
2.00
1.31
0.43
-0.60
-1.76
-3.05
-4.48
-6.05
-7.68
-9.27
-10.78
-12.24
-13.78
-15.48
-17.27
-18.88
-19.91
-20.01
-19.02
-16.97
-14.15
-10.94
-7.71
-4.79
-2.41
-0.66
0.53
1.31
1.92
2.49
3.05
3.48
3.69
3.67
3.54
3.55
3.88
4.53
5.34
6.04
6.46
6.58
6.55
6.51
6.49
6.30
5.70
4.51
2.76
0.65
-1.45
-3.23
-4.53
-5.37
-5.89
-6.31
-6.89
-7.84
-9.30
-11.35
-13.92
-16.76
-19.48
-21.58
-22.63
-22.33
-20.70
-18.05
-14.87
-11.72
-8.97
-6.74
-4.91
-3.26
-1.57
0.20
1.97
3.62
5.04
6.22
7.18
8.00
8.67
9.18
9.49
9.60
9.54
9.34
9.04
8.61
8.01
7.16
5.96
4.37
2.41
0.20
-2.07
-4.15
-5.84
-7.10
-8.06
-8.97
-10.11
-11.66
-13.67
-16.09
-18.70
-21.19
-23.16
-24.16
-23.87
-22.22
-19.44
-16.00
-12.46
-9.27
-6.61
-4.39
-2.40
-0.41
1.67
3.73
5.61
7.13
8.25
9.08
9.77
10.53
11.40
12.33
13.16
13.77
14.11
14.24
14.25
14.17
13.94
13.44
12.58
11.29
9.60
7.60
5.41
3.16
0.92
-1.20
-3.19
-5.07
-6.95
-8.92
-11.07
-13.49
-16.18
-19.01
-21.71
-23.81
-24.84
-24.40
-22.44
-19.24
-15.38
-11.46
-7.96
-5.00
-2.49
-0.18
2.12
4.46
6.74
8.72
10.25
11.20
11.62
11.71
11.69
11.81
12.19
12.79
13.42
13.90
14.14
14.21
14.25
14.29
14.24
13.85
12.90
11.29
9.17
6.85
4.66
2.89
1.56
0.58
-0.27
-1.22
-2.45
-4.11
-6.31
-9.12
-12.54
-16.35
-20.12
-23.21
-24.98
-24.94
-22.99
-19.48
-15.09
-10.61
-6.64
-3.49
-1.10
0.76
2.33
3.79
5.22
6.68
8.20
9.82
11.48
13.03
14.24
14.96
15.12
14.87
14.47
14.19
14.13
14.20
14.19
13.90
13.29
12.46
11.56
10.69
9.83
8.91
7.84
6.58
5.15
3.56
1.79
-0.24
-2.49
-4.85
-7.07
-8.94
-10.42
-11.76
-13.35
-15.54
-18.44
-21.73
-24.83
-26.99
-27.65
-26.58
-24.00
-20.36
-16.23
-12.14
-8.42
-5.25
-2.61
-0.38
1.67
3.79
6.11
8.68
11.38
14.00
16.27
17.98
19.05
19.54
19.60
19.42
19.19
19.03
18.96
18.91
18.78
18.42
17.69
16.56
15.07
13.39
11.73
10.32
9.30
8.60
8.04
7.32
6.19
4.55
2.47
0.16
-2.07
-3.97
-5.47
-6.69
-7.95
-9.64
-12.07
-15.30
-19.09
-22.90
-26.04
-27.86
-27.93
-26.15
-22.79
-18.42
-13.73
-9.39
-5.82
-3.17
-1.25
0.30
1.82
3.51
5.32
7.05
8.52
9.64
10.49
11.20
11.85
12.41
12.79
13.00
13.12
13.35
13.82
14.55
15.33
15.88
15.92
15.38
14.33
13.01
11.68
10.54
9.67
9.04
8.48
7.79
6.85
5.60
4.11
2.56
1.08
-0.29
-1.63
-3.12
-4.93
-7.18
-9.84
-12.78
-15.77
-18.45
-20.43
-21.33
-20.90
-19.15
-16.32
-12.87
-9.34
-6.12
-3.39
-1.11
0.93
2.91
4.91
6.89
8.70
10.21
11.34
12.11
12.57
12.81
12.93
13.02
13.19
13.53
14.07
14.72
15.33
15.67
15.59
15.08
14.25
13.31
12.41
11.67
11.07
10.49
9.81
8.91
7.73
6.20
4.40
2.43
0.48
-1.27
-2.72
-3.89
-5.04
-6.51
-8.65
-11.62
-15.34
-19.38
-23.08
-25.73
-26.73
-25.84
-23.27
-19.59
-15.55
-11.79
-8.63
-6.04
-3.75
-1.52
0.70
2.78
4.50
5.74
6.55
7.11
7.62
8.18
8.75
9.29
9.74
10.09
10.33
10.43
10.33
9.98
9.43
8.76
8.05
7.33
6.56
5.70
4.73
3.69
2.63
1.54
0.41
-0.76
-1.94
-3.07
-4.10
-5.14
-6.38
-8.01
-10.11
-12.57
-15.04
-17.03
-18.09
-17.91
-16.45
-13.91
-10.73
-7.38
-4.33
-1.86
-0.02
1.33
2.42
3.48
4.62
5.82
6.93
7.74
8.11
8.00
7.56
7.04
6.69
6.64
6.80
6.94
6.86
6.51
6.00
5.56
5.32
5.23
5.06
4.55
3.53
2.11
0.55
-0.84
-1.85
-2.46
-2.86
-3.33
-4.15
-5.51
-7.48
-10.01
-12.94
-16.05
-19.03
-21.59
-23.43
-24.24
-23.81
-22.07
-19.15
-15.37
-11.28
-7.41
-4.24
-1.94
-0.44
0.59
1.58
2.80
4.33
6.03
7.62
8.82
9.50
9.68
9.50
9.14
8.76
8.44
8.19
8.03
7.95
7.93
7.93
7.85
7.57
6.99
6.03
4.64
2.88
0.86
-1.24
-3.23
-5.00
-6.56
-8.09
-9.85
-12.10
-14.91
-18.15
-21.44
-24.28
-26.19
-26.84
-26.11
-24.11
-21.17
-17.67
-14.04
-10.62
-7.62
-5.09
-2.92
-0.99
0.87
2.72
4.56
6.29
7.82
9.07
10.01
10.67
11.12
11.49
11.82
12.13
12.37
12.45
12.24
11.68
10.79
9.68
8.49
7.33
6.27
5.25
4.19
3.01
1.66
0.18
-1.34
-2.81
-4.15
-5.42
-6.72
-8.25
-10.21
-12.73
-15.77
-19.08
-22.21
-24.58
-25.70
-25.26
-23.29
-20.11
-16.29
-12.45
-9.03
-6.28
-4.18
-2.53
-1.10
0.40
2.09
3.98
5.95
7.81
9.41
10.69
11.70
12.57
13.37
14.16
14.87
15.40
15.74
15.88
15.90
15.79
15.54
15.01
14.15
12.91
11.34
9.56
7.73
5.95
4.27
2.70
1.21
-0.22
-1.60
-2.91
-4.17
-5.47
-6.93
-8.71
-10.90
-13.49
-16.35
-19.23
-21.78
-23.63
-24.46
-24.01
-22.23
-19.26
-15.52
-11.53
-7.82
-4.71
-2.31
-0.49
0.96
2.26
3.51
4.81
6.16
7.57
9.02
10.42
11.70
12.80
13.69
14.40
14.96
15.39
15.70
15.92
16.10
16.31
16.50
16.58
16.39
15.80
14.76
13.30
11.54
9.60
7.58
5.60
3.72
1.97
0.36
-1.23
-2.89
-4.71
-6.73
-8.92
-11.26
-13.67
-16.16
-18.68
-21.15
-23.37
-25.13
-26.13
-26.14
-25.02
-22.75
-19.55
-15.79
-11.91
-8.32
-5.26
-2.75
-0.66
1.20
2.96
4.67
6.28
7.67
8.78
9.56
10.08
10.41
10.66
10.91
11.21
11.60
12.08
12.67
13.35
14.07
14.70
15.06
14.94
14.22
12.94
11.31
9.67
8.35
7.50
7.04
6.69
6.08
4.94
3.22
1.10
-1.13
-3.22
-5.16
-7.08
-9.26
-11.88
-14.91
-18.12
-21.14
-23.52
-24.93
-25.17
-24.22
-22.19
-19.36
-16.09
-12.78
-9.79
-7.31
-5.31
-3.56
-1.74
0.41
2.94
5.70
8.32
10.42
11.74
12.26
12.20
11.91
11.76
11.94
12.48
13.27
14.11
14.82
15.27
15.36
15.02
14.23
13.07
11.66
10.21
8.87
7.71
6.68
5.72
4.73
3.71
2.64
1.53
0.34
-1.07
-2.76
-4.83
-7.32
-10.19
-13.35
-16.54
-19.38
-21.37
-22.06
-21.23
-19.02
-15.88
-12.44
-9.24
-6.61
-4.57
-2.93
-1.43
0.11
1.70
3.22
4.49
5.41
6.01
6.49
7.09
7.99
9.20
10.54
11.77
12.66
13.10
13.13
12.88
12.49
12.00
11.37
10.50
9.32
7.80
6.07
4.26
2.55
1.00
-0.40
-1.78
-3.26
-4.94
-6.88
-9.07
-11.47
-13.99
-16.42
-18.49
-19.80
-19.98
-18.86
-16.57
-13.47
-10.08
-6.85
-4.02
-1.56
0.70
2.90
5.05
6.96
8.42
9.24
9.44
9.19
8.76
8.35
8.08
7.92
7.79
7.66
7.55
7.54
7.69
7.96
8.22
8.26
7.90
7.06
5.80
4.28
2.72
1.25
-0.04
-1.27
-2.59
-4.23
-6.37
-9.09
-12.27
-15.56
-18.50
-20.59
-21.47
-20.99
-19.32
-16.79
-13.81
-10.77
-7.90
-5.33
-3.05
-1.06
0.66
2.09
3.22
4.12
4.88
5.63
6.46
7.34
8.18
8.84
9.24
9.40
9.44
9.46
9.53
9.64
9.63
9.37
8.75
7.72
6.38
4.83
3.22
1.66
0.14
-1.42
-3.16
-5.22
-7.69
-10.48
-13.39
-16.07
-18.09
-19.09
-18.90
-17.57
-15.40
-12.85
-10.27
-7.89
-5.67
-3.47
-1.19
1.06
3.08
4.66
5.79
6.68
7.61
8.80
10.20
11.55
12.52
12.95
12.83
12.39
11.88
11.46
11.15
10.84
10.39
9.72
8.79
7.60
6.19
4.61
2.91
1.17
-0.60
-2.40
-4.25
-6.18
-8.28
-10.68
-13.47
-16.66
-20.04
-23.15
-25.36
-26.08
-25.01
-22.30
-18.52
-14.40
-10.62
-7.44
-4.81
-2.44
-0.10
2.29
4.61
6.69
8.47
9.98
11.34
12.61
13.71
14.55
14.98
15.03
14.80
14.51
14.32
14.32
14.43
14.49
14.34
13.80
12.80
11.29
9.37
7.19
4.99
2.99
1.37
0.17
-0.76
-1.64
-2.79
-4.44
-6.74
-9.72
-13.28
-17.13
-20.84
-23.80
-25.40
-25.22
-23.26
-19.96
-16.06
-12.29
-9.14
-6.67
-4.64
-2.70
-0.60
1.77
4.34
6.98
9.56
11.91
13.86
15.25
16.03
16.25
16.11
15.89
15.84
16.09
16.64
17.36
18.01
18.35
18.23
17.58
16.48
15.09
13.59
12.07
10.55
8.96
7.20
5.23
3.04
0.75
-1.53
-3.67
-5.63
-7.46
-9.35
-11.55
-14.26
-17.56
-21.33
-25.20
-28.60
-30.96
-31.78
-30.84
-28.25
-24.41
-19.95
-15.49
-11.52
-8.26
-5.62
-3.32
-1.02
1.50
4.24
7.04
9.63
11.79
13.48
14.76
15.77
16.59
17.23
17.63
17.78
17.78
17.75
17.79
17.84
17.72
17.24
16.22
14.70
12.85
10.91
9.14
7.68
6.54
5.61
4.73
3.71
2.44
0.85
-1.02
-3.15
-5.48
-7.99
-10.68
-13.58
-16.65
-19.80
-22.84
-25.44
-27.19
-27.68
-26.65
-24.14
-20.52
-16.43
-12.54
-9.35
-6.99
-5.21
-3.58
-1.69
0.65
3.31
6.04
8.54
10.66
12.41
13.88
15.09
16.01
16.57
16.76
16.72
16.71
16.99
17.67
18.63
19.52
19.97
19.69
18.67
17.15
15.52
14.10
13.02
12.14
11.09
9.46
7.03
3.87
0.34
-3.12
-6.14
-8.58
-10.54
-12.30
-14.15
-16.33
-18.97
-22.07
-25.40
-28.51
-30.76
-31.49
-30.30
-27.22
-22.79
-17.83
-13.16
-9.27
-6.28
-3.96
-2.01
-0.16
1.72
3.68
5.76
7.94
10.22
12.45
14.44
16.00
17.00
17.43
17.48
17.36
17.28
17.37
17.62
17.96
18.19
18.10
17.49
16.31
14.66
12.77
11.00
9.57
8.52
7.70
6.83
5.68
4.13
2.26
0.22
-1.86
-3.91
-5.92
-7.92
-9.86
-11.72
-13.53
-15.40
-17.56
-20.14
-23.10
-26.13
-28.67
-30.10
-29.99
-28.29
-25.30
-21.63
-17.85
-14.42
-11.47
-8.91
-6.52
-4.14
-1.70
0.76
3.13
5.34
7.35
9.15
10.68
11.95
12.94
13.67
14.18
14.52
14.76
14.99
15.31
15.79
16.41
17.05
17.50
17.57
17.13
16.22
14.96
13.59
12.28
11.11
10.07
9.01
7.81
6.37
4.70
2.89
1.06
-0.69
-2.32
-3.89
-5.50
-7.31
-9.44
-11.95
-14.84
-18.00
-21.17
-23.88
-25.60
-25.81
-24.33
-21.33
-17.41
-13.28
-9.54
-6.51
-4.12
-2.10
-0.13
1.98
4.29
6.69
9.05
11.22
13.06
14.44
15.30
15.67
15.68
15.48
15.26
15.11
15.05
15.07
15.14
15.21
15.22
15.03
14.51
13.61
12.31
10.73
9.02
7.29
5.61
3.93
2.23
0.49
-1.29
-3.12
-5.01
-6.99
-9.11
-11.37
-13.78
-16.26
-18.67
-20.73
-22.06
-22.25
-21.06
-18.50
-14.90
-10.78
-6.70
-3.09
-0.12
2.24
4.16
5.75
7.04
7.94
8.39
8.39
8.13
7.89
7.97
8.53
9.53
10.71
11.76
12.45
12.70
12.61
12.34
11.99
11.57
10.93
9.95
8.55
6.80
4.88
3.04
1.39
-0.04
-1.42
-2.92
-4.71
-6.78
-8.98
-11.09
-12.94
-14.37
-15.31
-15.63
-15.22
-14.00
-11.96
-9.33
-6.45
-3.73
-1.48
0.16
1.24
1.90
2.34
2.74
3.17
3.65
4.14
4.56
4.85
5.00
5.00
4.89
4.75
4.62
4.55
4.55
4.55
4.44
4.11
3.45
2.47
1.23
-0.12
-1.45
-2.70
-3.87
-5.03
-6.30
-7.81
-9.63
-11.80
-14.20
-16.56
-18.44
-19.33
-18.82
-16.76
-13.41
-9.32
-5.27
-1.93
0.31
1.46
1.83
1.83
1.83
1.96
2.19
2.36
2.40
2.33
2.29
2.44
2.83
3.39
3.92
4.30
4.47
4.53
4.64
4.91
5.22
5.33
4.99
4.06
2.62
0.87
-0.94
-2.71
-4.49
-6.45
-8.76
-11.47
-14.44
-17.30
-19.58
-20.82
-20.68
-19.12
-16.38
-12.92
-9.34
-6.11
-3.50
-1.47
0.19
1.74
3.37
5.07
6.72
8.11
9.12
9.69
9.85
9.73
9.42
9.03
8.63
8.30
8.06
7.94
7.88
7.77
7.46
6.80
5.68
4.10
2.13
-0.03
-2.19
-4.13
-5.80
-7.24
-8.66
-10.29
-12.28
-14.58
-16.95
-18.94
-20.05
-19.94
-18.48
-15.86
-12.53
-9.04
-5.88
-3.32
-1.35
0.21
1.62
3.10
4.76
6.51
8.23
9.70
10.79
11.38
11.51
11.30
10.96
10.73
10.77
11.09
11.55
11.91
11.98
11.63
10.91
9.96
8.91
7.86
6.80
5.67
4.40
2.89
1.12
-0.99
-3.52
-6.53
-9.99
-13.69
-17.25
-20.15
-21.91
-22.22
-21.02
-18.53
-15.15
-11.33
-7.55
-4.17
-1.37
0.84
2.60
4.16
5.77
7.49
9.28
10.92
12.25
13.19
13.83
14.30
14.74
15.15
15.44
15.51
15.33
14.92
14.41
13.93
13.52
13.16
12.70
12.01
10.97
9.52
7.75
5.78
3.79
1.91
0.19
-1.41
-3.02
-4.78
-6.84
-9.30
-12.17
-15.29
-18.35
-20.86
-22.26
-22.16
-20.46
-17.48
-13.81
-10.12
-6.97
-4.58
-2.86
-1.52
-0.20
1.30
3.05
4.96
6.89
8.74
10.45
11.98
13.26
14.23
14.84
15.10
15.09
14.94
14.81
14.80
14.91
15.05
15.08
14.86
14.34
13.53
12.53
11.47
10.48
9.69
9.12
8.71
8.29
7.66
6.68
5.30
3.57
1.63
-0.39
-2.41
-4.46
-6.59
-8.86
-11.32
-13.95
-16.63
-19.10
-21.04
-22.09
-22.01
-20.74
-18.47
-15.57
-12.48
-9.54
-6.94
-4.68
-2.69
-0.87
0.83
2.42
3.92
5.32
6.64
7.89
9.06
10.12
10.99
11.57
11.75
11.46
10.76
9.81
8.90
8.32
8.25
8.67
9.37
10.01
10.28
10.01
9.26
8.23
7.13
6.12
5.26
4.57
4.02
3.59
3.23
2.84
2.27
1.38
0.07
-1.66
-3.67
-5.80
-7.89
-9.89
-11.85
-13.91
-16.18
-18.60
-20.93
-22.80
-23.74
-23.44
-21.84
-19.21
-16.05
-12.86
-10.02
-7.69
-5.81
-4.19
-2.65
-1.08
0.59
2.31
4.04
5.69
7.18
8.39
9.27
9.81
10.08
10.19
10.31
10.55
10.97
11.57
12.26
12.93
13.40
13.53
13.27
12.60
11.65
10.54
9.42
8.34
7.30
6.24
5.12
3.94
2.70
1.44
0.12
-1.26
-2.73
-4.28
-5.78
-7.15
-8.32
-9.41
-10.68
-12.39
-14.69
-17.46
-20.34
-22.74
-24.11
-24.11
-22.73
-20.27
-17.21
-14.06
-11.19
-8.78
-6.86
-5.38
-4.21
-3.22
-2.26
-1.20
0.03
1.39
2.75
3.92
4.79
5.36
5.75
6.11
6.52
7.00
7.45
7.81
8.09
8.36
8.70
9.06
9.35
9.39
9.09
8.47
7.63
6.70
5.81
5.01
4.30
3.69
3.12
2.50
1.71
0.68
-0.58
-2.00
-3.42
-4.79
-6.08
-7.37
-8.79
-10.45
-12.35
-14.40
-16.37
-17.90
-18.63
-18.29
-16.81
-14.37
-11.40
-8.38
-5.73
-3.66
-2.13
-0.98
0.06
1.17
2.46
3.90
5.37
6.66
7.56
7.94
7.77
7.18
6.39
5.67
5.23
5.16
5.38
5.74
6.02
6.07
5.88
5.45
4.87
4.16
3.34
2.44
1.56
0.83
0.29
-0.12
-0.59
-1.34
-2.49
-4.03
-5.82
-7.68
-9.48
-11.19
-12.90
-14.66
-16.44
-18.05
-19.16
-19.45
-18.75
-17.08
-14.70
-12.02
-9.41
-7.14
-5.30
-3.82
-2.59
-1.55
-0.66
0.13
0.85
1.58
2.34
3.11
3.85
4.51
5.12
5.73
6.37
7.02
7.57
7.91
7.98
7.76
7.28
6.56
5.56
4.21
2.55
0.68
-1.14
-2.68
-3.77
-4.50
-5.09
-5.86
-7.07
-8.84
-11.10
-13.65
-16.22
-18.51
-20.18
-20.91
-20.51
-18.97
-16.57
-13.78
-11.10
-8.85
-7.05
-5.47
-3.81
-1.93
0.04
1.79
3.02
3.64
3.79
3.80
3.96
4.40
5.05
5.70
6.16
6.40
6.52
6.69
6.96
7.26
7.30
6.81
5.65
3.86
1.64
-0.70
-2.91
-4.87
-6.60
-8.17
-9.69
-11.31
-13.23
-15.62
-18.49
-21.62
-24.49
-26.45
-26.93
-25.68
-22.91
-19.17
-15.14
-11.37
-8.13
-5.44
-3.17
-1.17
0.64
2.26
3.65
4.79
5.66
6.31
6.88
7.52
8.34
9.33
10.39
11.36
12.10
12.54
12.68
12.54
12.08
11.19
9.78
7.87
5.58
3.19
0.97
-0.89
-2.37
-3.65
-5.01
-6.74
-9.13
-12.30
-16.24
-20.64
-25.02
-28.73
-31.17
-31.94
-30.95
-28.48
-25.03
-21.14
-17.23
-13.51
-10.02
-6.70
-3.57
-0.63
2.06
4.53
6.78
8.89
10.86
12.68
14.31
15.74
16.99
18.08
19.01
19.72
20.14
20.25
20.08
19.68
19.11
18.30
17.05
15.21
12.69
9.60
6.28
3.08
0.28
-2.06
-4.16
-6.36
-9.02
-12.32
-16.24
-20.54
-24.84
-28.60
-31.23
-32.22
-31.28
-28.43
-24.07
-18.87
-13.52
-8.58
-4.32
-0.71
2.44
5.36
8.19
10.95
13.61
16.09
18.29
20.13
21.56
22.54
23.10
23.35
23.42
23.42
23.44
23.52
23.62
23.69
23.61
23.24
22.40
20.98
18.92
16.37
13.51
10.63
7.88
5.33
2.87
0.30
-2.66
-6.23
-10.57
-15.67
-21.28
-26.90
-31.79
-35.15
-36.36
-35.12
-31.65
-26.55
-20.65
-14.76
-9.40
-4.80
-0.86
2.71
6.21
9.82
13.52
17.17
20.54
23.42
25.71
27.40
28.57
29.32
29.74
29.94
30.00
30.01
30.05
30.12
30.16
29.96
29.27
27.90
25.78
23.00
19.80
16.46
13.29
10.45
8.03
5.97
4.12
2.30
0.34
-1.89
-4.55
-7.75
-11.62
-16.22
-21.34
-26.54
-31.07
-34.11
-34.99
-33.46
-29.82
-24.75
-19.13
-13.72
-8.98
-4.97
-1.54
1.59
4.68
7.84
11.02
14.09
16.89
19.35
21.49
23.40
25.18
26.83
28.22
29.24
29.88
30.26
30.61
31.12
31.79
32.35
32.47
31.84
30.36
28.23
25.78
23.35
21.16
19.31
17.73
16.30
14.79
12.96
10.61
7.67
4.32
0.92
-2.18
-4.77
-7.00
-9.18
-11.75
-15.00
-18.99
-23.58
-28.55
-33.53
-38.00
-41.34
-42.82
-41.88
-38.40
-32.81
-26.03
-19.11
-12.94
-7.92
-3.94
-0.59
2.53
5.68
8.90
12.03
14.93
17.48
19.68
21.53
23.05
24.22
25.02
25.52
25.88
26.30
26.92
27.76
28.61
29.21
29.29
28.71
27.49
25.73
23.58
21.17
18.66
16.20
13.97
12.15
10.83
9.94
9.27
8.49
7.29
5.44
2.92
-0.12
-3.40
-6.63
-9.62
-12.35
-14.93
-17.57
-20.43
-23.66
-27.26
-31.05
-34.66
-37.44
-38.69
-37.82
-34.65
-29.53
-23.26
-16.83
-11.04
-6.31
-2.61
0.34
2.90
5.31
7.66
9.96
12.16
14.19
15.98
17.43
18.46
19.12
19.48
19.71
19.95
20.20
20.39
20.37
20.09
19.56
18.94
18.32
17.73
17.05
16.08
14.72
13.04
11.26
9.70
8.52
7.70
6.99
6.09
4.77
3.00
0.89
-1.37
-3.62
-5.78
-7.87
-9.93
-12.02
-14.16
-16.41
-18.84
-21.50
-24.33
-27.14
-29.53
-31.01
-31.15
-29.74
-26.87
-22.99
-18.69
-14.54
-10.94
-8.03
-5.74
-3.88
-2.20
-0.51
1.33
3.29
5.22
6.91
8.17
8.94
9.35
9.60
9.94
10.50
11.32
12.36
13.53
14.73
15.82
16.64
17.08
17.09
16.70
16.06
15.31
14.53
13.70
12.77
11.69
10.41
8.97
7.43
5.85
4.29
2.81
1.41
0.10
-1.21
-2.62
-4.27
-6.24
-8.59
-11.33
-14.45
-17.91
-21.60
-25.24
-28.44
-30.72
-31.66
-30.98
-28.78
-25.42
-21.47
-17.52
-14.02
-11.12
-8.73
-6.64
-4.60
-2.51
-0.40
1.58
3.31
4.76
5.99
7.08
8.05
8.88
9.47
9.78
9.87
9.90
10.04
10.37
10.83
11.18
11.19
10.64
9.48
7.86
6.04
4.33
2.98
2.07
1.51
1.06
0.45
-0.54
-1.92
-3.56
-5.18
-6.58
-7.67
-8.53
-9.43
-10.67
-12.49
-14.95
-17.87
-20.86
-23.40
-24.99
-25.31
-24.24
-21.98
-18.91
-15.50
-12.17
-9.20
-6.67
-4.49
-2.52
-0.65
1.09
2.57
3.68
4.36
4.75
5.05
5.52
6.26
7.26
8.37
9.42
10.29
10.92
11.36
11.65
11.85
11.95
11.94
11.76
11.37
10.76
9.95
8.96
7.80
6.47
4.95
3.27
1.54
-0.08
-1.45
-2.51
-3.35
-4.17
-5.23
-6.75
-8.87
-11.53
-14.55
-17.51
-19.90
-21.25
-21.23
-19.81
-17.27
-14.07
-10.75
-7.69
-5.13
-3.10
-1.53
-0.30
0.73
1.64
2.49
3.29
4.01
4.64
5.26
5.95
6.83
7.88
8.98
9.91
10.43
10.44
9.90
8.94
7.72
6.41
5.16
4.06
3.15
2.39
1.65
0.79
-0.30
-1.64
-3.17
-4.77
-6.38
-7.98
-9.67
-11.55
-13.67
-15.98
-18.24
-20.09
-21.14
-21.06
-19.74
-17.39
-14.42
-11.32
-8.45
-5.98
-3.79
-1.70
0.37
2.35
3.99
5.06
5.47
5.36
5.05
4.86
5.01
5.48
6.08
6.57
6.84
6.91
6.93
6.98
7.01
6.84
6.23
5.08
3.49
1.78
0.23
-1.07
-2.27
-3.71
-5.67
-8.24
-11.23
-14.29
-17.04
-19.21
-20.63
-21.21
-20.86
-19.53
-17.32
-14.43
-11.25
-8.14
-5.42
-3.20
-1.40
0.13
1.51
2.78
3.86
4.65
5.13
5.36
5.51
5.70
5.98
6.26
6.49
6.61
6.68
6.81
7.06
7.35
7.45
7.12
6.17
4.66
2.78
0.87
-0.80
-2.12
-3.13
-4.10
-5.38
-7.27
-9.92
-13.23
-16.82
-20.11
-22.48
-23.44
-22.74
-20.47
-17.00
-12.86
-8.69
-5.00
-2.11
-0.10
1.22
2.13
2.91
3.75
4.66
5.57
6.43
7.20
7.90
8.55
9.10
9.51
9.70
9.68
9.54
9.37
9.22
9.05
8.70
7.97
6.73
5.01
3.03
1.12
-0.39
-1.39
-2.00
-2.60
-3.66
-5.56
-8.41
-11.91
-15.52
-18.50
-20.27
-20.52
-19.32
-17.05
-14.23
-11.38
-8.80
-6.59
-4.65
-2.83
-1.05
0.68
2.33
3.89
5.39
6.91
8.49
10.07
11.52
12.70
13.54
14.12
14.58
15.09
15.76
16.55
17.33
17.87
17.93
17.29
15.86
13.71
11.08
8.34
5.84
3.75
2.02
0.40
-1.48
-3.86
-6.86
-10.39
-14.23
-18.12
-21.77
-24.81
-26.81
-27.36
-26.22
-23.48
-19.56
-15.15
-10.93
-7.37
-4.62
-2.50
-0.62
1.38
3.74
6.46
9.38
12.15
14.45
16.03
16.84
17.04
16.89
16.70
16.63
16.69
16.77
16.74
16.52
16.13
15.61
14.91
13.97
12.69
11.02
9.00
6.75
4.46
2.24
0.18
-1.75
-3.62
-5.54
-7.62
-9.90
-12.46
-15.33
-18.48
-21.76
-24.81
-27.11
-28.10
-27.42
-25.03
-21.36
-17.05
-12.77
-8.96
-5.70
-2.80
-0.07
2.63
5.26
7.75
10.07
12.23
14.21
15.95
17.33
18.19
18.55
18.56
18.44
18.44
18.64
19.01
19.37
19.48
19.16
18.30
16.89
15.13
13.28
11.60
10.27
9.30
8.49
7.60
6.44
4.98
3.30
1.57
-0.09
-1.66
-3.23
-4.89
-6.73
-8.82
-11.22
-13.99
-17.08
-20.30
-23.24
-25.39
-26.25
-25.58
-23.50
-20.45
-17.03
-13.72
-10.72
-7.98
-5.27
-2.44
0.48
3.35
5.92
8.07
9.81
11.26
12.55
13.69
14.63
15.27
15.64
15.90
16.23
16.79
17.56
18.34
18.88
19.04
18.79
18.23
17.44
16.43
15.15
13.55
11.69
9.82
8.21
7.02
6.22
5.54
4.66
3.32
1.51
-0.62
-2.82
-4.89
-6.79
-8.56
-10.34
-12.28
-14.50
-17.13
-20.17
-23.49
-26.75
-29.38
-30.82
-30.63
-28.76
-25.45
-21.26
-16.83
-12.64
-8.97
-5.86
-3.23
-0.91
1.18
3.15
5.06
6.94
8.78
10.55
12.09
13.28
13.96
14.11
13.84
13.42
13.17
13.35
14.06
15.16
16.34
17.22
17.50
17.03
15.85
14.20
12.36
10.63
9.26
8.39
7.97
7.82
7.65
7.12
6.03
4.33
2.15
-0.27
-2.65
-4.82
-6.71
-8.41
-10.13
-12.06
-14.41
-17.25
-20.49
-23.80
-26.71
-28.66
-29.16
-28.01
-25.36
-21.65
-17.51
-13.59
-10.31
-7.83
-6.02
-4.59
-3.21
-1.66
0.15
2.18
4.23
6.10
7.63
8.79
9.68
10.47
11.31
12.20
13.06
13.72
14.07
14.13
14.05
13.97
13.92
13.80
13.40
12.55
11.29
9.82
8.43
7.36
6.64
6.14
5.59
4.74
3.49
1.90
0.15
-1.56
-3.06
-4.33
-5.40
-6.42
-7.52
-8.80
-10.34
-12.19
-14.37
-16.89
-19.66
-22.43
-24.81
-26.25
-26.26
-24.60
-21.44
-17.29
-12.93
-9.07
-6.18
-4.30
-3.15
-2.29
-1.32
-0.05
1.57
3.43
5.39
7.30
9.00
10.35
11.25
11.67
11.66
11.41
11.15
11.10
11.38
11.99
12.82
13.64
14.24
14.43
14.18
13.58
12.82
12.07
11.36
10.55
9.42
7.82
5.72
3.30
0.83
-1.45
-3.47
-5.27
-7.04
-9.01
-11.33
-14.07
-17.11
-20.20
-22.93
-24.88
-25.64
-24.95
-22.77
-19.32
-15.06
-10.55
-6.39
-2.98
-0.51
1.14
2.25
3.17
4.11
5.15
6.15
6.98
7.53
7.83
7.98
8.12
8.39
8.82
9.39
10.01
10.59
11.05
11.40
11.66
11.80
11.76
11.40
10.56
9.18
7.32
5.14
2.90
0.82
-0.95
-2.41
-3.66
-4.86
-6.25
-8.03
-10.35
-13.20
-16.33
-19.30
-21.54
-22.51
-21.96
-19.92
-16.78
-13.06
-9.30
-5.95
-3.23
-1.26
-0.02
0.59
0.71
0.54
0.31
0.16
0.13
0.19
0.27
0.40
0.68
1.25
2.19
3.40
4.62
5.58
6.10
6.21
6.04
5.77
5.43
4.91
4.04
2.72
1.06
-0.71
-2.34
-3.71
-4.88
-6.08
-7.59
-9.61
-12.11
-14.86
-17.41
-19.23
-19.90
-19.19
-17.20
-14.29
-10.93
-7.61
-4.64
-2.20
-0.30
1.10
2.06
2.70
3.13
3.49
3.89
4.40
5.02
5.74
6.50
7.27
8.00
8.61
9.02
9.21
9.26
9.28
9.37
9.49
9.44
8.93
7.69
5.69
3.13
0.42
-2.02
-3.92
-5.33
-6.55
-8.01
-10.09
-12.92
-16.27
-19.67
-22.42
-23.88
-23.61
-21.57
-18.09
-13.79
-9.35
-5.28
-1.87
0.86
3.05
4.89
6.49
7.90
9.06
9.91
10.48
10.84
11.12
11.45
11.86
12.37
12.88
13.30
13.56
13.67
13.65
13.56
13.39
13.11
12.61
11.78
10.50
8.74
6.59
4.22
1.91
-0.14
-1.88
-3.49
-5.32
-7.68
-10.74
-14.35
-18.08
-21.32
-23.53
-24.40
-23.86
-22.14
-19.59
-16.59
-13.44
-10.36
-7.52
-5.04
-3.01
-1.42
-0.15
0.91
1.87
2.83
3.78
4.72
5.64
6.52
7.33
7.95
8.23
8.05
7.44
6.57
5.79
5.40
5.54
6.11
6.71
6.88
6.20
4.54
2.11
-0.61
-3.02
-4.73
-5.66
-6.16
-6.79
-8.13
-10.47
-13.78
-17.68
-21.54
-24.63
-26.29
-26.08
-23.91
-20.10
-15.32
-10.41
-6.08
-2.71
-0.29
1.49
3.01
4.61
6.44
8.55
10.84
13.20
15.45
17.43
19.02
20.10
20.68
20.82
20.62
20.22
19.80
19.51
19.47
19.68
20.02
20.26
20.13
19.39
17.99
15.98
13.58
11.03
8.57
6.34
4.36
2.55
0.74
-1.35
-3.99
-7.30
-11.16
-15.17
-18.74
-21.21
-22.05
-21.12
-18.64
-15.17
-11.42
-7.98
-5.18
-2.97
-1.11
0.76
2.84
5.18
7.69
10.21
12.57
14.59
16.11
16.98
17.18
16.82
16.21
15.70
15.55
15.78
16.25
16.65
16.74
16.43
15.75
14.82
13.71
12.43
10.97
9.32
7.53
5.68
3.86
2.15
0.49
-1.19
-2.99
-4.96
-7.11
-9.44
-11.96
-14.67
-17.48
-20.14
-22.22
-23.22
-22.75
-20.79
-17.65
-13.98
-10.40
-7.36
-4.94
-2.92
-0.98
1.12
3.44
5.90
8.36
10.65
12.61
14.14
15.19
15.81
16.09
16.22
16.34
16.57
16.89
17.18
17.25
16.94
16.15
14.94
13.45
11.90
10.48
9.25
8.14
7.00
5.74
4.39
3.08
1.88
0.77
-0.42
-1.88
-3.70
-5.82
-8.03
-10.22
-12.40
-14.70
-17.13
-19.48
-21.28
-21.94
-21.07
-18.63
-15.08
-11.11
-7.40
-4.42
-2.28
-0.79
0.35
1.44
2.70
4.16
5.80
7.52
9.18
10.68
11.93
12.87
13.56
14.07
14.50
14.91
15.24
15.39
15.18
14.54
13.50
12.18
10.78
9.46
8.31
7.35
6.49
5.61
4.56
3.25
1.64
-0.20
-2.16
-4.08
-5.88
-7.52
-9.06
-10.55
-12.08
-13.67
-15.29
-16.86
-18.19
-19.01
-18.95
-17.77
-15.43
-12.23
-8.76
-5.62
-3.29
-1.86
-1.12
-0.69
-0.21
0.49
1.43
2.57
3.90
5.47
7.31
9.35
11.33
12.91
13.76
13.76
13.04
11.95
10.91
10.23
9.99
10.06
10.15
9.95
9.32
8.26
6.90
5.42
3.96
2.58
1.28
0.04
-1.12
-2.24
-3.37
-4.64
-6.19
-8.10
-10.25
-12.39
-14.16
-15.21
-15.34
-14.53
-12.93
-10.84
-8.58
-6.47
-4.64
-3.11
-1.73
-0.32
1.21
2.79
4.24
5.33
5.91
6.07
6.03
6.03
6.20
6.54
6.92
7.22
7.41
7.51
7.57
7.66
7.74
7.78
7.69
7.38
6.75
5.75
4.36
2.66
0.82
-0.96
-2.48
-3.68
-4.65
-5.58
-6.74
-8.35
-10.49
-13.00
-15.55
-17.62
-18.72
-18.50
-16.97
-14.41
-11.37
-8.39
-5.90
-4.10
-2.97
-2.34
-1.99
-1.70
-1.28
-0.63
0.25
1.25
2.21
2.97
3.43
3.63
3.70
3.73
3.83
4.00
4.24
4.48
4.65
4.65
4.37
3.72
2.68
1.34
-0.14
-1.56
-2.75
-3.69
-4.49
-5.38
-6.60
-8.32
-10.59
-13.23
-15.85
-17.92
-18.91
-18.47
-16.62
-13.68
-10.22
-6.83
-3.89
-1.55
0.26
1.71
2.96
4.10
5.19
6.28
7.42
8.57
9.65
10.49
10.93
10.97
10.67
10.23
9.83
9.56
9.44
9.36
9.18
8.75
7.94
6.68
5.00
2.99
0.88
-1.09
-2.73
-4.01
-5.04
-6.07
-7.29
-8.83
-10.66
-12.67
-14.70
-16.59
-18.17
-19.22
-19.52
-18.90
-17.37
-15.13
-12.57
-10.07
-7.93
-6.22
-4.81
-3.47
-2.01
-0.37
1.36
3.00
4.34
5.30
5.95
6.42
6.87
7.30
7.64
7.70
7.40
6.83
6.22
5.80
5.62
5.55
5.30
4.63
3.48
1.95
0.33
-1.19
-2.52
-3.69
-4.84
-6.11
-7.59
-9.36
-11.48
-13.91
-16.52
-19.00
-20.94
-21.94
-21.71
-20.25
-17.81
-14.83
-11.77
-8.98
-6.64
-4.72
-3.09
-1.61
-0.12
1.45
3.12
4.74
6.15
7.19
7.78
7.97
8.00
8.07
8.33
8.75
9.16
9.40
9.38
9.13
8.77
8.35
7.85
7.15
6.19
5.02
3.81
2.71
1.80
0.99
0.05
-1.21
-2.86
-4.82
-6.95
-9.14
-11.40
-13.74
-16.07
-18.11
-19.42
-19.54
-18.26
-15.72
-12.38
-8.92
-5.89
-3.58
-1.92
-0.61
0.72
2.24
3.90
5.49
6.73
7.50
7.89
8.08
8.32
8.71
9.19
9.62
9.91
10.02
10.08
10.17
10.31
10.38
10.24
9.79
9.08
8.21
7.30
6.38
5.38
4.17
2.69
1.03
-0.61
-1.98
-2.90
-3.44
-3.86
-4.55
-5.88
-8.00
-10.78
-13.79
-16.45
-18.18
-18.61
-17.64
-15.45
-12.41
-9.00
-5.69
-2.81
-0.51
1.24
2.63
3.91
5.24
6.68
8.17
9.59
10.80
11.68
12.14
12.16
11.78
11.20
10.65
10.42
10.67
11.40
12.38
13.28
13.82
13.82
13.32
12.42
11.27
9.96
8.54
7.01
5.38
3.69
1.99
0.29
-1.50
-3.48
-5.73
-8.24
-10.93
-13.67
-16.33
-18.84
-21.11
-23.03
-24.39
-24.92
-24.40
-22.77
-20.23
-17.14
-13.95
-11.01
-8.48
-6.36
-4.48
-2.71
-0.90
1.06
3.13
5.25
7.21
8.80
9.84
10.30
10.33
10.17
10.08
10.18
10.46
10.77
10.98
11.02
10.93
10.80
10.71
10.68
10.65
10.55
10.29
9.84
9.14
8.25
7.20
6.09
4.97
3.86
2.70
1.35
-0.31
-2.41
-5.05
-8.15
-11.50
-14.59
-16.84
-17.68
-16.89
-14.68
-11.69
-8.69
-6.30
-4.69
-3.66
-2.80
-1.79
-0.58
0.67
1.69
2.30
2.43
2.11
1.47
0.59
-0.37
-1.26
-1.97
-2.47
-2.74
-2.87
-2.92
-2.90
-2.84
-2.76
-2.74
-2.89
-3.26
-3.82
-4.45
-5.07
-5.73
-6.64
-8.09
-10.34
-13.46
-17.26
-21.42
-25.50
-29.04
-31.48
-32.29
-31.00
-27.41
-21.79
-14.94
-7.97
-2.07
1.97
3.95
4.22
3.56
2.82
2.63
3.30
4.77
6.66
8.44
9.66
10.14
10.07
10.02
10.76
12.90
16.71
21.89
27.81
33.59
38.47
41.97
43.93
44.41
43.61
41.83
39.42
36.87
34.58
32.87
31.77
31.02
30.21
28.95
27.09
24.75
22.22
19.78
17.55
15.39
13.06
10.37
7.25
3.82
0.34
-2.91
-5.69
-7.74
-8.85
-8.87
-7.81
-5.84
-3.37
-0.91
1.13
2.50
3.19
3.31
2.97
2.28
1.28
0.08
-1.19
-2.35
-3.29
-3.94
-4.25
-4.13
-3.41
-1.95
0.23
2.86
5.47
7.59
8.92
9.45
9.32
8.70
7.63
6.06
4.01
1.64
-0.75
-2.92
-4.78
-6.54
-8.53
-11.07
-14.20
-17.66
-20.93
-23.38
-24.48
-23.98
-21.97
-18.91
-15.57
-12.76
-11.09
-10.76
-11.47
-12.59
-13.44
-13.52
-12.72
-11.30
-9.67
-8.29
-7.47
-7.36
-7.95
-9.08
-10.53
-12.00
-13.23
-14.00
-14.24
-14.04
-13.63
-13.30
-13.20
-13.35
-13.55
-13.56
-13.21
-12.52
-11.70
-11.03
-10.76
-10.96
-11.59
-12.45
-13.28
-13.72
-13.40
-11.91
-9.06
-4.99
-0.32
3.87
6.30
5.94
2.50
-3.21
-9.38
-13.74
-14.29
-10.10
-1.63
9.54
21.34
31.97
40.34
46.07
49.09
49.36
46.79
41.55
34.32
26.33
18.95
13.19
9.23
6.55
4.24
1.65
-1.41
-4.59
-7.32
-9.20
-10.19
-10.53
-10.71
-11.18
-12.28
-14.10
-16.44
-18.86
-20.79
-21.72
-21.41
-20.00
-17.92
-15.64
-13.50
-11.50
-9.34
-6.68
-3.36
0.35
3.68
5.58
5.04
1.52
-4.70
-12.54
-20.26
-25.95
-28.09
-25.88
-19.43
-9.66
2.04
14.11
25.12
33.98
40.05
43.12
43.42
41.48
38.01
33.70
29.13
