1520871547.00
64.000000
-0.00
-0.00
-0.00
-0.00
-0.00
-0.00
-0.00
-0.00
-0.00
-0.00
0.00
0.01
0.01
-0.00
-0.03
-0.05
-0.05
0.00
0.13
0.36
0.66
1.01
1.37
1.72
2.06
2.40
2.79
3.24
3.80
4.42
5.06
5.66
6.20
6.68
7.15
7.68
8.31
9.14
10.09
11.04
11.88
12.56
13.14
13.76
14.65
15.96
17.91
20.32
22.90
25.38
27.58
29.57
31.68
34.32
37.81
42.54
48.15
54.10
59.83
64.97
69.58
74.14
79.34
85.71
93.76
103.00
112.62
121.73
129.77
136.75
143.30
150.75
157.77
166.64
177.95
191.79
206.97
220.57
228.25
225.36
208.53
176.87
132.76
80.05
23.07
-34.94
-92.44
-149.16
-205.23
-260.37
-313.74
-363.87
-409.83
-450.91
-486.50
-515.74
-537.23
-549.22
-549.96
-538.37
-514.21
-478.67
-433.88
-382.45
-327.02
-269.84
-212.63
-156.66
-102.95
-52.37
-5.90
35.58
71.43
101.35
125.50
144.38
158.69
169.15
176.37
180.75
182.57
182.07
179.51
175.23
169.65
163.18
156.15
148.81
141.30
133.69
126.02
118.33
110.69
103.15
95.80
88.68
81.83
75.25
68.96
62.96
57.28
51.90
46.85
42.12
37.70
33.60
29.81
26.31
23.09
20.15
17.49
15.10
12.96
11.08
9.43
8.00
6.78
5.75
4.90
4.19
3.63
3.19
2.85
2.61
2.46
2.37
2.35
2.39
2.48
2.62
2.80
3.02
3.28
3.58
3.92
4.30
4.72
5.18
5.69
6.23
6.82
7.45
8.13
8.86
9.64
10.47
11.34
12.27
13.26
14.28
15.37
16.53
17.75
19.05
20.41
21.82
23.25
24.62
25.88
26.89
27.55
27.71
27.25
26.06
24.10
21.34
17.86
13.71
9.08
4.18
-0.76
-5.50
-9.83
-13.55
-16.54
-18.72
-20.08
-20.64
-20.50
-19.78
-18.61
-17.12
-15.41
-13.59
-11.71
-9.80
-7.84
-5.88
-3.92
-1.94
0.06
2.11
4.23
6.44
8.77
11.29
13.92
16.63
19.41
22.28
25.24
28.34
31.62
35.16
39.06
43.19
47.46
51.87
56.38
61.02
65.80
70.80
76.10
81.89
87.90
94.01
100.13
106.21
112.23
118.22
124.23
130.38
136.87
143.28
149.36
154.81
159.32
162.50
163.84
162.61
157.63
151.18
143.87
136.02
127.78
119.20
110.35
101.34
92.37
83.73
75.77
68.23
60.88
53.48
45.84
37.83
29.54
21.25
13.38
6.37
0.03
-5.98
-12.13
-18.97
-26.83
-35.71
-45.22
-54.74
-63.66
-71.97
-80.02
-88.50
-98.18
-109.54
-122.56
-136.70
-151.16
-165.16
-178.48
-191.35
-204.38
-218.45
-234.56
-253.69
-276.46
-302.47
-329.82
-354.98
-373.44
-381.07
-375.67
-357.78
-330.53
-298.39
-265.51
-234.62
-206.77
-181.86
-159.52
-139.63
-122.24
-107.27
-94.18
-82.04
-69.94
-57.50
-45.07
-33.62
-24.24
-17.56
-13.37
-10.62
-7.81
-3.51
3.05
11.80
21.93
32.28
41.83
49.91
56.36
61.38
65.30
68.38
70.74
72.32
72.98
72.65
71.48
69.77
67.91
66.28
65.02
64.05
63.08
61.78
59.93
57.47
54.55
51.37
48.07
44.73
41.27
37.64
33.81
29.80
25.70
21.57
17.44
13.27
8.97
4.46
-0.29
-5.16
-9.83
-13.77
-16.38
-17.04
-15.38
-11.42
-5.55
1.46
8.74
15.50
21.21
25.65
28.84
30.95
32.17
32.67
32.56
31.95
30.99
29.85
28.70
27.70
26.90
26.28
25.78
25.27
24.65
23.80
22.61
21.00
18.95
16.55
13.89
11.13
8.38
5.68
3.01
0.30
-2.53
-5.62
-9.14
-13.26
-17.96
-22.92
-27.45
-30.52
-31.18
-28.90
-23.77
-16.58
-8.54
-0.82
5.72
10.78
14.42
16.93
18.50
19.23
19.14
18.34
17.08
15.75
14.70
14.09
13.85
13.74
13.48
12.95
12.26
11.66
11.34
11.31
11.31
10.93
9.79
7.74
4.91
1.66
-1.56
-4.47
-6.93
-9.05
-11.08
-13.33
-16.11
-19.57
-23.63
-27.89
-31.65
-34.06
-34.40
-32.36
-28.12
-22.34
-15.88
-9.52
-3.73
1.32
5.64
9.28
12.18
14.20
15.28
15.46
15.03
14.38
13.89
13.70
13.76
13.88
13.89
13.76
13.64
13.71
14.09
14.67
15.19
15.32
14.77
13.47
11.54
9.23
6.81
4.51
2.43
0.56
-1.23
-3.19
-5.57
-8.61
-12.40
-16.75
-21.19
-24.96
-27.21
-27.24
-24.74
-19.91
-13.36
-5.94
1.51
8.37
14.27
19.03
22.60
25.01
26.35
26.79
26.53
25.84
24.93
23.93
22.94
21.97
21.00
20.03
19.08
18.17
17.34
16.59
15.88
15.07
13.95
12.32
10.09
7.36
4.41
1.59
-0.83
-2.86
-4.76
-7.00
-10.02
-14.01
-18.88
-24.17
-29.18
-33.10
-35.10
-34.57
-31.28
-25.49
-17.95
-9.67
-1.62
5.54
11.53
16.35
20.05
22.61
23.88
23.82
22.56
20.55
18.37
16.58
15.47
15.02
14.92
14.81
14.46
13.87
13.24
12.79
12.58
12.43
11.94
10.73
8.62
5.72
2.35
-1.07
-4.30
-7.27
-10.09
-12.95
-16.07
-19.71
-24.02
-29.02
-34.33
-39.19
-42.55
-43.42
-41.26
-36.19
-28.99
-20.77
-12.60
-5.22
1.08
6.23
10.32
13.32
15.18
15.91
15.71
14.98
14.22
13.83
14.00
14.63
15.44
16.07
16.30
16.12
15.69
15.23
14.92
14.77
14.69
14.46
13.80
12.54
10.61
8.08
5.19
2.23
-0.57
-3.09
-5.42
-7.76
-10.38
-13.55
-17.41
-21.98
-27.08
-32.25
-36.75
-39.72
-40.36
-38.25
-33.55
-26.98
-19.53
-12.16
-5.50
0.22
5.05
9.07
12.23
14.38
15.44
15.50
14.88
14.06
13.48
13.35
13.68
14.26
14.83
15.19
15.27
15.12
14.88
14.72
14.76
14.99
15.28
15.35
14.87
13.61
11.53
8.88
6.11
3.64
1.72
0.23
-1.20
-3.11
-5.86
-9.55
-14.03
-18.89
-23.65
-27.73
-30.46
-31.19
-29.38
-24.93
-18.24
-10.24
-2.07
5.28
11.23
15.69
18.93
21.28
22.93
23.93
24.23
23.90
23.12
22.21
21.46
21.00
20.79
20.61
20.17
19.34
18.13
16.73
15.45
14.48
13.82
13.26
12.43
10.99
8.82
6.05
2.97
-0.03
-2.69
-4.92
-6.85
-8.73
-10.88
-13.62
-17.14
-21.46
-26.33
-31.19
-35.25
-37.59
-37.45
-34.42
-28.63
-20.74
-11.79
-2.89
5.03
11.48
16.35
19.85
22.27
23.82
24.55
24.48
23.75
22.61
21.49
20.77
20.68
21.11
21.77
22.25
22.26
21.76
20.90
19.93
19.01
18.16
17.18
15.84
13.89
11.26
8.05
4.48
0.87
-2.53
-5.62
-8.47
-11.33
-14.46
-18.10
-22.36
-27.17
-32.34
-37.47
-42.01
-45.25
-46.49
-45.18
-41.20
-34.90
-27.09
-18.69
-10.54
-3.21
3.04
8.15
12.17
15.15
17.19
18.38
18.87
18.82
18.43
17.94
17.54
17.41
17.58
17.98
18.44
18.71
18.64
18.11
17.14
15.82
14.30
12.73
11.23
9.83
8.45
6.95
5.19
3.14
0.86
-1.47
-3.79
-6.07
-8.42
-10.93
-13.67
-16.71
-20.12
-24.06
-28.54
-33.36
-37.94
-41.34
-42.59
-41.07
-36.76
-30.29
-22.64
-14.78
-7.39
-0.76
5.05
10.05
14.14
17.20
19.12
19.91
19.76
18.99
17.95
16.95
16.22
15.85
15.82
16.02
16.31
16.59
16.83
17.02
17.13
17.10
16.82
16.19
15.24
14.09
12.93
11.84
10.76
9.49
7.82
5.64
3.03
0.21
-2.51
-5.00
-7.30
-9.66
-12.43
-15.94
-20.29
-25.23
-30.18
-34.32
-36.79
-36.95
-34.53
-29.77
-23.29
-15.89
-8.38
-1.42
4.55
9.32
12.87
15.35
16.98
18.01
18.65
19.01
19.09
18.85
18.31
17.52
16.70
16.04
15.66
15.56
15.61
15.63
15.42
14.90
14.10
13.09
11.93
10.57
8.85
6.58
3.70
0.37
-3.06
-6.16
-8.71
-10.70
-12.46
-14.35
-16.69
-19.55
-22.90
-26.62
-30.59
-34.58
-38.16
-40.62
-41.10
-38.96
-34.03
-26.83
-18.36
-9.78
-2.02
4.48
9.68
13.80
16.98
19.26
20.59
21.00
20.75
20.23
19.87
19.97
20.55
21.41
22.27
22.84
22.95
22.54
21.63
20.30
18.71
17.03
15.37
13.72
11.97
9.92
7.42
4.49
1.25
-2.09
-5.36
-8.54
-11.72
-15.03
-18.58
-22.40
-26.46
-30.76
-35.18
-39.53
-43.30
-45.82
-46.34
-44.35
-39.80
-33.18
-25.36
-17.22
-9.48
-2.48
3.65
8.92
13.27
16.64
18.94
20.22
20.62
20.40
19.81
19.10
18.45
18.02
17.88
18.03
18.36
18.62
18.56
17.98
16.84
15.25
13.41
11.54
9.73
7.97
6.12
4.08
1.82
-0.55
-2.95
-5.31
-7.65
-10.02
-12.46
-15.00
-17.69
-20.66
-24.13
-28.34
-33.32
-38.73
-43.86
-47.68
-49.20
-47.79
-43.34
-36.41
-27.94
-19.04
-10.65
-3.32
2.76
7.68
11.62
14.66
16.83
18.16
18.71
18.71
18.38
17.95
17.60
17.42
17.46
17.73
18.22
18.83
19.43
19.90
20.16
20.22
20.11
19.83
19.29
18.38
16.98
15.08
12.77
10.15
7.34
4.41
1.45
-1.45
-4.23
-6.83
-9.27
-11.71
-14.40
-17.62
-21.52
-26.02
-30.67
-34.66
-36.98
-36.74
-33.51
-27.49
-19.55
-10.89
-2.69
4.26
9.72
13.84
16.99
19.43
21.21
22.24
22.44
21.90
20.96
20.07
19.60
19.74
20.33
21.03
21.50
21.53
21.15
20.49
19.71
18.82
17.72
16.28
14.42
12.13
9.54
6.74
3.85
0.90
-2.05
-4.97
-7.88
-10.78
-13.74
-16.90
-20.43
-24.45
-29.01
-33.90
-38.62
-42.37
-44.26
-43.53
-39.92
-33.71
-25.65
-16.65
-7.59
0.96
8.64
15.24
20.54
24.33
26.51
27.14
26.54
25.18
23.61
22.30
21.56
21.48
21.94
22.68
23.40
23.87
24.02
23.89
23.55
23.02
22.23
21.00
19.21
16.82
13.91
10.62
7.10
3.44
-0.29
-3.99
-7.58
-11.02
-14.37
-17.81
-21.62
-26.03
-31.14
-36.77
-42.40
-47.23
-50.25
-50.59
-47.73
-41.81
-33.57
-24.15
-14.77
-6.33
0.72
6.38
10.87
14.43
17.16
19.09
20.19
20.56
20.47
20.24
20.19
20.47
21.09
21.86
22.55
23.03
23.27
23.37
23.37
23.22
22.75
21.77
20.16
18.03
15.62
13.14
10.72
8.30
5.77
3.02
0.10
-2.80
-5.52
-7.97
-10.31
-12.77
-15.67
-19.25
-23.66
-28.90
-34.76
-40.77
-46.17
-50.01
-51.35
-49.57
-44.60
-36.98
-27.74
-18.00
-8.70
-0.43
6.64
12.60
17.53
21.49
24.46
26.45
27.52
27.84
27.63
27.10
26.46
25.84
25.34
25.04
25.01
25.29
25.82
26.50
27.10
27.38
27.12
26.22
24.71
22.80
20.81
18.96
17.33
15.77
13.92
11.50
8.34
4.51
0.32
-3.85
-7.69
-11.10
-14.20
-17.36
-20.98
-25.41
-30.72
-36.58
-42.21
-46.51
-48.35
-46.95
-42.15
-34.47
-24.94
-14.75
-4.95
3.77
11.02
16.67
20.77
23.45
24.98
25.66
25.82
25.71
25.47
25.15
24.79
24.51
24.44
24.62
24.95
25.19
25.07
24.45
23.37
22.03
20.64
19.26
17.78
15.92
13.47
10.36
6.75
2.96
-0.68
-3.94
-6.80
-9.42
-12.09
-15.11
-18.75
-23.16
-28.36
-34.18
-40.11
-45.39
-48.99
-49.91
-47.49
-41.65
-33.02
-22.70
-12.01
-2.01
6.67
13.93
19.90
24.73
28.44
30.93
32.12
32.16
31.36
30.19
29.05
28.17
27.58
27.21
26.91
26.58
26.13
25.49
24.60
23.40
21.88
20.06
17.96
15.60
13.02
10.26
7.39
4.48
1.57
-1.35
-4.33
-7.39
-10.55
-13.78
-17.08
-20.53
-24.30
-28.66
-33.82
-39.86
-46.51
-53.09
-58.59
-61.89
-62.04
-58.58
-51.72
-42.35
-31.67
-20.97
-11.19
-2.87
3.87
9.17
13.17
16.03
17.85
18.80
19.06
18.93
18.72
18.69
18.95
19.49
20.20
20.94
21.60
22.15
22.55
22.74
22.61
22.02
20.92
19.37
17.58
15.76
14.01
12.26
10.31
7.92
5.00
1.60
-2.06
-5.73
-9.23
-12.46
-15.48
-18.51
-21.90
-26.04
-31.24
-37.44
-44.15
-50.35
-54.75
-56.23
-54.11
-48.47
-40.07
-30.10
-19.84
-10.30
-2.05
4.75
10.29
14.81
18.52
21.49
23.70
25.10
25.77
25.91
25.83
25.77
25.90
26.18
26.52
26.77
26.89
26.91
26.87
26.75
26.43
25.70
24.39
22.49
20.11
17.50
14.84
12.22
9.55
6.68
3.49
-0.03
-3.72
-7.34
-10.73
-13.81
-16.77
-19.89
-23.55
-28.05
-33.46
-39.44
-45.22
-49.72
-51.77
-50.54
-45.80
-38.04
-28.36
-18.03
-8.17
0.55
7.90
13.93
18.70
22.24
24.48
25.43
25.27
24.36
23.19
22.22
21.77
21.87
22.38
23.04
23.61
23.92
23.95
23.72
23.30
22.72
21.88
20.59
18.65
15.91
12.40
8.36
4.13
0.06
-3.60
-6.82
-9.75
-12.61
-15.66
-19.12
-23.15
-27.84
-33.05
-38.35
-42.92
-45.75
-45.86
-42.75
-36.57
-28.16
-18.71
-9.38
-0.96
6.20
12.10
16.92
20.81
23.80
25.88
27.00
27.20
26.60
25.43
23.98
22.58
21.52
20.96
20.89
21.16
21.53
21.71
21.49
20.75
19.54
17.93
16.08
14.12
12.15
10.20
8.21
6.04
3.52
0.50
-3.06
-7.06
-11.25
-15.36
-19.22
-22.86
-26.57
-30.82
-36.01
-42.25
-49.11
-55.64
-60.58
-62.70
-61.23
-56.07
-47.82
-37.66
-26.94
-16.80
-7.98
-0.69
5.26
10.18
14.30
17.68
20.21
21.77
22.39
22.31
21.84
21.35
21.04
20.98
21.14
21.48
21.93
22.44
22.93
23.18
23.00
22.23
20.87
19.07
17.12
15.23
13.48
11.75
9.80
7.39
4.47
1.16
-2.27
-5.61
-8.79
-11.92
-15.23
-18.88
-23.01
-27.69
-32.92
-38.57
-44.18
-48.90
-51.64
-51.33
-47.42
-40.17
-30.60
-20.13
-10.10
-1.36
5.85
11.73
16.61
20.69
24.02
26.51
28.07
28.75
28.68
28.06
27.15
26.22
25.49
25.11
25.14
25.45
25.81
25.90
25.51
24.55
23.12
21.39
19.53
17.54
15.37
12.87
10.01
6.84
3.49
0.09
-3.31
-6.71
-10.12
-13.52
-16.92
-20.43
-24.30
-28.83
-34.17
-40.07
-45.74
-49.94
-51.37
-49.17
-43.25
-34.44
-24.12
-13.76
-4.50
3.16
9.28
14.25
18.44
22.03
24.91
26.88
27.76
27.64
26.88
25.97
25.39
25.42
25.99
26.80
27.41
27.54
27.07
26.13
24.89
23.45
21.79
19.77
17.24
14.17
10.68
7.02
3.48
0.24
-2.65
-5.29
-7.87
-10.61
-13.64
-17.00
-20.71
-24.81
-29.43
-34.64
-40.24
-45.68
-49.95
-51.91
-50.65
-45.87
-38.06
-28.30
-17.92
-8.06
0.60
7.80
13.59
18.11
21.47
23.71
24.96
25.34
25.13
24.59
23.95
23.37
22.91
22.55
22.27
22.05
21.86
21.69
21.55
21.38
21.07
20.49
19.47
17.98
16.08
13.93
11.67
9.36
6.91
4.12
0.85
-2.92
-6.98
-10.97
-14.55
-17.59
-20.13
-22.50
-25.10
-28.38
-32.70
-38.18
-44.58
-51.19
-56.84
-60.20
-60.16
-56.25
-48.82
-38.97
-28.14
-17.66
-8.38
-0.63
5.68
10.75
14.78
17.86
20.04
21.44
22.29
22.83
23.26
23.71
24.14
24.47
24.64
24.66
24.68
24.88
25.39
26.12
26.84
27.15
26.72
25.36
23.18
20.55
17.94
15.73
14.05
12.74
11.41
9.66
7.26
4.18
0.66
-2.95
-6.36
-9.43
-12.27
-15.21
-18.62
-22.82
-27.96
-33.91
-40.24
-46.19
-50.78
-52.99
-52.05
-47.67
-40.22
-30.65
-20.19
-10.02
-0.96
6.66
12.88
17.83
21.63
24.28
25.71
26.00
25.44
24.42
23.43
22.81
22.73
23.15
23.91
24.79
25.58
26.15
26.38
26.23
25.64
24.60
23.16
21.42
19.53
17.63
15.79
13.91
11.86
9.42
6.49
3.13
-0.44
-3.94
-7.15
-9.97
-12.48
-14.81
-17.21
-20.00
-23.56
-28.20
-33.94
-40.22
-45.96
-49.71
-50.19
-46.79
-39.84
-30.50
-20.29
-10.59
-2.24
4.50
9.79
13.93
17.17
19.63
21.35
22.41
22.97
23.27
23.54
23.93
24.48
25.12
25.72
26.22
26.57
26.79
26.89
26.82
26.40
25.47
23.90
21.69
18.97
15.99
12.95
9.98
7.09
4.20
1.26
-1.75
-4.79
-7.80
-10.75
-13.66
-16.61
-19.67
-22.97
-26.62
-30.79
-35.52
-40.61
-45.42
-48.98
-50.23
-48.36
-43.27
-35.57
-26.37
-16.95
-8.27
-0.88
5.15
9.91
13.56
16.22
17.97
18.93
19.29
19.25
18.98
18.61
18.21
17.85
17.60
17.56
17.81
18.37
19.22
20.26
21.35
22.29
22.84
22.74
21.76
19.86
17.16
14.04
10.92
8.14
5.83
3.83
1.84
-0.45
-3.20
-6.33
-9.60
-12.67
-15.35
-17.65
-19.79
-22.16
-25.18
-29.15
-34.11
-39.70
-45.24
-49.76
-52.26
-51.97
-48.65
-42.58
-34.53
-25.54
-16.58
-8.39
-1.38
4.33
8.75
12.03
14.34
15.89
16.89
17.52
17.86
17.97
17.93
17.85
17.82
17.95
18.27
18.74
19.29
19.78
20.08
20.03
19.52
18.53
17.09
15.34
13.50
11.76
10.24
8.93
7.68
6.25
4.35
1.80
-1.39
-4.97
-8.52
-11.59
-14.00
-15.88
-17.68
-19.99
-23.28
-27.62
-32.65
-37.64
-41.64
-43.72
-43.20
-39.81
-33.75
-25.68
-16.54
-7.35
0.98
7.87
13.14
16.86
19.26
20.58
21.02
20.76
20.05
19.16
18.39
17.97
17.95
18.26
18.69
19.04
19.15
18.94
18.39
17.53
16.43
15.23
14.09
13.13
12.34
11.50
10.30
8.39
5.62
2.07
-1.91
-5.87
-9.45
-12.49
-15.07
-17.49
-20.06
-23.06
-26.64
-30.78
-35.27
-39.64
-43.19
-45.05
-44.40
-40.82
-34.48
-26.15
-16.99
-8.14
-0.40
5.95
11.00
14.97
18.00
20.08
21.17
21.33
20.81
20.01
19.35
19.15
19.51
20.35
21.39
22.31
22.80
22.64
21.81
20.50
18.96
17.45
16.07
14.72
13.20
11.26
8.79
5.81
2.45
-1.14
-4.84
-8.55
-12.17
-15.58
-18.75
-21.69
-24.61
-27.79
-31.53
-35.87
-40.46
-44.58
-47.21
-47.44
-44.74
-39.16
-31.35
-22.34
-13.22
-4.86
2.23
7.93
12.38
15.81
18.43
20.40
21.78
22.67
23.16
23.36
23.48
23.63
23.90
24.22
24.48
24.51
24.22
23.57
22.63
21.51
20.24
18.83
17.22
15.38
13.23
10.80
8.05
4.97
1.58
-2.08
-5.87
-9.58
-13.00
-16.02
-18.76
-21.60
-25.02
-29.42
-34.95
-41.26
-47.53
-52.64
-55.47
-55.24
-51.79
-45.57
-37.58
-28.98
-20.77
-13.54
-7.41
-2.22
2.32
6.34
9.80
12.56
14.50
15.66
16.20
16.36
16.29
16.10
15.82
15.57
15.53
15.91
16.79
18.08
19.46
20.52
20.92
20.41
18.94
16.64
13.75
10.60
7.51
4.70
2.26
0.08
-2.02
-4.22
-6.57
-9.03
-11.51
-13.97
-16.40
-18.91
-21.62
-24.69
-28.25
-32.30
-36.54
-40.32
-42.68
-42.73
-39.90
-34.29
-26.63
-18.00
-9.44
-1.60
5.31
11.38
16.76
21.40
25.10
27.57
28.71
28.66
27.78
26.54
25.41
24.67
24.42
24.59
25.02
25.50
25.84
25.82
25.31
24.30
22.89
21.29
19.69
18.14
16.52
14.58
12.15
9.22
5.97
2.67
-0.53
-3.63
-6.81
-10.32
-14.32
-18.83
-23.80
-29.09
-34.39
-39.23
-42.84
-44.38
-43.13
-38.82
-31.83
-23.09
-13.77
-4.89
2.90
9.43
14.82
19.17
22.51
24.69
25.56
25.13
23.73
21.90
20.30
19.37
19.30
19.91
20.86
21.77
22.39
22.58
22.31
21.60
20.51
19.12
17.55
15.88
14.06
11.96
9.43
6.45
3.16
-0.14
-3.25
-6.10
-8.88
-11.91
-15.45
-19.60
-24.29
-29.27
-34.24
-38.75
-42.20
-43.90
-43.19
-39.71
-33.66
-25.79
-17.19
-8.97
-1.83
4.01
8.75
12.66
15.91
18.42
20.00
20.57
20.29
19.59
18.96
18.74
19.05
19.79
20.80
21.96
23.21
24.39
25.31
25.69
25.27
23.99
22.00
19.62
17.22
15.03
13.08
11.18
9.10
6.59
3.57
0.15
-3.49
-7.06
-10.39
-13.42
-16.29
-19.25
-22.69
-26.98
-32.26
-38.40
-44.78
-50.38
-53.97
-54.48
-51.36
-44.81
-35.76
-25.52
-15.42
-6.38
1.19
7.26
12.07
15.80
18.58
20.48
21.63
22.23
22.56
22.89
23.40
24.15
25.12
26.19
27.29
28.27
29.04
29.57
29.82
29.81
29.49
28.77
27.48
25.44
22.56
18.92
14.78
10.51
6.50
2.91
-0.29
-3.32
-6.43
-9.83
-13.67
-18.04
-23.02
-28.66
-34.82
-40.98
-46.26
-49.52
-49.80
-46.71
-40.60
-32.51
-23.71
-15.34
-8.02
-1.91
3.17
7.41
10.85
13.42
15.04
15.74
15.75
15.43
15.19
15.31
15.88
16.73
17.55
18.02
17.94
17.30
16.30
15.14
13.98
12.81
11.47
9.74
7.54
4.91
2.01
-0.94
-3.76
-6.37
-8.83
-11.29
-14.01
-17.33
-21.45
-26.40
-31.80
-36.97
-40.96
-42.86
-42.04
-38.36
-32.21
-24.41
-15.93
-7.65
-0.24
6.01
11.08
15.12
18.20
20.35
21.49
21.68
21.14
20.31
19.68
19.61
20.13
20.95
21.67
21.94
21.67
20.99
20.15
19.28
18.32
17.03
15.17
12.64
9.48
5.92
2.24
-1.28
-4.48
-7.29
-9.77
-12.12
-14.65
-17.67
-21.41
-25.83
-30.49
-34.60
-37.17
-37.38
-34.85
-29.81
-22.96
-15.27
-7.59
-0.53
5.65
10.91
15.22
18.52
20.68
21.69
21.69
21.06
20.23
19.55
19.14
18.89
18.52
17.78
16.59
15.04
13.38
11.89
10.65
9.62
8.55
7.13
5.12
2.46
-0.73
-4.19
-7.66
-11.04
-14.34
-17.76
-21.52
-25.76
-30.41
-35.12
-39.26
-42.06
-42.72
-40.76
-36.05
-29.01
-20.41
-11.21
-2.27
5.74
12.50
17.90
22.00
24.88
26.63
27.38
27.18
26.22
24.73
23.08
21.60
20.58
20.05
19.82
19.58
19.06
18.16
17.00
15.78
14.61
13.40
11.91
9.85
7.12
3.87
0.42
-2.85
-5.68
-8.04
-10.11
-12.22
-14.82
-18.27
-22.76
-28.06
-33.49
-37.96
-40.29
-39.59
-35.61
-28.83
-20.29
-11.23
-2.68
4.80
11.08
16.31
20.74
24.47
27.47
29.58
30.67
30.72
29.88
28.47
26.88
25.41
24.20
23.18
22.16
20.97
19.59
18.10
16.63
15.23
13.78
12.05
9.80
6.99
3.79
0.54
-2.42
-4.91
-6.97
-8.87
-11.00
-13.70
-17.21
-21.58
-26.70
-32.17
-37.34
-41.35
-43.34
-42.66
-39.13
-33.14
-25.49
-17.12
-8.81
-1.02
6.13
12.68
18.66
24.02
28.56
32.10
34.48
35.69
35.85
35.19
34.04
32.74
31.53
30.53
29.68
28.82
27.81
26.61
25.31
24.10
23.11
22.32
21.49
20.26
18.31
15.52
11.97
8.03
4.12
0.58
-2.45
-5.13
-7.79
-10.86
-14.62
-19.19
-24.36
-29.69
-34.56
-38.25
-40.13
-39.78
-37.01
-31.98
-25.18
-17.32
-9.16
-1.42
5.43
11.19
15.88
19.66
22.61
24.75
25.98
26.24
25.61
24.37
22.90
21.59
20.63
20.02
19.55
18.98
18.18
17.13
15.92
14.65
13.37
12.04
10.56
8.79
6.63
4.00
0.96
-2.34
-5.64
-8.66
-11.18
-13.14
-14.68
-16.09
-17.72
-19.88
-22.81
-26.61
-31.18
-36.10
-40.67
-43.91
-44.88
-42.97
-38.22
-31.30
-23.32
-15.42
-8.36
-2.42
2.50
6.69
10.30
13.39
15.87
17.73
18.96
19.65
19.84
19.59
18.95
18.03
17.00
16.04
15.26
14.73
14.40
14.21
14.09
13.97
13.75
13.36
12.66
11.60
10.19
8.54
6.76
4.95
3.17
1.40
-0.35
-2.10
-3.87
-5.72
-7.77
-10.22
-13.24
-16.85
-20.80
-24.52
-27.29
-28.50
-27.84
-25.54
-22.17
-18.46
-15.03
-12.17
-9.82
-7.74
-5.68
-3.57
-1.48
0.39
1.87
2.87
3.40
3.58
3.58
3.55
3.61
3.81
4.20
4.75
5.43
6.16
6.83
7.37
7.70
7.85
7.87
7.80
7.60
7.19
6.41
5.21
3.64
1.91
0.25
-1.14
-2.19
-2.98
-3.67
-4.49
-5.67
-7.44
-9.96
-13.19
-16.81
-20.25
-22.80
-23.88
-23.27
-21.19
-18.16
-14.80
-11.59
-8.73
-6.29
-4.24
-2.58
-1.36
-0.58
-0.15
0.17
0.60
1.32
2.37
3.69
5.17
6.67
8.08
9.29
10.22
10.84
11.16
11.26
11.28
11.28
11.23
11.00
10.40
9.32
7.77
5.97
4.20
2.77
1.81
1.26
0.92
0.54
-0.09
-1.06
-2.38
-4.03
-5.98
-8.18
-10.41
-12.30
-13.32
-13.02
-11.24
-8.22
-4.59
-1.09
1.71
3.57
4.57
4.98
4.99
4.66
3.85
2.51
0.76
-1.05
-2.44
-3.06
-2.81
-1.94
-0.82
0.21
1.01
1.68
2.42
3.35
4.45
5.55
6.49
7.15
7.52
7.64
7.49
7.04
6.23
5.08
3.67
2.17
0.68
-0.80
-2.44
-4.43
-6.94
-9.96
-13.21
-16.26
-18.53
-19.52
-18.95
-16.86
-13.60
-9.75
-5.88
-2.36
0.65
3.18
5.27
6.88
7.87
8.08
7.50
6.35
4.99
3.78
2.92
2.35
1.85
1.21
0.40
-0.44
-1.00
-1.03
-0.49
0.41
1.24
1.62
1.32
0.36
-0.96
-2.28
-3.31
-3.92
-4.19
-4.39
-4.77
-5.57
-6.92
-8.86
-11.35
-14.24
-17.27
-20.00
-21.90
-22.46
-21.37
-18.66
-14.74
-10.24
-5.80
-1.95
1.07
3.18
4.45
4.97
4.81
4.05
2.84
1.44
0.08
-0.94
-1.45
-1.43
-0.95
-0.22
0.52
1.06
1.30
1.26
1.04
0.79
0.59
0.44
0.25
-0.08
-0.65
-1.41
-2.28
-3.15
-3.99
-4.86
-5.95
-7.49
-9.65
-12.47
-15.78
-19.14
-21.93
-23.45
-23.18
-20.94
-17.00
-12.00
-6.76
-2.01
1.76
4.39
5.93
6.53
6.30
5.35
3.83
2.00
0.20
-1.18
-1.87
-1.76
-0.98
0.19
1.41
2.43
3.20
3.82
4.42
5.09
5.72
6.11
6.01
5.29
4.02
2.40
0.70
-0.88
-2.29
-3.62
-5.06
-6.81
-9.03
-11.78
-15.00
-18.51
-21.97
-24.89
-26.73
-27.00
-25.41
-21.94
-16.94
-11.02
-4.95
0.60
5.12
8.40
10.44
11.40
11.50
10.94
9.95
8.74
7.50
6.37
5.45
4.78
4.35
4.15
4.14
4.30
4.53
4.70
4.64
4.20
3.35
2.16
0.74
-0.82
-2.47
-4.25
-6.22
-8.42
-10.89
-13.60
-16.55
-19.75
-23.13
-26.48
-29.35
-31.13
-31.19
-29.14
-25.04
-19.40
-13.06
-6.92
-1.70
2.29
5.04
6.79
7.83
8.35
8.43
8.08
7.35
6.45
5.66
5.26
5.37
5.87
6.47
6.83
6.74
6.19
5.30
4.22
3.00
1.63
0.05
-1.78
-3.83
-6.10
-8.59
-11.41
-14.70
-18.59
-23.07
-27.94
-32.71
-36.64
-38.87
-38.68
-35.73
-30.23
-22.90
-14.71
-6.61
0.79
7.18
12.44
16.58
19.57
21.35
21.99
21.62
20.52
19.01
17.44
16.11
15.23
14.95
15.28
16.07
17.07
17.98
18.46
18.28
17.33
15.63
13.33
10.64
7.75
4.80
1.76
-1.53
-5.29
-9.72
-14.90
-20.69
-26.66
-32.05
-36.02
-37.74
-36.70
-32.91
-26.87
-19.51
-11.80
-4.56
1.74
6.97
11.18
14.40
16.58
17.58
17.38
16.19
14.44
12.63
11.13
10.08
9.35
8.75
8.09
7.34
6.51
5.59
4.47
2.94
0.85
-1.85
-5.01
-8.36
-11.67
-14.82
-17.87
-21.03
-24.61
-28.90
-34.02
-39.73
-45.33
-49.77
-51.97
-51.11
-47.03
-40.22
-31.66
-22.49
-13.61
-5.48
1.83
8.44
14.47
19.83
24.22
27.32
28.99
29.34
28.83
28.02
27.42
27.24
27.39
27.61
27.64
27.41
26.98
26.46
25.84
24.93
23.42
21.07
17.84
13.98
9.90
6.03
2.61
-0.38
-3.27
-6.52
-10.63
-15.92
-22.40
-29.67
-36.94
-43.14
-47.20
-48.27
-45.99
-40.58
-32.74
-23.42
-13.60
-4.06
4.74
12.58
19.45
25.47
30.72
35.27
39.09
42.05
44.05
45.05
45.23
44.93
44.53
44.33
44.35
44.47
44.46
44.20
43.69
43.05
42.28
41.19
39.43
36.65
32.78
28.05
23.06
18.41
14.49
11.28
8.38
5.26
1.54
-2.82
-7.49
-11.99
-15.99
-19.41
-22.52
-25.74
-29.47
-33.93
-39.14
-45.00
-51.23
-57.34
-62.61
-66.05
-66.74
-64.06
-57.99
-49.13
-38.50
-27.23
-16.19
-5.83
3.70
12.39
20.20
26.95
32.39
36.32
38.72
39.79
39.96
39.68
39.35
39.20
39.24
39.36
39.43
39.39
39.28
39.18
39.05
38.71
37.86
36.19
33.51
29.96
25.89
21.82
18.16
15.09
12.41
9.69
6.52
2.67
-1.73
-6.34
-10.78
-14.83
-18.53
-22.11
-25.77
-29.70
-34.00
-38.75
-43.99
-49.66
-55.40
-60.47
-63.85
-64.52
-61.79
-55.60
-46.44
-35.24
-22.99
-10.54
1.45
12.50
22.19
30.15
36.19
40.41
43.17
45.05
46.63
48.28
50.07
51.78
53.11
53.84
53.93
53.54
52.88
52.13
51.29
50.15
48.42
45.80
42.10
37.33
31.61
25.18
18.27
11.07
3.68
-3.87
-11.55
-19.31
-26.95
-34.08
-40.17
-44.64
-47.08
-47.40
-45.89
-43.13
-39.84
-36.71
-34.24
-32.69
-31.92
-31.46
-30.52
-28.14
-23.45
-15.90
-5.45
7.47
22.03
37.15
51.68
64.42
74.27
80.33
82.10
79.61
73.51
64.96
55.40
46.25
38.63
33.19
30.03
28.83
29.09
30.32
32.11
34.20
36.34
38.15
39.22
39.09
37.50
34.54
30.62
26.34
22.29
18.86
16.05
13.64
11.20
8.40
5.14
1.56
-2.06
-5.38
-8.20
-10.53
-12.54
-14.52
-16.81
-19.70
-23.42
-28.05
-33.41
-39.01
-44.07
-47.57
-48.63
-46.65
-41.59
-33.96
-24.64
-14.64
-4.77
4.35
12.33
18.72
23.04
24.75
23.50
19.39
13.09
5.69
-1.66
-8.07
-13.18
-17.02
-19.82
-21.71
-22.60
-22.28
-20.65
-17.90
-14.54
-11.22
-8.46
-6.53
-5.36
-4.73
-4.41
-4.29
-4.42
-4.86
-5.65
-6.67
-7.71
-8.54
-9.05
-9.27
-9.33
-9.40
-9.65
-10.15
-10.97
-12.15
-13.77
-15.88
-18.43
-21.20
-23.73
-25.44
-25.78
-24.44
-21.43
-17.09
-11.95
-6.53
-1.19
3.87
8.60
12.99
16.95
20.34
23.06
25.11
26.58
27.67
28.55
29.37
30.21
31.12
32.15
33.41
34.97
36.88
39.10
41.50
43.83
45.82
47.24
47.98
48.05
47.53
46.58
45.32
43.86
42.27
40.57
38.80
36.90
34.85
32.57
30.04
27.26
24.26
21.10
17.75
14.14
10.16
5.69
0.68
-4.75
-10.30
-15.41
-19.39
-21.58
-21.55
-19.38
-15.57
-10.96
-6.40
-2.45
0.72
3.24
5.30
6.93
8.02
8.42
8.10
7.29
6.40
5.79
5.70
6.06
6.64
7.21
7.62
7.87
8.00
8.06
8.07
7.98
7.76
7.40
6.90
6.24
5.38
4.21
2.70
0.82
-1.35
-3.73
-6.19
-8.63
-10.92
-13.01
-14.88
-16.65
-18.58
-21.01
-24.19
-28.15
-32.55
-36.71
-39.77
-40.94
-39.82
-36.49
-31.50
-25.67
-19.75
-14.28
-9.50
-5.47
-2.18
0.34
2.00
2.78
2.79
2.27
1.46
0.56
-0.37
-1.29
-2.19
-2.97
-3.49
-3.71
-3.68
-3.55
-3.47
-3.54
-3.76
-4.10
-4.56
-5.20
-6.14
-7.43
-9.05
-10.90
-12.90
-14.99
-17.17
-19.45
-21.79
-24.07
-26.23
-28.28
-30.37
-32.76
-35.67
-39.18
-43.03
-46.67
-49.33
-50.25
-48.98
-45.53
-40.40
-34.43
-28.51
-23.27
-18.97
-15.52
-12.63
-10.06
-7.73
-5.73
-4.27
-3.47
-3.30
-3.56
-3.93
-4.11
-3.97
-3.53
-2.91
-2.23
-1.52
-0.71
0.27
1.41
2.54
3.33
3.52
3.02
1.93
0.62
-0.58
-1.43
-1.94
-2.26
-2.65
-3.30
-4.24
-5.45
-6.89
-8.54
-10.44
-12.61
-14.95
-17.32
-19.58
-21.72
-23.92
-26.45
-29.45
-32.75
-35.78
-37.76
-37.98
-36.10
-32.31
-27.20
-21.52
-15.95
-10.88
-6.48
-2.78
0.25
2.63
4.42
5.74
6.78
7.74
8.74
9.79
10.77
11.54
12.00
12.14
12.09
12.04
12.21
12.76
13.68
14.82
15.90
16.67
16.97
16.79
16.30
15.73
15.21
14.78
14.30
13.55
12.28
10.40
7.99
5.30
2.64
0.30
-1.58
-3.08
-4.44
-6.04
-8.23
-11.23
-15.01
-19.28
-23.50
-27.04
-29.29
-29.85
-28.65
-25.94
-22.15
-17.86
-13.58
-9.65
-6.23
-3.27
-0.63
1.83
4.15
6.23
7.91
9.06
9.68
9.94
10.14
10.54
11.25
12.16
13.10
13.87
14.46
14.95
15.46
16.04
16.58
16.89
16.86
16.47
15.87
15.25
14.78
14.47
14.19
13.78
13.09
12.11
10.88
9.46
7.93
6.32
4.65
2.89
0.97
-1.28
-4.00
-7.31
-11.18
-15.33
-19.25
-22.30
-23.92
-23.76
-21.86
-18.59
-14.59
-10.49
-6.77
-3.66
-1.07
1.17
3.25
5.15
6.77
7.91
8.47
8.54
8.38
8.24
8.35
8.79
9.53
10.53
11.76
13.16
14.61
15.89
16.77
17.11
16.94
16.47
15.96
15.55
15.21
14.72
13.83
12.47
10.78
9.04
7.48
6.14
4.80
3.14
0.85
-2.17
-5.85
-9.98
-14.37
-18.73
-22.67
-25.68
-27.19
-26.76
-24.34
-20.36
-15.58
-10.84
-6.77
-3.60
-1.29
0.39
1.59
2.38
2.77
2.80
2.56
2.21
1.81
1.38
0.94
0.49
0.15
0.07
0.35
0.98
1.78
2.46
2.78
2.63
2.14
1.56
1.16
1.11
1.29
1.44
1.20
0.35
-1.14
-3.07
-5.11
-6.98
-8.59
-10.05
-11.60
-13.49
-15.88
-18.77
-22.03
-25.39
-28.47
-30.80
-31.90
-31.36
-29.00
-24.99
-19.83
-14.25
-8.96
-4.47
-1.01
1.42
3.00
3.92
4.35
4.45
4.36
4.24
4.18
4.22
4.35
4.57
4.89
5.35
5.92
6.53
7.08
7.52
7.85
8.18
8.58
9.06
9.46
9.62
9.41
8.87
8.12
7.32
6.49
5.52
4.29
2.71
0.84
-1.25
-3.50
-6.03
-9.07
-12.78
-17.15
-21.78
-26.06
-29.25
-30.76
-30.28
-27.86
-23.86
-18.86
-13.54
-8.51
-4.21
-0.82
1.67
3.43
4.68
5.56
6.16
6.54
6.78
6.96
7.22
7.65
8.29
9.11
10.02
10.91
11.68
12.27
12.64
12.83
12.84
12.69
12.36
11.87
11.22
10.47
9.67
8.82
7.86
6.69
5.25
3.57
1.73
-0.17
-2.07
-4.05
-6.30
-9.05
-12.46
-16.45
-20.61
-24.27
-26.58
-26.88
-24.92
-20.97
-15.80
-10.33
-5.35
-1.24
2.02
4.67
6.90
8.71
9.96
10.55
10.52
10.14
9.72
9.54
9.66
10.04
10.58
11.18
11.78
12.31
12.73
13.05
13.30
13.56
13.91
14.32
14.67
14.77
14.46
13.64
12.33
10.58
8.48
6.16
3.76
1.42
-0.77
-2.89
-5.23
-8.15
-11.90
-16.47
-21.41
-25.92
-29.10
-30.22
-28.99
-25.59
-20.65
-14.96
-9.27
-4.14
0.15
3.49
5.92
7.54
8.53
9.12
9.53
9.94
10.45
11.05
11.72
12.42
13.14
13.86
14.54
15.09
15.41
15.45
15.26
14.90
14.49
14.10
13.72
13.29
12.70
11.78
10.46
8.69
6.58
4.32
2.16
0.20
-1.58
-3.38
-5.51
-8.24
-11.71
-15.83
-20.25
-24.40
-27.55
-29.02
-28.37
-25.57
-21.03
-15.49
-9.74
-4.38
0.31
4.26
7.46
9.87
11.35
11.88
11.59
10.89
10.30
10.29
11.06
12.48
14.15
15.60
16.47
16.62
16.19
15.49
14.88
14.54
14.52
14.62
14.59
14.14
13.12
11.49
9.35
6.87
4.26
1.72
-0.66
-2.91
-5.19
-7.71
-10.70
-14.24
-18.25
-22.45
-26.31
-29.19
-30.43
-29.59
-26.57
-21.72
-15.74
-9.44
-3.55
1.54
5.66
8.81
11.04
12.33
12.70
12.28
11.36
10.31
9.54
9.24
9.44
9.94
10.48
10.81
10.87
10.73
10.56
10.48
10.52
10.55
10.34
9.68
8.46
6.73
4.69
2.57
0.57
-1.25
-2.99
-4.86
-7.10
-9.96
-13.54
-17.84
-22.70
-27.76
-32.51
-36.31
-38.54
-38.68
-36.58
-32.47
-26.90
-20.62
-14.29
-8.34
-3.02
1.56
5.31
8.11
9.89
10.67
10.70
10.33
9.90
9.64
9.61
9.74
9.94
10.14
10.34
10.52
10.73
10.96
11.22
11.52
11.79
11.86
11.49
10.47
8.71
6.33
3.65
1.03
-1.27
-3.22
-5.00
-6.85
-9.05
-11.76
-15.11
-19.11
-23.67
-28.44
-32.83
-36.03
-37.23
-35.97
-32.28
-26.72
-20.17
-13.51
-7.34
-1.93
2.68
6.51
9.52
11.59
12.65
12.75
12.12
11.14
10.23
9.71
9.78
10.43
11.56
12.92
14.24
15.33
16.03
16.32
16.28
15.98
15.51
14.85
13.97
12.82
11.37
9.62
7.63
5.44
3.09
0.59
-2.04
-4.82
-7.78
-11.00
-14.63
-18.84
-23.59
-28.64
-33.38
-37.01
-38.70
-37.85
-34.33
-28.54
-21.24
-13.41
-5.92
0.61
5.88
9.83
12.58
14.31
15.24
15.57
15.50
15.23
14.94
14.76
14.76
14.96
15.32
15.78
16.27
16.72
17.02
17.14
17.07
16.86
16.60
16.26
15.77
14.91
13.51
11.50
9.00
6.33
3.82
1.66
-0.25
-2.20
-4.57
-7.66
-11.55
-16.15
-21.24
-26.46
-31.33
-35.19
-37.25
-36.89
-33.87
-28.53
-21.72
-14.53
-7.85
-2.18
2.50
6.44
9.86
12.79
15.02
16.33
16.65
16.20
15.37
14.58
14.09
13.94
14.06
14.33
14.72
15.20
15.72
16.14
16.31
16.14
15.73
15.32
15.13
15.17
15.20
14.80
13.62
11.51
8.63
5.31
1.94
-1.29
-4.33
-7.29
-10.37
-13.78
-17.73
-22.38
-27.68
-33.21
-38.17
-41.47
-42.11
-39.56
-33.98
-26.22
-17.56
-9.25
-2.12
3.55
7.94
11.41
14.21
16.39
17.85
18.45
18.25
17.53
16.72
16.22
16.23
16.70
17.42
18.16
18.80
19.35
19.86
20.34
20.72
20.84
20.54
19.74
18.43
16.69
14.64
12.38
9.96
7.46
4.91
2.34
-0.21
-2.79
-5.51
-8.53
-12.07
-16.24
-20.95
-25.80
-30.10
-32.98
-33.64
-31.64
-27.03
-20.36
-12.52
-4.44
3.08
9.58
14.86
18.89
21.62
23.05
23.20
22.23
20.51
18.53
16.83
15.79
15.54
15.90
16.51
16.91
16.81
16.14
15.09
13.99
13.05
12.28
11.39
9.99
7.78
4.70
1.04
-2.74
-6.18
-9.09
-11.58
-13.97
-16.66
-19.96
-24.01
-28.78
-34.06
-39.45
-44.33
-47.82
-49.05
-47.32
-42.44
-34.89
-25.69
-16.13
-7.36
-0.06
5.61
9.81
12.80
14.77
15.78
15.87
15.22
14.14
13.05
12.32
12.15
12.49
13.10
13.63
13.81
13.52
12.81
11.87
10.91
10.01
9.12
8.06
6.59
4.59
2.04
-0.88
-4.02
-7.21
-10.41
-13.68
-17.08
-20.67
-24.51
-28.69
-33.35
-38.57
-44.14
-49.43
-53.38
-54.78
-52.73
-47.00
-38.21
-27.62
-16.69
-6.56
2.12
9.24
14.93
19.39
22.67
24.77
25.67
25.51
24.55
23.17
21.79
20.74
20.21
20.18
20.50
20.87
21.05
20.93
20.53
20.00
19.45
18.87
18.01
16.59
14.32
11.20
7.45
3.48
-0.29
-3.65
-6.69
-9.70
-13.05
-17.09
-22.04
-27.96
-34.71
-41.83
-48.49
-53.49
-55.58
-53.84
-48.07
-38.92
-27.77
-16.21
-5.58
3.39
10.58
16.27
20.84
24.47
27.15
28.80
29.43
29.28
28.77
28.37
28.41
28.88
29.49
29.82
29.57
28.74
27.59
26.48
25.61
24.91
24.03
22.55
20.23
17.11
13.51
9.85
6.42
3.32
0.39
-2.64
-6.08
-10.16
-15.03
-20.77
-27.30
-34.35
-41.27
-47.10
-50.65
-50.89
-47.26
-39.98
-29.98
-18.62
-7.29
3.05
11.88
19.16
24.96
29.26
31.99
33.07
32.69
31.31
29.68
28.47
28.11
28.64
29.70
30.87
31.76
32.21
32.27
32.08
31.81
31.45
30.84
29.74
27.86
25.05
21.35
17.07
12.64
8.50
4.90
1.78
-1.23
-4.64
-8.99
-14.60
-21.46
-29.14
-36.74
-43.03
-46.70
-46.77
-42.89
-35.50
-25.70
-14.90
-4.36
5.08
13.07
19.62
24.80
28.59
30.85
31.52
30.73
28.93
26.76
24.80
23.40
22.54
21.95
21.30
20.35
19.15
17.88
16.78
15.90
15.04
13.84
11.86
8.87
4.90
0.35
-4.27
-8.48
-12.06
-15.19
-18.36
-22.19
-27.24
-33.77
-41.54
-49.80
-57.36
-62.78
-64.81
-62.70
-56.46
-46.85
-35.15
-22.72
-10.70
0.25
9.81
17.90
24.43
29.22
32.13
33.16
32.61
31.05
29.16
27.56
26.58
26.21
26.20
26.17
25.83
25.05
23.85
22.37
20.68
18.73
16.36
13.32
9.46
4.81
-0.38
-5.73
-10.85
-15.52
-19.76
-23.83
-28.20
-33.34
-39.63
-47.11
-55.30
-63.20
-69.40
-72.48
-71.42
-65.95
-56.61
-44.59
-31.27
-17.90
-5.38
5.78
15.26
22.85
28.39
31.89
33.55
33.80
33.18
32.20
31.21
30.41
29.77
29.19
28.56
27.71
26.59
25.23
23.75
22.30
20.92
19.54
17.83
15.39
11.88
7.25
1.76
-4.06
-9.59
-14.44
-18.56
-22.31
-26.29
-31.11
-37.21
-44.60
-52.83
-60.99
-67.79
-71.84
-71.95
-67.52
-58.75
-46.66
-32.80
-18.81
-5.95
5.16
14.47
22.26
28.79
34.09
37.98
40.27
41.00
40.46
39.19
37.74
36.49
35.57
34.86
34.13
33.23
32.13
30.90
29.65
28.38
26.91
24.90
21.99
17.97
12.89
7.16
1.33
-4.04
-8.67
-12.65
-16.37
-20.37
-25.13
-31.00
-38.09
-46.18
-54.69
-62.57
-68.43
-70.82
-68.69
-61.83
-50.98
-37.66
-23.63
-10.40
1.20
10.99
19.22
26.24
32.19
36.96
40.36
42.23
42.69
42.12
41.00
39.79
38.73
37.82
36.93
35.92
34.71
33.40
32.14
31.02
29.94
28.66
26.81
24.08
20.34
15.72
10.60
5.42
0.58
-3.77
-7.68
-11.45
-15.49
-20.17
-25.82
-32.61
-40.47
-48.98
-57.28
-64.07
-67.85
-67.39
-62.15
-52.55
-39.88
-25.93
-12.40
-0.46
9.45
17.50
24.08
29.49
33.81
36.93
38.77
39.46
39.34
38.89
38.55
38.51
38.66
38.69
38.28
37.25
35.76
34.18
32.93
32.22
31.84
31.21
29.61
26.57
22.12
16.79
11.42
6.68
2.87
-0.26
-3.29
-6.86
-11.46
-17.32
-24.32
-32.03
-39.59
-45.84
-49.46
-49.35
-45.06
-36.93
-26.10
-14.08
-2.29
8.25
17.10
24.20
29.65
33.57
36.04
37.16
37.15
36.30
34.95
33.37
31.73
30.06
28.40
26.76
25.28
24.08
23.26
22.76
22.32
21.53
19.93
17.19
13.27
8.39
3.03
-2.27
-7.09
-11.32
-15.15
-19.06
-23.59
-29.17
-35.95
-43.63
-51.43
-58.16
-62.48
-63.24
-59.83
-52.46
-42.09
-30.16
-18.14
-7.10
2.49
10.58
17.37
22.87
26.90
29.14
29.43
27.99
25.42
22.62
20.36
19.03
18.58
18.52
18.31
17.64
16.46
15.02
13.61
12.36
11.12
9.56
7.32
4.19
0.23
-4.30
-9.05
-13.66
-17.93
-21.83
-25.52
-29.32
-33.65
-38.87
-45.17
-52.36
-59.73
-66.08
-69.93
-69.98
-65.52
-56.79
-44.92
-31.56
-18.38
-6.52
3.50
11.75
18.53
24.03
28.22
30.96
32.19
32.12
31.28
30.29
29.66
29.58
29.87
30.11
29.88
28.96
27.43
25.64
23.96
22.60
21.50
20.31
18.57
15.87
12.08
7.38
2.21
-2.89
-7.54
-11.63
-15.37
-19.18
-23.47
-28.60
-34.75
-41.77
-49.22
-56.22
-61.55
-63.92
-62.35
-56.56
-47.17
-35.46
-22.99
-11.08
-0.50
8.55
16.17
22.50
27.59
31.28
33.48
34.23
33.82
32.76
31.60
30.71
30.20
29.94
29.62
29.05
28.21
27.29
26.58
26.28
26.25
26.14
25.40
23.60
20.61
16.69
12.31
8.09
4.37
1.20
-1.74
-4.99
-9.09
-14.39
-20.90
-28.22
-35.56
-41.84
-45.88
-46.69
-43.76
-37.24
-27.93
-17.08
-5.95
4.45
13.51
20.98
26.79
30.87
33.23
33.96
33.35
31.90
30.16
28.57
27.34
26.43
25.64
24.78
23.69
22.37
20.90
19.38
17.91
16.46
14.89
12.93
10.33
6.96
2.93
-1.45
-5.76
-9.64
-12.99
-16.00
-19.11
-22.89
-27.74
-33.66
-40.15
-46.17
-50.42
-51.65
-49.16
-43.01
-34.02
-23.52
-12.88
-3.11
5.31
12.31
17.99
22.37
25.32
26.69
26.46
24.97
22.84
20.83
19.51
19.07
19.27
19.64
19.77
19.47
18.85
18.15
17.52
16.84
15.76
13.86
10.92
7.04
2.61
-1.84
-5.96
-9.66
-13.14
-16.75
-20.88
-25.82
-31.69
-38.38
-45.43
-51.98
-56.93
-59.13
-57.81
-52.80
-44.68
-34.57
-23.81
-13.57
-4.58
2.83
8.70
13.20
16.52
18.78
20.05
20.42
20.07
19.24
18.28
17.46
16.93
16.65
16.40
16.03
15.45
14.70
13.82
12.76
11.32
9.27
6.47
2.99
-0.88
-4.77
-8.37
-11.55
-14.39
-17.07
-19.92
-23.34
-27.76
-33.44
-40.26
-47.48
-53.86
-57.94
-58.53
-55.16
-48.25
-38.90
-28.47
-18.14
-8.61
-0.13
7.28
13.57
18.61
22.23
24.37
25.23
25.24
24.89
24.53
24.29
24.05
23.58
22.77
21.78
20.95
20.63
20.90
21.46
21.71
20.95
18.78
15.26
10.92
6.52
2.71
-0.25
-2.54
-4.67
-7.20
-10.58
-15.03
-20.51
-26.71
-33.09
-38.79
-42.76
-44.00
-41.87
-36.34
-28.12
-18.40
-8.52
0.46
8.00
14.05
18.89
22.85
26.10
28.67
30.48
31.52
31.89
31.79
31.46
31.03
30.55
29.93
29.05
27.91
26.61
25.33
24.15
23.00
21.62
19.70
17.02
13.60
9.70
5.68
1.91
-1.46
-4.52
-7.62
-11.18
-15.58
-20.87
-26.70
-32.21
-36.27
-37.81
-36.17
-31.39
-24.14
-15.53
-6.72
1.41
8.35
13.95
18.23
21.31
23.26
24.16
24.09
23.22
21.83
20.26
18.83
17.72
16.92
16.31
15.67
14.89
13.91
12.81
11.61
10.25
8.58
6.44
3.76
0.66
-2.65
-5.88
-8.90
-11.74
-14.64
-18.00
-22.19
-27.38
-33.37
-39.44
-44.55
-47.56
-47.59
-44.32
-38.15
-30.03
-21.15
-12.55
-4.87
1.68
7.16
11.65
15.13
17.41
18.31
17.92
16.56
14.81
13.24
12.18
11.65
11.46
11.33
11.11
10.81
10.49
10.15
9.63
8.66
6.97
4.45
1.22
-2.42
-6.09
-9.47
-12.42
-15.00
-17.38
-19.86
-22.72
-26.27
-30.71
-36.02
-41.82
-47.31
-51.36
-52.87
-51.11
-46.05
-38.38
-29.30
-20.02
-11.43
-3.95
2.44
7.92
12.57
16.33
19.02
20.55
21.02
20.82
20.41
20.22
20.43
20.94
21.44
21.64
21.40
20.77
19.97
19.20
18.54
17.90
17.03
15.72
13.79
11.23
8.10
4.57
0.86
-2.80
-6.26
-9.50
-12.66
-16.02
-19.95
-24.64
-30.02
-35.55
-40.30
-43.17
-43.27
-40.19
-34.18
-26.05
-16.93
-7.85
0.41
7.50
13.33
17.95
21.43
23.85
25.36
26.20
26.67
27.00
27.29
27.49
27.47
27.15
26.58
25.91
25.31
24.92
24.77
24.81
24.93
24.97
24.70
23.88
22.27
19.82
16.71
13.31
10.03
7.15
4.65
2.28
-0.37
-3.71
-7.98
-13.20
-19.03
-24.76
-29.42
-31.97
-31.68
-28.33
-22.41
-14.87
-6.86
0.71
7.30
12.73
17.08
20.45
22.88
24.38
25.00
24.86
24.20
23.33
22.53
22.01
21.84
21.90
21.98
21.88
21.41
20.58
19.45
18.09
16.56
14.81
12.79
10.48
7.90
5.08
2.02
-1.21
-4.58
-7.95
-11.20
-14.28
-17.30
-20.60
-24.54
-29.31
-34.70
-39.98
-44.09
-45.98
-45.00
-41.11
-34.87
-27.25
-19.23
-11.61
-4.84
0.85
5.39
8.72
10.74
11.47
11.08
9.94
8.59
7.55
7.14
7.38
8.00
8.60
8.88
8.73
8.29
7.80
7.44
7.23
6.99
6.50
5.52
3.95
1.81
-0.77
-3.59
-6.43
-9.07
-11.39
-13.36
-15.10
-16.88
-18.99
-21.75
-25.32
-29.75
-34.81
-40.03
-44.71
-47.97
-49.00
-47.29
-42.81
-36.04
-27.85
-19.23
-11.06
-3.88
2.09
6.84
10.52
13.29
15.32
16.74
17.67
18.22
18.42
18.31
17.96
17.47
17.03
16.79
16.87
17.21
17.63
17.86
17.68
17.00
15.88
14.49
13.03
11.63
10.30
8.93
7.41
5.63
3.55
1.24
-1.16
-3.49
-5.59
-7.42
-9.14
-11.03
-13.49
-16.84
-21.27
-26.62
-32.42
-37.85
-41.94
-43.83
-42.93
-39.19
-33.06
-25.42
-17.27
-9.49
-2.66
3.05
7.68
11.39
14.35
16.64
18.34
19.49
20.18
20.52
20.60
20.55
20.47
20.46
20.59
20.88
21.33
21.91
22.56
23.17
23.55
23.47
22.77
21.39
19.54
17.58
15.84
14.45
13.26
11.90
10.04
7.55
4.62
1.63
-1.11
-3.47
-5.60
-7.80
-10.39
-13.60
-17.48
-21.89
-26.42
-30.41
-33.06
-33.59
-31.54
-26.97
-20.47
-12.99
-5.49
1.32
7.11
11.82
15.55
18.35
20.20
21.01
20.78
19.68
18.08
16.45
15.25
14.81
15.07
15.81
16.62
17.17
17.31
17.07
16.56
15.89
15.14
14.27
13.23
11.95
10.36
8.39
6.04
3.34
0.37
-2.70
-5.79
-8.83
-11.87
-14.97
-18.21
-21.64
-25.36
-29.44
-33.88
-38.35
-42.24
-44.67
-44.82
-42.23
-37.07
-30.09
-22.33
-14.81
-8.21
-2.75
1.67
5.23
8.07
10.18
11.48
11.93
11.66
10.92
10.05
9.33
8.88
8.65
8.49
8.26
7.99
7.81
7.86
8.17
8.60
8.84
8.61
7.80
6.53
5.08
3.66
2.36
1.01
-0.63
-2.75
-5.36
-8.25
-11.15
-13.85
-16.32
-18.68
-21.12
-23.84
-26.95
-30.58
-34.76
-39.41
-44.14
-48.21
-50.62
-50.45
-47.24
-41.20
-33.22
-24.53
-16.25
-9.07
-3.16
1.68
5.76
9.31
12.36
14.78
16.44
17.26
17.34
16.91
16.28
15.77
15.53
15.62
15.96
16.46
17.06
17.73
18.39
18.83
18.80
18.05
16.55
14.48
12.22
10.15
8.45
7.04
5.67
4.04
1.96
-0.54
-3.31
-6.17
-8.97
-11.71
-14.45
-17.33
-20.50
-24.15
-28.40
-33.19
-38.29
-43.09
-46.80
-48.62
-47.94
-44.56
-38.74
-31.10
-22.55
-13.97
-6.11
0.59
5.98
10.22
13.60
16.35
18.60
20.36
21.58
22.29
22.66
22.90
23.22
23.68
24.18
24.58
24.79
24.81
24.71
24.54
24.29
23.88
23.23
22.34
21.31
20.28
19.40
18.67
17.95
17.04
15.71
13.85
11.53
8.95
6.37
4.02
1.96
0.09
-1.89
-4.30
-7.45
-11.36
-15.76
-19.96
-23.01
-23.95
-22.13
-17.44
-10.40
-1.98
6.73
14.87
21.93
27.84
32.65
36.39
39.00
40.33
40.36
39.26
37.39
35.24
33.25
31.68
30.56
29.77
29.07
28.27
27.26
25.99
24.48
22.79
20.97
19.06
17.06
14.90
12.49
9.77
6.76
3.53
0.24
-2.97
-6.05
-9.01
-11.97
-15.06
-18.45
-22.27
-26.54
-31.10
-35.60
-39.40
-41.76
-42.04
-39.85
-35.31
-28.95
-21.61
-14.12
-7.12
-1.01
4.11
8.20
11.28
13.33
14.32
14.33
13.57
12.38
11.15
10.21
9.73
9.69
9.94
10.26
10.44
10.37
9.95
9.19
8.11
6.69
4.97
2.96
0.73
-1.64
-4.06
-6.48
-8.82
-11.11
-13.41
-15.80
-18.43
-21.52
-25.29
-29.90
-35.28
-40.93
-45.98
-49.31
-49.93
-47.32
-41.63
-33.67
-24.61
-15.52
-7.22
-0.10
5.75
10.33
13.63
15.64
16.40
16.12
15.18
14.04
13.09
12.56
12.38
12.36
12.19
11.69
10.76
9.52
8.17
6.90
5.84
4.93
3.98
2.77
1.10
-1.09
-3.71
-6.57
-9.46
-12.22
-14.84
-17.39
-20.03
-22.94
-26.28
-30.15
-34.52
-39.04
-43.06
-45.65
-45.92
-43.36
-38.07
-30.77
-22.50
-14.26
-6.70
-0.01
5.84
10.98
15.36
18.81
21.09
22.16
22.16
21.49
20.65
20.04
19.88
20.08
20.44
20.65
20.54
20.13
19.55
18.97
18.41
17.70
16.57
14.71
12.02
8.63
4.92
1.35
-1.73
-4.22
-6.31
-8.40
-10.97
-14.38
-18.79
-24.09
-29.90
-35.58
-40.28
-43.09
-43.31
-40.59
-35.14
-27.67
-19.18
-10.67
-2.87
3.83
9.30
13.53
16.54
18.38
19.14
19.09
18.57
17.96
17.55
17.41
17.44
17.41
17.14
16.60
15.91
15.31
15.03
15.14
15.53
15.87
15.80
15.03
13.48
11.34
8.92
6.53
4.35
2.36
0.32
-2.09
-5.23
-9.27
-14.20
-19.65
-24.97
-29.26
-31.59
-31.23
-27.91
-21.95
-14.13
-5.56
2.74
9.98
15.79
20.14
23.23
25.31
26.58
27.25
27.49
27.50
27.42
27.34
27.20
26.87
26.26
25.35
24.31
23.35
22.69
22.39
22.36
22.31
21.90
20.81
18.90
16.21
13.03
9.71
6.53
3.62
0.87
-2.00
-5.26
-9.12
-13.52
-18.18
-22.54
-25.86
-27.43
-26.68
-23.54
-18.38
-12.02
-5.44
0.59
5.65
9.76
13.05
15.63
17.40
18.14
17.75
16.34
14.30
12.20
10.53
9.53
9.18
9.22
9.35
9.29
8.96
8.39
7.69
6.99
6.28
5.49
4.47
3.10
1.35
-0.72
-2.95
-5.21
-7.40
-9.50
-11.52
-13.51
-15.59
-17.92
-20.70
-24.08
-28.00
-32.10
-35.68
-37.86
-37.89
-35.40
-30.57
-24.04
-16.74
-9.51
-3.00
2.53
7.03
10.62
13.39
15.40
16.67
17.24
17.23
16.85
16.34
15.89
15.64
15.64
15.86
16.26
16.76
17.22
17.48
17.35
16.69
15.47
13.82
11.96
10.15
8.57
7.26
6.16
5.14
4.11
2.99
1.80
0.54
-0.81
-2.32
-4.17
-6.55
-9.56
-13.18
-17.20
-21.23
-24.77
-27.24
-28.09
-26.97
-23.84
-19.03
-13.18
-7.11
-1.51
3.17
6.82
9.60
11.66
13.11
13.91
14.07
13.69
13.11
12.71
12.84
13.59
14.80
16.15
17.33
18.14
18.56
18.68
18.62
18.48
18.23
17.86
17.30
16.51
15.48
14.24
12.81
11.17
9.31
7.16
4.77
2.22
-0.30
-2.62
-4.66
-6.49
-8.31
-10.39
-12.96
-16.09
-19.60
-23.07
-25.82
-27.15
-26.48
-23.62
-18.82
-12.76
-6.27
-0.13
5.09
9.17
12.17
14.23
15.55
16.27
16.46
16.18
15.54
14.70
13.86
13.23
12.89
12.77
12.72
12.53
12.09
11.38
10.54
9.68
8.88
8.12
7.31
6.35
5.21
3.97
2.72
1.57
0.50
-0.58
-1.89
-3.56
-5.68
-8.15
-10.84
-13.59
-16.35
-19.12
-21.92
-24.56
-26.63
-27.55
-26.77
-24.07
-19.67
-14.19
-8.46
-3.16
1.35
5.02
7.96
10.26
11.89
12.76
12.84
12.26
11.30
10.29
9.47
8.92
8.56
8.21
7.76
7.18
6.57
6.06
5.71
5.52
5.39
5.21
4.88
4.42
3.84
3.12
2.21
0.96
-0.66
-2.68
-4.95
-7.28
-9.47
-11.41
-13.08
-14.51
-15.85
-17.26
-19.01
-21.36
-24.45
-28.10
-31.83
-34.84
-36.26
-35.49
-32.40
-27.41
-21.31
-15.06
-9.38
-4.66
-0.94
1.99
4.35
6.29
7.80
8.83
9.27
9.06
8.28
7.13
5.89
4.82
4.11
3.77
3.72
3.85
4.08
4.44
4.98
5.70
6.44
6.91
6.78
5.95
4.59
3.10
1.90
1.20
0.90
0.67
0.16
-0.85
-2.29
-4.01
-5.80
-7.51
-9.14
-10.69
-12.22
-13.77
-15.51
-17.66
-20.39
-23.63
-26.95
-29.62
-30.80
-29.95
-27.01
-22.47
-17.10
-11.73
-6.93
-2.85
0.59
3.60
6.25
8.47
10.01
10.75
10.70
10.13
9.43
8.89
8.71
8.82
9.05
9.22
9.25
9.20
9.14
9.21
9.41
9.74
10.11
10.43
10.66
10.74
10.70
10.57
10.43
10.32
10.23
10.03
9.56
8.63
7.15
5.12
2.69
0.09
-2.43
-4.72
-6.72
-8.51
-10.29
-12.33
-14.91
-18.21
-22.19
-26.50
-30.53
-33.46
-34.56
-33.35
-29.88
-24.62
-18.33
-11.83
-5.74
-0.43
4.02
7.61
10.39
12.48
14.00
15.11
15.93
16.52
16.82
16.76
16.33
15.68
15.03
14.66
14.68
15.08
15.69
16.27
16.63
16.62
16.20
15.37
14.13
12.53
10.61
8.45
6.15
3.82
1.57
-0.56
-2.56
-4.45
-6.31
-8.19
-10.15
-12.32
-14.86
-17.99
-21.83
-26.27
-30.90
-35.06
-37.99
-39.07
-37.98
-34.74
-29.69
-23.38
-16.38
-9.32
-2.74
2.95
7.48
10.74
12.82
13.87
14.10
13.76
13.10
12.38
11.84
11.65
11.82
12.28
12.86
13.40
13.81
14.06
14.22
14.29
14.27
14.05
13.49
12.49
11.09
9.42
7.70
6.11
4.68
3.23
1.47
-0.84
-3.78
-7.16
-10.63
-13.77
-16.36
-18.42
-20.24
-22.28
-24.93
-28.46
-32.84
-37.77
-42.64
-46.60
-48.77
-48.48
-45.44
-39.85
-32.39
-23.97
-15.48
-7.59
-0.67
5.13
9.79
13.28
15.58
16.78
17.07
16.79
16.29
15.83
15.54
15.41
15.34
15.27
15.23
15.30
15.61
16.22
17.04
17.91
18.55
18.72
18.27
17.23
15.74
14.02
12.23
10.43
8.57
6.56
4.36
2.01
-0.41
-2.81
-5.10
-7.27
-9.35
-11.46
-13.76
-16.51
-20.00
-24.38
-29.61
-35.18
-40.27
-43.84
-44.98
-43.19
-38.54
-31.64
-23.37
-14.70
-6.44
0.93
7.13
12.09
15.85
18.50
20.19
21.12
21.49
21.49
21.28
21.01
20.84
20.83
21.07
21.51
22.09
22.70
23.20
23.50
23.50
23.14
22.39
21.25
19.78
18.06
16.14
14.02
11.71
9.14
6.32
3.30
0.19
-2.87
-5.82
-8.67
-11.56
-14.73
-18.44
-22.82
-27.74
-32.70
-36.93
-39.53
-39.75
-37.25
-32.26
-25.43
-17.66
-9.78
-2.36
4.27
10.04
14.93
18.88
21.80
23.63
24.37
24.17
23.32
22.22
21.28
20.84
21.10
21.97
23.20
24.40
25.26
25.61
25.48
25.01
24.35
23.51
22.40
20.82
18.63
15.83
12.57
9.06
5.53
2.07
-1.30
-4.67
-8.10
-11.60
-15.16
-18.75
-22.47
-26.47
-31.00
-36.07
-41.35
-46.05
-49.11
-49.57
-46.93
-41.34
-33.60
-24.82
-16.01
-7.87
-0.67
5.52
10.70
14.80
17.74
19.49
20.20
20.20
19.86
19.51
19.34
19.41
19.72
20.18
20.73
21.31
21.81
22.16
22.27
22.05
21.50
20.60
19.43
18.09
16.65
15.12
13.44
11.45
9.01
6.08
2.77
-0.70
-4.10
-7.27
-10.19
-12.99
-15.87
-19.06
-22.77
-27.14
-32.13
-37.42
-42.30
-45.85
-47.04
-45.21
-40.26
-32.76
-23.79
-14.54
-5.98
1.38
7.41
12.23
15.97
18.68
20.43
21.34
21.73
22.00
22.48
23.28
24.27
25.18
25.79
26.08
26.17
26.23
26.33
26.40
26.33
26.00
25.38
24.47
23.24
21.62
19.53
16.99
14.09
11.00
7.80
4.47
0.98
-2.61
-6.10
-9.23
-11.85
-14.11
-16.51
-19.66
-23.98
-29.36
-35.10
-40.03
-42.90
-42.77
-39.38
-33.15
-25.04
-16.22
-7.67
-0.01
6.56
12.06
16.59
20.16
22.77
24.42
25.25
25.48
25.38
25.17
25.02
25.03
25.22
25.55
25.93
26.25
26.44
26.48
26.39
26.20
25.86
25.25
24.25
22.78
20.82
18.44
15.68
12.56
9.17
5.62
2.18
-0.93
-3.56
-5.82
-7.99
-10.50
-13.69
-17.70
-22.30
-26.91
-30.70
-32.77
-32.44
-29.42
-23.96
-16.80
-8.93
-1.31
5.35
10.76
14.90
17.89
19.90
21.04
21.40
21.14
20.51
19.81
19.33
19.24
19.50
19.93
20.26
20.28
19.87
19.10
18.09
16.97
15.83
14.63
13.30
11.72
9.77
7.40
4.62
1.49
-1.82
-5.12
-8.19
-10.93
-13.38
-15.77
-18.42
-21.71
-25.80
-30.57
-35.50
-39.76
-42.42
-42.70
-40.28
-35.40
-28.76
-21.25
-13.69
-6.65
-0.44
4.81
9.04
12.22
14.36
15.53
15.92
15.76
15.27
14.63
13.98
13.41
13.03
12.93
13.13
13.64
14.33
15.00
15.41
15.33
14.64
13.34
11.67
9.89
8.24
6.83
5.60
4.38
2.99
1.34
-0.63
-2.86
-5.31
-7.93
-10.65
-13.36
-15.98
-18.53
-21.22
-24.35
-28.22
-32.77
-37.51
-41.53
-43.77
-43.37
-40.05
-34.21
-26.75
-18.77
-11.19
-4.54
1.06
5.76
9.75
13.11
15.79
17.64
18.61
18.80
18.42
17.78
17.11
16.54
16.08
15.74
15.56
15.57
15.83
16.25
16.65
16.84
16.63
15.94
14.83
13.43
11.95
10.59
9.48
8.58
7.74
6.69
5.20
3.19
0.77
-1.77
-4.13
-6.10
-7.72
-9.23
-11.05
-13.57
-17.12
-21.70
-27.00
-32.30
-36.69
-39.21
-39.17
-36.38
-31.14
-24.19
-16.47
-8.89
-2.09
3.58
8.10
11.62
14.34
16.46
18.03
19.10
19.68
19.83
19.70
19.44
19.17
18.92
18.65
18.31
17.88
17.43
17.00
16.62
16.29
15.92
15.46
14.89
14.17
13.24
11.99
10.28
8.01
5.22
2.11
-1.03
-3.98
-6.68
-9.28
-12.04
-15.23
-18.90
-22.94
-27.06
-30.87
-33.91
-35.73
-35.86
-33.99
-30.03
-24.31
-17.47
-10.35
-3.73
1.87
6.30
9.66
12.14
13.85
14.80
15.00
14.52
13.64
12.74
12.20
12.23
12.76
13.51
14.12
14.29
13.96
13.28
12.55
12.01
11.67
11.31
10.56
9.07
6.70
3.57
0.10
-3.28
-6.18
-8.46
-10.19
-11.66
-13.22
-15.26
-18.11
-21.91
-26.52
-31.44
-35.83
-38.72
-39.29
-37.14
-32.44
-25.89
-18.42
-11.02
-4.42
1.02
5.26
8.46
10.82
12.50
13.55
13.98
13.83
13.22
12.36
11.49
10.85
10.52
10.51
10.69
10.95
11.14
11.21
11.12
10.88
10.46
9.79
8.81
7.49
5.80
3.79
1.54
-0.89
-3.47
-6.18
-8.95
-11.66
-14.21
-16.57
-18.85
-21.32
-24.28
-27.96
-32.30
-36.97
-41.39
-44.87
-46.70
-46.39
-43.67
-38.65
-31.80
-23.88
-15.77
-8.28
-1.93
3.14
7.04
10.04
12.40
14.26
15.66
16.59
17.04
17.08
16.83
16.46
16.17
16.11
16.31
16.81
17.53
18.31
18.97
19.30
19.08
18.18
16.62
14.56
12.31
10.21
8.50
7.23
6.18
5.03
3.44
1.24
-1.53
-4.65
-7.82
-10.81
-13.53
-16.01
-18.47
-21.14
-24.20
-27.65
-31.23
-34.39
-36.37
-36.46
-34.22
-29.68
-23.36
-16.10
-8.81
-2.19
3.41
7.96
11.53
14.20
16.01
16.96
17.18
16.92
16.50
16.19
16.14
16.32
16.61
16.93
17.27
17.67
18.21
18.90
19.62
20.16
20.27
19.75
18.53
16.77
14.79
13.00
11.69
10.90
10.41
9.81
8.73
7.03
4.86
2.55
0.39
-1.53
-3.34
-5.29
-7.66
-10.60
-14.19
-18.39
-23.00
-27.54
-31.26
-33.21
-32.65
-29.34
-23.72
-16.74
-9.49
-2.82
2.90
7.67
11.64
14.90
17.42
19.12
20.06
20.39
20.37
20.22
20.04
19.85
19.70
19.66
19.78
20.02
20.27
20.35
20.13
19.63
18.96
18.30
17.68
16.98
15.94
14.34
12.06
9.24
6.14
3.05
0.15
-2.55
-5.13
-7.67
-10.26
-12.97
-15.93
-19.32
-23.30
-27.80
-32.43
-36.42
-38.89
-39.12
-36.82
-32.25
-26.07
-19.13
-12.16
-5.67
0.11
5.08
9.18
12.36
14.58
15.85
16.30
16.11
15.51
14.71
13.86
13.10
12.49
12.15
12.11
12.34
12.74
13.06
13.10
12.68
11.77
10.44
8.83
7.08
5.30
3.54
1.75
-0.10
-2.08
-4.27
-6.69
-9.29
-11.97
-14.59
-17.06
-19.45
-21.95
-24.83
-28.36
-32.61
-37.34
-41.92
-45.47
-47.07
-46.05
-42.21
-35.93
-28.05
-19.65
-11.71
-4.84
0.73
5.13
8.65
11.57
14.01
15.96
17.38
18.24
18.64
18.73
18.75
18.83
19.00
19.21
19.39
19.56
19.74
20.02
20.37
20.65
20.69
20.31
19.46
18.17
16.58
14.80
12.89
10.85
8.66
6.27
3.69
0.97
-1.80
-4.52
-7.13
-9.62
-12.11
-14.85
-18.12
-22.17
-26.97
-32.10
-36.73
-39.81
-40.41
-38.04
-32.88
-25.72
-17.68
-9.80
-2.77
3.20
8.20
12.40
15.83
18.42
20.09
20.88
21.01
20.76
20.44
20.23
20.22
20.47
21.04
21.93
23.10
24.36
25.48
26.20
26.37
25.99
25.14
23.93
22.41
20.56
18.32
15.69
12.74
9.62
6.48
3.46
0.60
-2.16
-4.92
-7.82
-11.02
-14.64
-18.79
-23.49
-28.54
-33.48
-37.61
-40.10
-40.30
-37.97
-33.34
-27.10
-20.16
-13.36
-7.30
-2.29
1.61
4.51
6.56
7.94
8.79
9.20
9.25
9.00
8.52
7.96
7.52
7.37
7.60
8.12
8.71
9.15
9.28
9.11
8.74
8.26
7.64
6.74
5.33
3.26
0.60
-2.40
-5.30
-7.78
-9.68
-11.12
-12.40
-13.91
-15.98
-18.86
-22.68
-27.34
-32.49
-37.42
-41.24
-42.99
-42.01
-38.20
-32.04
-24.49
-16.64
-9.35
-3.09
2.09
6.39
10.04
13.19
15.82
17.81
19.05
19.52
19.29
18.61
17.78
17.11
16.77
16.80
17.06
17.40
17.62
17.67
17.56
17.37
17.08
16.56
15.56
13.82
11.21
7.91
4.29
0.79
-2.27
-4.82
-7.06
-9.34
-11.96
-15.14
-18.96
-23.33
-27.95
-32.32
-35.70
-37.27
-36.39
-32.82
-26.92
-19.49
-11.54
-3.91
2.92
8.79
13.77
17.88
21.08
23.27
24.39
24.63
24.30
23.79
23.43
23.38
23.58
23.82
23.88
23.63
23.08
22.39
21.76
21.35
21.08
20.78
20.20
19.14
17.58
15.65
13.52
11.34
9.16
6.90
4.46
1.75
-1.25
-4.56
-8.22
-12.29
-16.81
-21.68
-26.52
-30.69
-33.36
-33.76
-31.52
-26.74
-20.07
-12.42
-4.72
2.34
8.36
13.12
16.54
18.53
19.13
18.55
17.20
15.62
14.30
13.52
13.32
13.49
13.74
13.81
13.52
12.81
11.76
10.56
9.45
8.61
8.10
7.73
7.11
5.81
3.60
0.57
-2.91
-6.31
-9.27
-11.69
-13.74
-15.82
-18.34
-21.69
-26.05
-31.41
-37.40
-43.21
-47.74
-49.80
-48.60
-44.02
-36.76
-28.07
-19.29
-11.40
-4.82
0.59
5.17
9.12
12.40
14.78
16.04
16.20
15.56
14.60
13.80
13.45
13.61
14.16
14.89
15.62
16.21
16.60
16.72
16.50
15.93
14.98
13.72
12.25
10.67
9.02
7.27
5.30
2.94
0.11
-3.13
-6.60
-10.03
-13.24
-16.17
-18.98
-21.98
-25.53
-29.78
-34.58
-39.41
-43.37
-45.51
-45.05
-41.78
-36.02
-28.62
-20.58
-12.75
-5.67
0.48
5.72
10.15
13.79
16.61
18.59
19.78
20.30
20.38
20.30
20.32
20.68
21.50
22.74
24.26
25.78
27.04
27.82
28.03
27.69
26.83
25.52
23.77
21.61
19.12
16.41
13.66
11.03
8.58
6.33
4.18
2.04
-0.16
-2.45
-4.84
-7.46
-10.49
-14.13
-18.47
-23.24
-27.81
-31.24
-32.60
-31.25
-27.11
-20.71
-13.01
-5.09
2.19
8.28
13.05
16.60
19.08
20.65
21.41
21.51
21.12
20.50
19.92
19.62
19.71
20.15
20.77
21.35
21.69
21.73
21.50
21.07
20.54
19.94
19.18
18.09
16.51
14.33
11.61
8.55
5.43
2.55
0.07
-2.05
-3.97
-6.06
-8.69
-12.16
-16.59
-21.86
-27.59
-33.16
-37.80
-40.69
-41.23
-39.10
-34.47
-27.93
-20.33
-12.60
-5.47
0.61
5.51
9.27
12.06
13.98
15.14
15.65
15.63
15.27
14.78
14.31
13.98
13.83
13.84
13.94
14.03
14.07
14.03
13.92
13.72
13.36
12.69
11.55
9.82
7.55
4.86
2.00
-0.84
-3.59
-6.27
-8.97
-11.76
-14.57
-17.23
-19.59
-21.65
-23.62
-25.93
-29.02
-33.16
-38.25
-43.72
-48.62
-51.88
-52.57
-50.29
-45.20
-38.04
-29.82
-21.51
-13.77
-6.86
-0.74
4.78
9.81
14.31
18.10
21.03
23.11
24.50
25.51
26.39
27.22
27.91
28.26
28.13
27.59
26.89
26.36
26.21
26.38
26.63
26.57
25.92
24.62
22.79
20.66
18.44
16.30
14.29
12.41
10.60
8.78
6.85
4.69
2.22
-0.53
-3.48
-6.50
-9.47
-12.34
-15.20
-18.21
-21.58
-25.48
-29.99
-34.92
-39.83
-44.05
-46.83
-47.51
-45.71
-41.45
-35.15
-27.50
-19.34
-11.47
-4.50
1.23
5.65
8.91
11.36
13.36
15.17
16.90
18.46
19.69
20.48
20.90
21.17
21.57
22.26
23.23
24.32
25.30
26.00
26.47
26.79
27.06
27.34
27.48
27.32
26.71
25.66
24.26
22.72
21.25
19.95
18.79
17.59
16.09
14.11
11.62
8.80
5.97
3.42
1.27
-0.60
-2.45
-4.56
-7.13
-10.19
-13.76
-17.81
-22.28
-26.92
-31.14
-34.15
-35.13
-33.52
-29.37
-23.28
-16.22
-9.18
-2.84
2.52
6.97
10.73
13.93
16.57
18.53
19.66
19.98
19.65
19.04
18.50
18.28
18.48
19.02
19.73
20.45
21.04
21.47
21.66
21.51
20.87
19.61
17.72
15.38
12.93
10.77
9.08
7.77
6.50
4.80
2.37
-0.82
-4.52
-8.29
-11.73
-14.64
-16.99
-19.01
-21.06
-23.57
-26.95
-31.35
-36.50
-41.67
-45.78
-47.74
-46.81
-42.92
-36.63
-28.99
-21.14
-13.94
-7.84
-2.84
1.25
4.65
7.42
9.48
10.74
11.24
11.19
10.93
10.74
10.82
11.15
11.64
12.19
12.69
13.10
13.36
13.44
13.30
12.95
12.46
11.88
11.17
10.26
9.07
7.60
6.00
4.50
3.28
2.35
1.51
0.41
-1.26
-3.65
-6.66
-9.96
-13.17
-15.97
-18.28
-20.22
-22.11
-24.39
-27.48
-31.66
-36.87
-42.64
-48.11
-52.21
-53.96
-52.78
-48.66
-42.18
-34.29
-25.99
-18.10
-11.09
-5.10
-0.08
4.18
7.84
11.04
13.83
16.21
18.09
19.41
20.15
20.38
20.27
20.00
19.76
19.65
19.72
19.96
20.34
20.77
21.15
21.35
21.21
20.66
19.67
18.27
16.56
14.63
12.61
10.59
8.64
6.79
4.93
2.95
0.74
-1.71
-4.26
-6.67
-8.73
-10.39
-11.78
-13.24
-15.16
-17.83
-21.38
-25.72
-30.53
-35.29
-39.27
-41.74
-42.02
-39.78
-35.13
-28.65
-21.23
-13.80
-7.05
-1.27
3.59
7.82
11.58
14.89
17.57
19.40
20.33
20.52
20.32
20.10
20.08
20.25
20.47
20.60
20.65
20.78
21.22
22.12
23.35
24.62
25.48
25.57
24.77
23.22
21.27
19.32
17.57
16.03
14.50
12.67
10.28
7.24
3.68
-0.07
-3.69
-6.90
-9.67
-12.17
-14.67
-17.49
-20.89
-24.96
-29.60
-34.50
-39.11
-42.74
-44.66
-44.28
-41.35
-36.06
-29.04
-21.21
-13.51
-6.65
-0.94
3.65
7.38
10.49
13.06
15.00
16.21
16.68
16.63
16.45
16.45
16.76
17.21
17.49
17.40
16.95
16.40
16.08
16.15
16.44
16.57
16.11
14.85
12.90
10.63
8.45
6.63
5.15
3.83
2.37
0.54
-1.75
-4.49
-7.54
-10.73
-13.86
-16.77
-19.39
-21.80
-24.22
-26.99
-30.48
-34.89
-40.21
-46.00
-51.43
-55.42
-56.92
-55.24
-50.34
-42.88
-33.98
-24.82
-16.38
-9.13
-3.15
1.74
5.78
9.14
11.87
14.01
15.56
16.59
17.22
17.61
17.96
18.40
18.99
19.67
20.37
20.98
21.48
21.87
22.21
22.49
22.64
22.46
21.77
20.48
18.64
16.46
14.23
12.15
10.21
8.27
6.05
3.34
0.12
-3.43
-7.00
-10.30
-13.14
-15.55
-17.65
-19.68
-21.92
-24.65
-28.13
-32.42
-37.30
-42.14
-45.98
-47.78
-46.74
-42.67
-36.09
-28.07
-19.78
-12.16
-5.63
-0.13
4.59
8.74
12.35
15.26
17.36
18.75
19.70
20.53
21.44
22.43
23.37
24.09
24.61
25.03
25.56
26.35
27.38
28.47
29.31
29.62
29.23
28.12
26.45
24.44
22.34
20.33
18.51
16.80
15.01
12.95
10.45
7.57
4.44
1.31
-1.70
-4.57
-7.48
-10.70
-14.46
-18.93
-24.08
-29.73
-35.37
-40.31
-43.65
-44.58
-42.61
-37.80
-30.76
-22.48
-14.04
-6.25
0.43
5.92
10.36
13.92
16.75
18.93
20.50
21.47
21.93
22.00
21.90
21.87
22.13
22.77
23.70
24.69
25.42
25.62
25.22
24.28
23.00
21.60
20.17
18.69
17.07
15.20
13.03
10.51
7.63
4.33
0.65
-3.29
-7.22
-10.89
-14.19
-17.21
-20.35
-24.08
-28.76
-34.42
-40.64
-46.61
-51.31
-53.76
-53.32
-49.83
-43.69
-35.74
-26.99
-18.43
-10.69
-4.07
1.47
6.10
10.02
13.29
15.88
17.69
18.71
19.06
19.01
18.90
19.01
19.45
20.21
21.12
22.03
22.87
23.62
24.30
24.87
25.19
25.00
24.06
22.26
19.71
16.75
13.79
11.16
8.90
6.76
4.34
1.33
-2.30
-6.29
-10.22
-13.72
-16.62
-19.05
-21.33
-23.88
-27.07
-31.22
-36.44
-42.60
-49.15
-55.17
-59.49
-61.06
-59.26
-54.17
-46.57
-37.63
-28.54
-20.12
-12.71
-6.15
-0.14
5.57
10.94
15.72
19.67
22.64
24.77
26.36
27.72
29.00
30.13
30.98
31.49
31.76
32.05
32.59
33.47
34.52
35.39
35.71
35.20
33.81
31.66
29.03
26.22
23.48
20.93
18.56
16.21
13.69
10.86
7.71
4.34
0.98
-2.18
-5.03
-7.52
-9.75
-11.92
-14.32
-17.28
-21.16
-26.15
-32.16
-38.70
-44.85
-49.46
-51.45
-50.14
-45.49
-38.06
-28.87
-19.01
-9.38
-0.60
7.00
13.28
18.25
22.03
24.85
26.97
28.59
29.76
30.43
30.53
30.15
29.52
29.04
29.05
29.70
30.92
32.41
33.79
34.67
34.78
33.98
32.28
29.89
27.10
24.26
21.64
19.30
17.04
14.53
11.41
7.50
2.89
-2.02
-6.71
-10.75
-13.99
-16.65
-19.19
-22.18
-26.07
-30.99
-36.72
-42.65
-47.87
-51.34
-52.15
-49.79
-44.36
-36.51
-27.34
-18.00
-9.41
-2.08
3.94
8.86
12.93
16.30
18.95
20.80
21.79
22.00
21.71
21.30
21.14
21.46
22.26
23.31
24.32
25.02
25.32
25.27
24.98
24.44
23.53
22.00
19.67
16.58
13.02
9.45
6.34
3.89
1.94
0.02
-2.39
-5.62
-9.64
-14.06
-18.33
-22.03
-25.08
-27.71
-30.41
-33.71
-37.98
-43.32
-49.43
-55.58
-60.73
-63.70
-63.55
-59.87
-53.00
-43.85
-33.70
-23.67
-14.49
-6.46
0.47
6.45
11.62
16.02
19.70
22.71
25.14
27.08
28.55
29.56
30.16
30.47
30.69
31.02
31.61
32.45
33.44
34.35
34.93
34.98
34.41
33.21
31.48
29.37
27.07
24.71
22.43
20.25
18.17
16.09
13.85
11.26
8.18
4.54
0.46
-3.82
-7.96
-11.66
-14.83
-17.61
-20.35
-23.45
-27.27
-32.05
-37.88
-44.59
-51.75
-58.50
-63.73
-66.25
-65.16
-60.24
-52.00
-41.62
-30.53
-20.01
-10.80
-3.12
3.20
8.54
13.18
17.25
20.76
23.67
26.02
27.93
29.51
30.88
32.06
32.97
33.60
33.98
34.28
34.61
35.04
35.45
35.66
35.47
34.79
33.62
32.07
30.22
28.16
25.98
23.75
21.56
19.38
17.10
14.52
11.47
7.88
3.92
-0.07
-3.74
-6.87
-9.45
-11.75
-14.12
-16.99
-20.75
-25.63
-31.63
-38.40
-45.17
-50.79
-54.02
-53.87
-50.00
-42.89
-33.71
-23.85
-14.54
-6.42
0.44
6.31
11.47
16.00
19.76
22.52
24.23
25.07
25.47
25.82
26.34
27.04
27.74
28.30
28.67
28.96
29.25
29.49
29.50
29.00
27.77
25.79
23.26
20.50
17.84
15.42
13.18
10.88
8.22
5.02
1.27
-2.84
-7.00
-10.91
-14.43
-17.60
-20.64
-23.87
-27.62
-32.13
-37.49
-43.46
-49.50
-54.73
-58.12
-58.76
-56.20
-50.59
-42.72
-33.75
-24.82
-16.72
-9.76
-3.79
1.48
6.29
10.64
14.35
17.19
19.04
20.00
20.35
20.44
20.54
20.80
21.24
21.83
22.51
23.24
23.96
24.62
25.14
25.45
25.43
24.95
23.86
22.08
19.65
16.77
13.78
11.00
8.54
6.24
3.75
0.70
-3.04
-7.31
-11.65
-15.59
-18.84
-21.43
-23.71
-26.17
-29.30
-33.45
-38.76
-45.02
-51.71
-57.88
-62.34
-63.94
-61.94
-56.34
-47.92
-37.99
-27.91
-18.66
-10.68
-3.91
1.89
6.93
11.27
14.85
17.68
19.88
21.65
23.18
24.63
26.06
27.54
29.11
30.77
32.40
33.87
34.96
35.54
35.60
35.24
34.60
33.75
32.71
31.34
29.52
27.17
24.32
21.14
17.85
14.70
11.84
9.31
6.99
4.67
2.17
-0.63
-3.75
-7.14
-10.70
-14.37
-18.08
-21.75
-25.36
-28.95
-32.71
-36.94
-41.94
-47.72
-53.84
-59.33
-62.90
-63.36
-60.11
-53.39
-44.20
-34.00
-24.10
-15.33
-7.85
-1.42
4.32
9.56
14.24
18.19
21.25
23.48
25.05
26.20
27.11
27.81
28.26
28.46
28.53
28.73
29.33
30.47
32.08
33.90
35.58
36.79
37.32
37.03
35.89
33.90
31.21
28.11
24.97
22.15
19.81
17.79
15.72
13.21
10.07
6.38
2.50
-1.19
-4.43
-7.24
-9.84
-12.59
-15.83
-19.80
-24.64
-30.29
-36.50
-42.68
-47.97
-51.35
-51.89
-49.09
-43.10
-34.71
-25.12
-15.51
-6.69
1.01
7.65
13.36
18.16
21.95
24.60
26.14
26.83
27.07
27.21
27.39
27.57
27.61
27.47
27.23
27.11
27.26
27.68
28.22
28.53
28.29
27.23
25.29
22.59
19.44
16.20
13.15
10.40
7.85
5.19
2.13
-1.49
-5.56
-9.78
-13.73
-17.15
-19.98
-22.42
-24.83
-27.60
-31.11
-35.57
-40.92
-46.75
-52.24
-56.30
-57.83
-56.09
-50.98
-43.12
-33.66
-23.88
-14.81
-7.01
-0.53
4.84
9.35
13.13
16.15
18.33
19.67
20.30
20.45
20.39
20.27
20.17
20.07
19.91
19.76
19.70
19.84
20.20
20.64
20.92
20.79
20.09
18.85
17.21
15.39
13.54
11.75
10.00
8.25
6.44
4.47
2.19
-0.55
-3.83
-7.56
-11.49
-15.32
-18.81
-21.90
-24.76
-27.64
-30.80
-34.47
-38.74
-43.64
-49.00
-54.35
-58.89
-61.57
-61.40
-57.86
-51.16
-42.17
-32.20
-22.47
-13.81
-6.51
-0.49
4.58
8.90
12.63
15.76
18.23
20.04
21.23
21.90
22.25
22.49
22.83
23.44
24.34
25.43
26.51
27.36
27.85
27.98
27.83
27.47
26.94
26.16
25.06
23.60
21.87
20.05
18.31
16.74
15.25
13.70
11.91
9.82
7.42
4.75
1.89
-1.16
-4.37
-7.72
-11.11
-14.50
-17.88
-21.35
-25.15
-29.51
-34.68
-40.67
-47.18
-53.53
-58.69
-61.56
-61.24
-57.39
-50.32
-40.98
-30.62
-20.47
-11.34
-3.57
2.88
8.30
12.95
16.97
20.31
22.91
24.67
25.65
26.03
26.09
26.12
26.31
26.75
27.38
28.04
28.59
28.97
29.24
29.55
29.95
30.33
30.46
30.00
28.77
26.83
24.51
22.23
20.34
18.86
17.55
16.00
13.87
11.07
7.75
4.24
0.84
-2.23
-4.97
-7.49
-10.04
-12.90
-16.38
-20.78
-26.20
-32.47
-38.98
-44.76
-48.67
-49.71
-47.41
-41.93
-34.05
-24.92
-15.69
-7.22
0.05
6.10
11.15
15.43
19.05
21.92
23.92
24.93
25.09
24.71
24.13
23.64
23.33
23.17
23.13
23.25
23.62
24.33
25.24
26.01
26.19
25.39
23.49
20.71
17.50
14.36
11.64
9.41
7.48
5.50
3.11
0.10
-3.53
-7.61
-11.87
-16.03
-19.93
-23.49
-26.80
-30.06
-33.59
-37.71
-42.61
-48.15
-53.75
-58.40
-60.98
-60.59
-56.95
-50.46
-42.08
-32.96
-24.07
-15.93
-8.68
-2.23
3.53
8.59
12.81
16.02
18.10
19.13
19.35
19.15
18.94
19.03
19.58
20.50
21.55
22.42
22.94
23.10
23.05
22.96
22.92
22.84
22.50
21.70
20.33
18.46
16.26
13.94
11.59
9.21
6.65
3.78
0.53
-3.03
-6.73
-10.38
-13.78
-16.87
-19.67
-22.35
-25.14
-28.32
-32.13
-36.76
-42.22
-48.28
-54.40
-59.68
-63.08
-63.63
-60.81
-54.72
-46.14
-36.25
-26.29
-17.17
-9.26
-2.53
3.30
8.46
13.04
16.98
20.18
22.60
24.27
25.33
25.98
26.40
26.78
27.23
27.83
28.59
29.49
30.44
31.32
32.00
32.33
32.18
31.48
30.21
28.40
26.23
23.93
21.80
20.09
18.87
18.00
17.09
15.69
13.44
10.27
6.44
2.45
-1.21
-4.25
-6.74
-9.04
-11.62
-14.98
-19.38
-24.90
-31.28
-37.98
-44.15
-48.74
-50.73
-49.40
-44.65
-37.09
-27.83
-18.17
-9.16
-1.36
5.16
10.61
15.27
19.25
22.54
25.04
26.74
27.69
28.06
28.00
27.68
27.20
26.68
26.24
26.04
26.19
26.76
27.66
28.67
29.43
29.56
28.78
27.02
24.49
21.54
18.58
15.82
13.29
10.77
8.02
4.86
1.34
-2.33
-5.86
-9.06
-11.89
-14.53
-17.34
-20.72
-25.01
-30.28
-36.28
-42.34
-47.49
-50.63
-50.91
-47.92
-41.91
-33.67
-24.35
-15.09
-6.67
0.52
6.47
11.35
15.25
18.17
20.04
20.88
20.86
20.34
19.73
19.32
19.20
19.25
19.29
19.17
18.93
18.69
18.58
18.63
18.64
18.31
17.28
15.38
12.70
9.60
6.53
3.91
1.86
0.22
-1.42
-3.51
-6.33
-9.90
-13.96
-18.06
-21.79
-24.91
-27.45
-29.72
-32.19
-35.39
-39.64
-44.97
-50.92
-56.52
-60.56
-61.80
-59.49
-53.57
-44.77
-34.33
-23.62
-13.71
-5.15
2.00
7.98
13.05
17.36
20.94
23.70
25.65
26.91
27.72
28.35
29.00
29.73
30.46
31.07
31.47
31.70
31.88
32.14
32.52
32.88
32.99
32.53
31.32
29.29
26.60
23.52
20.39
17.45
14.79
12.30
9.66
6.59
2.92
-1.25
-5.63
-9.84
-13.55
-16.71
-19.49
-22.27
-25.47
-29.47
-34.46
-40.43
-47.00
-53.43
-58.63
-61.44
-60.90
-56.66
-49.16
-39.50
-29.05
-18.99
-10.01
-2.31
4.28
9.95
14.80
18.79
21.93
24.34
26.24
27.87
29.33
30.56
31.44
31.86
31.94
31.91
32.12
32.84
34.13
35.86
37.65
39.05
39.59
39.01
37.25
34.55
31.35
28.11
25.21
22.78
20.70
18.71
16.49
13.84
10.76
7.41
4.01
0.76
-2.30
-5.29
-8.53
-12.34
-16.97
-22.54
-28.85
-35.45
-41.61
-46.36
-48.79
-48.18
-44.36
-37.75
-29.26
-20.05
-11.18
-3.35
3.15
8.40
12.61
16.02
18.77
20.94
22.59
23.77
24.52
24.89
24.95
24.76
24.40
23.99
23.64
23.45
23.49
23.72
24.02
24.09
23.68
22.57
20.76
18.43
15.79
13.03
10.17
7.08
3.64
-0.17
-4.24
-8.32
-12.19
-15.72
-18.91
-21.89
-24.89
-28.20
-32.12
-36.84
-42.29
-47.94
-52.85
-55.87
-56.05
-52.98
-47.05
-39.22
-30.69
-22.43
-14.97
-8.33
-2.33
3.18
8.11
12.19
15.14
16.83
17.40
17.22
16.73
16.36
16.36
16.77
17.44
18.15
18.70
19.02
19.14
19.12
19.04
18.87
18.47
17.65
16.32
14.53
12.53
10.57
8.78
7.10
5.20
2.75
-0.45
-4.23
-8.21
-11.89
-14.95
-17.34
-19.29
-21.19
-23.36
-26.10
-29.68
-34.31
-40.02
-46.41
-52.59
-57.22
-59.00
-57.07
-51.46
-43.05
-33.22
-23.35
-14.38
-6.65
-0.08
5.62
10.65
15.05
18.70
21.47
23.36
24.53
25.31
26.02
26.88
27.87
28.82
29.46
29.65
29.43
29.02
28.70
28.68
28.97
29.35
29.48
29.03
27.78
25.74
23.18
20.46
17.95
15.81
13.93
11.99
9.65
6.71
3.26
-0.39
-3.87
-6.91
-9.54
-11.95
-14.48
-17.45
-21.05
-25.36
-30.34
-35.77
-41.24
-46.11
-49.53
-50.68
-49.01
-44.47
-37.57
-29.23
-20.46
-12.06
-4.47
2.21
8.05
13.14
17.43
20.81
23.19
24.60
25.23
25.38
25.41
25.59
26.07
26.84
27.83
28.89
29.93
30.90
31.74
32.41
32.80
32.72
32.04
30.66
28.67
26.27
23.77
21.42
19.38
17.60
15.86
13.88
11.45
8.53
5.26
1.90
-1.31
-4.30
-7.18
-10.26
-13.87
-18.31
-23.65
-29.71
-36.01
-41.82
-46.21
-48.27
-47.34
-43.24
-36.42
-27.85
-18.72
-10.13
-2.75
3.20
7.90
11.70
14.84
17.41
19.30
20.34
20.46
19.74
18.44
16.94
15.60
14.72
14.45
14.80
15.65
16.76
17.81
18.53
18.68
18.11
16.85
15.08
13.06
11.03
9.14
7.38
5.57
3.44
0.71
-2.75
-6.82
-11.21
-15.52
-19.37
-22.57
-25.20
-27.57
-30.17
-33.49
-37.85
-43.15
-48.79
-53.71
-56.71
-56.84
-53.70
-47.65
-39.62
-30.81
-22.25
-14.57
-7.96
-2.35
2.47
6.63
10.18
13.04
15.16
16.51
17.23
17.58
17.85
18.30
19.04
19.97
20.90
21.63
22.09
22.36
22.55
22.71
22.70
22.27
21.17
19.32
16.87
14.16
11.54
9.30
7.47
5.89
4.28
2.34
-0.08
-2.97
-6.11
-9.21
-12.04
-14.57
-16.96
-19.58
-22.83
-26.99
-32.14
-38.06
-44.23
-49.87
-54.09
-56.04
-55.22
-51.58
-45.57
-37.97
-29.69
-21.52
-13.95
-7.21
-1.29
3.89
8.44
12.40
15.73
18.36
20.25
21.50
22.28
22.86
23.43
24.06
24.72
25.27
25.63
25.84
26.02
26.30
26.74
27.28
27.68
27.69
27.11
25.87
24.04
21.86
19.57
17.41
15.41
13.43
11.26
8.70
5.71
2.48
-0.70
-3.56
-5.96
-7.99
-9.93
-12.14
-14.98
-18.68
-23.33
-28.70
-34.22
-38.99
-41.94
-42.17
-39.23
-33.36
-25.43
-16.63
-8.11
-0.64
5.53
10.52
14.62
18.08
20.98
23.28
24.93
25.93
26.37
26.42
26.23
25.93
25.60
25.28
25.01
24.81
24.73
24.80
24.98
25.10
24.94
24.23
22.78
20.58
17.83
14.86
11.97
9.34
6.91
4.44
1.71
-1.39
-4.79
-8.32
-11.79
-15.16
-18.51
-22.04
-25.97
-30.46
-35.53
-40.94
-46.14
-50.37
-52.70
-52.38
-49.09
-43.09
-35.21
-26.55
-18.11
-10.53
-4.00
1.57
6.34
10.39
13.62
15.91
17.26
17.86
18.03
18.16
18.48
19.01
19.62
20.13
20.41
20.48
20.45
20.46
20.57
20.71
20.74
20.48
19.76
18.51
16.75
14.65
12.41
10.27
8.36
6.63
4.87
2.82
0.25
-2.90
-6.44
-10.05
-13.38
-16.20
-18.57
-20.73
-23.06
-25.93
-29.62
-34.24
-39.65
-45.39
-50.71
-54.63
-56.18
-54.71
-50.15
-43.11
-34.60
-25.77
-17.47
-10.16
-3.88
1.54
6.25
10.32
13.73
16.44
18.43
19.77
20.62
21.21
21.78
22.55
23.58
24.80
26.03
27.05
27.76
28.17
28.39
28.50
28.53
28.41
28.04
27.33
26.21
24.70
22.84
20.68
18.33
15.89
13.45
11.08
8.81
6.61
4.40
2.07
-0.47
-3.27
-6.27
-9.37
-12.43
-15.35
-18.14
-20.96
-24.16
-28.07
-32.94
-38.68
-44.74
-50.10
-53.55
-54.06
-51.20
-45.31
-37.38
-28.67
-20.27
-12.83
-6.51
-1.18
3.38
7.29
10.63
13.42
15.68
17.43
18.68
19.47
19.88
20.09
20.29
20.65
21.29
22.20
23.30
24.58
25.94
27.27
28.35
28.90
28.73
27.78
26.25
24.44
22.64
21.02
19.59
18.24
16.81
15.18
13.30
11.17
8.83
6.32
3.74
1.21
-1.15
-3.29
-5.25
-7.21
-9.51
-12.50
-16.42
-21.32
-26.90
-32.50
-37.22
-40.16
-40.59
-38.20
-33.17
-26.10
-17.85
-9.38
-1.48
5.31
10.79
14.99
18.09
20.25
21.61
22.31
22.47
22.27
21.89
21.55
21.33
21.28
21.35
21.43
21.43
21.28
20.98
20.59
20.15
19.68
19.10
18.30
17.10
15.46
13.45
11.30
9.19
7.20
5.20
2.96
0.25
-2.93
-6.37
-9.69
-12.53
-14.84
-16.83
-18.97
-21.77
-25.59
-30.45
-35.93
-41.30
-45.56
-47.73
-47.16
-43.69
-37.74
-30.27
-22.36
-15.01
-8.80
-3.85
0.06
3.25
5.97
8.27
10.04
11.15
11.55
11.42
11.12
11.05
11.52
12.63
14.20
15.88
17.29
18.22
18.61
18.62
18.40
18.06
17.57
16.73
15.36
13.39
10.92
8.26
5.79
3.72
2.10
0.70
-0.83
-2.76
-5.13
-7.81
-10.57
-13.22
-15.74
-18.18
-20.68
-23.37
-26.40
-29.91
-34.05
-38.77
-43.75
-48.32
-51.61
-52.72
-51.11
-46.77
-40.23
-32.38
-24.20
-16.48
-9.67
-3.89
0.98
5.14
8.73
11.78
14.25
16.07
17.29
18.04
18.56
19.05
19.64
20.33
21.05
21.71
22.32
22.96
23.69
24.49
25.22
25.61
25.42
24.51
22.94
20.96
18.87
16.91
15.16
13.58
12.03
10.39
8.59
6.60
4.42
2.03
-0.54
-3.21
-5.88
-8.45
-10.86
-13.21
-15.61
-18.27
-21.37
-25.04
-29.34
-34.23
-39.49
-44.61
-48.89
-51.47
-51.63
-49.02
-43.81
-36.66
-28.49
-20.17
-12.32
-5.24
0.98
6.37
10.92
14.61
17.42
19.40
20.68
21.46
21.92
22.23
22.49
22.81
23.30
24.07
25.18
26.61
28.22
29.74
30.88
31.34
30.97
29.80
28.03
25.92
23.73
21.64
19.74
18.04
16.50
15.08
13.73
12.43
11.13
9.82
8.43
6.90
5.14
3.13
0.91
-1.39
-3.60
-5.64
-7.57
-9.61
-12.09
-15.31
-19.48
-24.54
-30.12
-35.48
-39.66
-41.72
-41.08
-37.67
-31.96
-24.86
-17.27
-9.90
-3.10
3.03
8.50
13.24
17.13
20.06
22.03
23.13
23.54
23.41
22.87
22.01
20.99
19.97
19.15
18.65
18.52
18.73
19.17
19.68
20.08
20.18
19.81
18.90
17.46
15.64
13.64
11.69
9.94
8.42
7.03
5.61
3.94
1.87
-0.66
-3.55
-6.62
-9.65
-12.55
-15.37
-18.26
-21.44
-25.12
-29.40
-34.23
-39.26
-43.89
-47.32
-48.72
-47.59
-43.89
-38.12
-31.15
-23.86
-16.93
-10.66
-5.11
-0.19
4.08
7.61
10.23
11.92
12.78
13.04
12.98
12.82
12.72
12.77
13.04
13.60
14.44
15.45
16.44
17.14
17.38
17.15
16.59
15.91
15.26
14.62
13.85
12.77
11.28
9.47
7.53
5.68
4.07
2.64
1.19
-0.58
-2.88
-5.76
-9.05
-12.41
-15.50
-18.15
-20.40
-22.51
-24.90
-27.96
-31.91
-36.73
-42.06
-47.24
-51.39
-53.65
-53.38
-50.36
-44.90
-37.70
-29.69
-21.71
-14.33
-7.83
-2.26
2.43
6.30
9.43
11.93
13.99
15.80
17.51
19.17
20.71
22.00
22.99
23.73
24.33
24.89
25.44
25.91
26.17
26.14
25.86
25.43
24.96
24.47
23.88
23.03
21.81
20.23
18.45
16.68
15.06
13.52
11.85
9.76
7.03
3.73
0.13
-3.29
-6.14
-8.27
-9.88
-11.38
-13.25
-15.84
-19.28
-23.49
-28.21
-33.09
-37.60
-41.09
-42.82
-42.16
-38.80
-32.95
-25.36
-17.02
-8.95
-1.82
4.12
8.99
13.06
16.57
19.62
22.12
23.92
24.93
25.22
25.07
24.82
24.76
25.01
25.46
25.89
26.11
26.05
25.79
25.47
25.14
24.68
23.90
22.59
20.72
18.45
16.07
13.85
11.87
10.00
7.95
5.50
2.56
-0.71
-4.02
-7.08
-9.74
-12.04
-14.22
-16.61
-19.55
-23.31
-27.97
-33.30
-38.74
-43.44
-46.41
-46.86
-44.47
-39.51
-32.76
-25.20
-17.70
-10.81
-4.71
0.60
5.15
8.91
11.76
13.61
14.55
14.82
14.75
14.65
14.70
14.93
15.19
15.36
15.38
15.33
15.34
15.54
15.93
16.35
16.62
16.51
15.89
14.72
13.10
11.16
9.09
7.11
5.34
3.80
2.40
0.90
-0.97
-3.39
-6.38
-9.70
-13.01
-15.99
-18.47
-20.60
-22.79
-25.54
-29.24
-34.02
-39.60
-45.38
-50.53
-54.15
-55.51
-54.14
-50.00
-43.52
-35.45
-26.73
-18.21
-10.48
-3.79
1.90
6.75
10.93
14.42
17.17
19.15
20.40
21.16
21.73
22.38
23.28
24.38
25.49
26.43
27.13
27.67
28.21
28.92
29.77
30.53
30.81
30.29
28.81
26.46
23.56
20.52
17.66
15.11
12.83
10.65
8.38
5.90
3.20
0.33
-2.62
-5.55
-8.39
-11.09
-13.64
-16.10
-18.63
-21.49
-25.00
-29.35
-34.58
-40.32
-45.92
-50.39
-52.77
-52.36
-48.91
-42.82
-34.93
-26.31
-17.91
-10.33
-3.83
1.66
6.25
10.09
13.25
15.80
17.84
19.57
21.15
22.72
24.34
25.94
27.41
28.62
29.50
30.11
30.57
31.08
31.78
32.65
33.54
34.16
34.27
33.73
32.54
30.83
28.82
26.73
24.70
22.78
20.91
18.94
16.68
14.00
10.89
7.51
4.14
1.01
-1.75
-4.23
-6.65
-9.38
-12.75
-16.98
-22.09
-27.81
-33.49
-38.27
-41.20
-41.56
-39.05
-33.96
-26.97
-19.04
-11.02
-3.52
3.12
8.78
13.42
16.94
19.34
20.66
21.09
20.94
20.56
20.20
20.02
20.08
20.38
20.95
21.82
22.98
24.32
25.61
26.56
26.91
26.50
25.32
23.53
21.34
18.88
16.25
13.39
10.24
6.76
3.02
-0.76
-4.40
-7.72
-10.73
-13.52
-16.30
-19.24
-22.57
-26.50
-31.17
-36.56
-42.26
-47.53
-51.38
-52.84
-51.35
-46.92
-40.19
-32.15
-23.86
-16.10
-9.26
-3.35
1.78
6.32
10.32
13.69
16.24
17.88
18.67
18.86
18.82
18.85
19.12
19.58
20.09
20.53
20.90
21.24
21.60
21.95
22.15
21.96
21.22
19.85
17.92
15.60
13.08
10.58
8.23
6.08
4.06
1.96
-0.43
-3.31
-6.65
-10.21
-13.63
-16.55
-18.88
-20.83
-22.85
-25.46
-29.06
-33.78
-39.43
-45.47
-51.06
-55.15
-56.75
-55.17
-50.32
-42.80
-33.76
-24.52
-16.17
-9.22
-3.63
0.94
4.88
8.41
11.56
14.25
16.44
18.17
19.51
20.59
21.47
22.17
22.72
23.19
23.66
24.24
24.95
25.75
26.50
27.02
27.17
26.93
26.33
25.46
24.45
23.30
21.99
20.44
18.59
16.51
14.33
12.21
10.20
8.27
6.28
4.04
1.47
-1.42
-4.54
-7.76
-10.93
-14.01
-17.02
-20.09
-23.47
-27.44
-32.23
-37.87
-43.96
-49.67
-53.90
-55.58
-54.07
-49.43
-42.38
-34.04
-25.52
-17.62
-10.63
-4.52
0.94
5.88
10.31
14.15
17.35
19.97
22.17
24.12
25.94
27.58
28.96
29.92
30.44
30.62
30.66
30.80
31.22
31.89
32.66
33.21
33.25
32.63
31.38
29.71
27.88
26.13
24.55
23.09
21.66
20.16
18.54
16.77
14.86
12.71
10.24
7.38
4.21
0.90
-2.29
-5.19
-7.80
-10.30
-12.99
-16.22
-20.23
-25.10
-30.62
-36.31
-41.42
-45.02
-46.27
-44.65
-40.16
-33.38
-25.24
-16.77
-8.82
-1.92
3.77
8.38
12.12
15.23
17.87
20.10
21.91
23.27
24.18
24.69
24.95
25.07
25.14
25.18
25.15
25.06
24.93
24.80
24.66
24.38
23.78
22.70
21.09
19.06
16.82
14.57
12.46
10.47
8.43
6.15
3.50
0.40
-3.08
-6.77
-10.47
-13.97
-17.17
-20.10
-22.99
-26.16
-29.95
-34.55
-39.79
-45.15
-49.76
-52.63
-52.94
-50.27
-44.80
-37.24
-28.65
-20.08
-12.33
-5.73
-0.24
4.36
8.22
11.29
13.44
14.51
14.58
13.96
13.12
12.52
12.43
12.85
13.66
14.63
15.58
16.43
17.07
17.46
17.51
17.21
16.62
15.82
14.97
14.08
13.06
11.78
10.11
8.06
5.73
3.31
0.92
-1.45
-3.93
-6.68
-9.73
-13.04
-16.37
-19.47
-22.20
-24.59
-26.90
-29.57
-33.01
-37.50
-42.93
-48.78
-54.10
-57.78
-58.85
-56.79
-51.69
-44.24
-35.46
-26.42
-17.94
-10.49
-4.17
1.17
5.77
9.86
13.56
16.84
19.56
21.57
22.80
23.35
23.46
23.49
23.74
24.39
25.43
26.71
28.02
29.19
30.13
30.79
31.11
31.02
30.45
29.33
27.67
25.56
23.11
20.54
18.01
15.65
13.48
11.46
9.44
7.27
4.83
2.05
-0.96
-4.03
-6.98
-9.65
-12.05
-14.36
-16.82
-19.70
-23.25
-27.61
-32.78
-38.56
-44.42
-49.61
-53.15
-54.18
-52.22
-47.33
-40.17
-31.75
-23.12
-15.08
-8.03
-2.01
3.10
7.47
11.20
14.28
16.70
18.44
19.60
20.37
21.01
21.74
22.67
23.74
24.85
25.88
26.84
27.81
28.88
30.01
31.01
31.59
31.49
30.64
29.21
27.46
25.69
24.08
22.63
21.25
19.82
18.17
16.18
13.74
10.82
7.57
4.19
0.97
-1.90
-4.43
-6.81
-9.37
-12.45
-16.32
-21.06
-26.51
-32.22
-37.43
-41.21
-42.64
-41.14
-36.69
-29.89
-21.75
-13.34
-5.50
1.35
7.12
11.88
15.68
18.53
20.41
21.37
21.59
21.31
20.85
20.49
20.40
20.62
21.04
21.48
21.78
21.86
21.78
21.62
21.39
20.94
20.05
18.50
16.27
13.52
10.63
7.93
5.59
3.51
1.40
-1.03
-4.00
-7.51
-11.39
-15.33
-19.04
-22.37
-25.29
-28.01
-30.86
-34.22
-38.37
-43.29
-48.65
-53.76
-57.68
-59.52
-58.69
-55.07
-49.05
-41.40
-33.04
-24.77
-17.13
-10.36
-4.47
0.65
5.08
8.87
11.99
14.41
16.13
17.23
17.91
18.44
19.11
20.11
21.48
23.15
24.90
26.54
27.87
28.77
29.18
29.08
28.48
27.41
25.89
24.00
21.82
19.48
17.14
14.91
12.83
10.86
8.85
6.63
4.07
1.16
-2.02
-5.27
-8.41
-11.31
-13.95
-16.46
-19.10
-22.24
-26.24
-31.34
-37.52
-44.36
-51.08
-56.56
-59.71
-59.74
-56.45
-50.29
-42.17
-33.20
-24.27
-15.97
-8.46
-1.75
4.21
9.39
13.69
17.02
19.38
20.90
21.79
22.32
22.72
23.22
23.92
24.82
25.86
26.88
27.72
28.21
28.35
28.19
27.81
27.33
26.75
25.98
24.90
23.47
21.77
20.05
18.54
17.34
16.32
15.11
13.34
10.79
7.53
3.90
0.34
-2.87
-5.69
-8.32
-11.10
-14.32
-18.21
-22.87
-28.28
-34.23
-40.28
-45.66
-49.40
-50.53
-48.50
-43.32
-35.71
-26.78
-17.71
-9.34
-2.02
4.24
9.65
14.31
18.19
21.19
23.22
24.42
25.01
25.26
25.36
25.37
25.30
25.24
25.30
25.60
26.19
26.95
27.63
27.96
27.74
26.95
25.71
24.17
22.43
20.52
18.37
15.90
13.03
9.78
6.24
2.55
-1.11
-4.63
-7.97
-11.24
-14.62
-18.29
-22.44
-27.23
-32.72
-38.82
-45.13
-50.88
-55.02
-56.50
-54.69
-49.63
-42.13
-33.43
-24.79
-17.09
-10.64
-5.30
-0.73
3.30
6.79
9.57
11.48
12.49
12.81
12.77
12.71
12.84
13.19
13.74
14.46
15.33
16.33
17.36
18.21
18.60
18.34
17.44
16.04
14.40
12.68
10.92
9.08
7.04
4.75
2.12
-0.91
-4.37
-8.25
-12.43
-16.73
-20.94
-24.93
-28.73
-32.49
-36.45
-40.81
-45.71
-51.05
-56.50
-61.40
-64.87
-66.02
-64.23
-59.40
-52.01
-42.98
-33.36
-23.96
-15.22
-7.25
0.01
6.57
12.31
17.01
20.56
22.99
24.61
25.79
26.85
27.95
29.09
30.15
31.08
31.92
32.77
33.70
34.68
35.50
35.86
35.47
34.24
32.19
29.57
26.71
23.89
21.27
18.79
16.23
13.34
9.93
6.02
1.88
-2.15
-5.81
-8.97
-11.77
-14.48
-17.42
-20.91
-25.23
-30.51
-36.60
-42.95
-48.58
-52.27
-52.96
-50.11
-43.99
-35.59
-26.19
-16.90
-8.34
-0.63
6.39
12.82
18.58
23.42
27.14
29.73
31.42
32.61
33.62
34.65
35.68
36.60
37.33
37.88
38.38
38.96
39.64
40.30
40.67
40.50
39.61
38.06
36.03
33.80
31.51
29.22
26.83
24.21
21.32
18.24
15.12
12.09
9.20
6.37
3.43
0.14
-3.74
-8.42
-14.05
-20.54
-27.58
-34.40
-39.93
-43.01
-42.79
-39.08
-32.50
-24.28
-15.82
-8.19
-1.85
3.34
7.78
11.83
15.48
18.45
20.40
21.18
20.98
20.26
19.48
18.96
18.77
18.83
18.98
19.11
19.11
18.92
18.44
17.60
16.38
14.88
13.24
11.56
9.86
7.97
5.68
2.90
-0.32
-3.76
-7.13
-10.26
-13.15
-15.93
-18.80
-21.96
-25.60
-29.88
-34.90
-40.54
-46.32
-51.33
-54.45
-54.68
-51.53
-45.28
-36.89
-27.64
-18.65
-10.61
-3.67
2.29
7.47
11.89
15.46
18.02
19.58
20.36
20.68
20.93
21.36
22.00
22.79
23.58
24.25
24.82
25.35
25.91
26.47
26.85
26.79
26.06
24.56
22.42
19.92
17.42
15.19
13.35
11.81
10.33
8.61
6.37
3.48
-0.06
-4.04
-8.16
-12.09
-15.64
-18.84
-21.95
-25.39
-29.63
-34.93
-41.26
-48.15
-54.69
-59.72
-62.08
-61.00
-56.40
-48.86
-39.47
-29.46
-19.81
-11.05
-3.31
3.52
9.59
15.00
19.75
23.85
27.29
30.10
32.24
33.71
34.50
34.75
34.66
34.51
34.52
34.79
35.26
35.84
36.35
36.67
36.70
36.36
35.59
34.34
32.61
30.42
27.88
25.07
22.14
19.19
16.35
13.76
11.49
9.54
7.76
5.97
3.95
1.61
-1.01
-3.73
-6.35
-8.78
-11.12
-13.66
-16.77
-20.76
-25.78
-31.76
-38.39
-45.09
-51.02
-55.23
-56.83
-55.24
-50.45
-43.06
-34.12
-24.81
-16.04
-8.24
-1.44
4.60
10.05
14.95
19.19
22.62
25.16
26.92
28.12
29.03
29.81
30.52
31.12
31.55
31.78
31.91
32.08
32.40
32.88
33.39
33.73
33.70
33.18
32.12
30.58
28.64
26.43
24.07
21.76
19.60
17.57
15.51
13.16
10.28
6.81
2.93
-1.04
-4.75
-8.01
-10.85
-13.51
-16.33
-19.61
-23.57
-28.31
-33.77
-39.63
-45.32
-49.99
-52.69
-52.65
-49.56
-43.74
-36.03
-27.54
-19.23
-11.71
-5.17
0.54
5.59
10.08
13.93
16.92
18.83
19.62
19.51
18.95
18.54
18.71
19.65
21.20
22.97
24.52
25.51
25.85
25.64
25.10
24.39
23.56
22.49
21.03
19.06
16.61
13.91
11.22
8.75
6.53
4.38
2.03
-0.74
-3.92
-7.36
-10.82
-14.10
-17.14
-19.99
-22.71
-25.38
-28.08
-30.97
-34.28
-38.28
-43.07
-48.48
-53.85
-58.24
-60.62
-60.22
-56.76
-50.58
-42.52
-33.59
-24.80
-16.82
-10.01
-4.39
0.19
3.94
7.05
9.68
11.89
13.68
15.06
16.09
16.82
17.35
17.75
18.10
18.44
18.84
19.36
20.04
20.82
21.54
22.00
21.99
21.47
20.59
19.57
18.62
17.81
17.08
16.26
15.24
13.94
12.42
10.72
8.87
6.89
4.69
2.21
-0.52
-3.43
-6.36
-9.19
-11.88
-14.48
-17.13
-20.02
-23.36
-27.36
-32.16
-37.73
-43.74
-49.53
-54.12
-56.51
-55.99
-52.39
-46.19
-38.31
-29.82
-21.60
-14.23
-7.95
-2.73
1.60
5.30
8.55
11.46
14.04
16.17
17.76
18.88
19.73
20.58
21.61
22.84
24.05
25.05
25.68
26.06
26.38
26.80
27.36
27.89
28.20
28.08
27.44
26.35
24.93
23.33
21.63
19.90
18.11
16.19
14.07
11.71
9.13
6.39
3.54
0.62
-2.36
-5.41
-8.51
-11.60
-14.67
-17.83
-21.29
-25.31
-30.02
-35.24
-40.39
-44.58
-46.86
-46.53
-43.40
-37.85
-30.72
-22.99
-15.46
-8.62
-2.60
2.64
7.14
10.85
13.68
15.61
16.76
17.38
17.76
18.06
18.34
18.56
18.71
18.83
19.01
19.36
19.91
20.59
21.25
21.73
21.80
21.31
20.13
18.32
16.03
13.60
11.31
9.31
7.53
5.64
3.33
0.39
-3.09
-6.82
-10.43
-13.64
-16.40
-18.87
-21.36
-24.18
-27.63
-31.87
-36.92
-42.52
-48.10
-52.84
-55.80
-56.19
-53.65
-48.36
-41.00
-32.57
-24.07
-16.24
-9.49
-3.83
0.91
4.98
8.56
11.72
14.41
16.47
17.87
18.68
19.18
19.72
20.52
21.57
22.63
23.35
23.54
23.23
22.68
22.21
21.94
21.77
21.38
20.48
18.94
16.87
14.57
12.33
10.29
8.38
6.40
4.15
1.51
-1.44
-4.56
-7.67
-10.65
-13.54
-16.41
-19.40
-22.60
-26.07
-29.92
-34.24
-39.10
-44.46
-49.99
-55.05
-58.75
-60.19
-58.77
-54.42
-47.71
-39.60
-31.15
-23.18
-16.10
-9.94
-4.51
0.38
4.82
8.75
12.10
14.77
16.71
17.97
18.67
19.04
19.32
19.70
20.23
20.84
21.43
21.95
22.42
22.97
23.60
24.18
24.51
24.38
23.75
22.77
21.65
20.54
19.48
18.37
17.05
15.42
13.38
10.86
7.80
4.28
0.49
-3.19
-6.39
-8.93
-10.95
-12.95
-15.53
-19.19
-24.17
-30.29
-37.01
-43.54
-48.90
-52.14
-52.54
-49.89
-44.51
-37.29
-29.28
-21.42
-14.26
-7.93
-2.26
2.91
7.62
11.74
15.06
17.46
19.00
19.91
20.52
21.13
21.87
22.75
23.68
24.57
25.42
26.30
27.29
28.42
29.58
30.56
31.13
31.12
30.46
29.19
27.42
25.35
23.18
21.10
19.20
17.42
15.54
13.36
10.74
7.76
4.62
1.59
-1.16
-3.69
-6.15
-8.85
-12.03
-15.89
-20.49
-25.75
-31.30
-36.54
-40.59
-42.57
-41.86
-38.36
-32.54
-25.28
-17.58
-10.21
-3.60
2.17
7.19
11.55
15.19
18.02
19.95
21.00
21.40
21.45
21.47
21.65
22.06
22.61
23.21
23.81
24.39
24.99
25.57
26.02
26.17
25.82
24.85
23.28
21.28
19.08
16.90
14.86
12.89
10.78
8.25
5.08
1.17
-3.29
-7.96
-12.39
-16.26
-19.50
-22.29
-25.07
-28.33
-32.45
-37.52
-43.24
-48.90
-53.49
-55.95
-55.45
-51.71
-45.04
-36.31
-26.71
-17.34
-9.05
-2.23
3.11
7.24
10.47
13.07
15.13
16.59
17.40
17.58
17.32
16.96
16.79
17.01
17.58
18.31
18.99
19.49
19.83
20.08
20.31
20.47
20.40
19.87
18.72
16.95
14.77
12.54
10.56
9.01
7.80
6.56
4.87
2.40
-0.87
-4.70
-8.61
-12.18
-15.14
-17.55
-19.68
-22.01
-25.05
-29.21
-34.58
-40.89
-47.40
-53.08
-56.79
-57.65
-55.27
-49.90
-42.29
-33.51
-24.59
-16.28
-8.96
-2.67
2.68
7.28
11.20
14.45
17.04
18.99
20.42
21.50
22.40
23.24
24.12
25.05
26.00
26.97
27.95
28.91
29.85
30.68
31.31
31.61
31.55
31.13
30.44
29.51
28.36
26.90
25.08
22.87
20.42
17.92
15.57
13.41
11.32
9.09
6.55
3.65
0.52
-2.66
-5.78
-8.83
-11.89
-15.07
-18.48
-22.29
-26.71
-31.91
-37.85
-44.10
-49.78
-53.75
-54.97
-52.89
-47.66
-40.09
-31.27
-22.24
-13.67
-5.86
1.18
7.49
13.02
17.68
21.36
24.02
25.78
26.84
27.45
27.81
28.03
28.14
28.16
28.13
28.16
28.36
28.80
29.47
30.23
30.84
31.04
30.60
29.46
27.75
25.79
23.96
22.56
21.59
20.74
19.48
17.33
14.08
9.93
5.45
1.23
-2.27
-5.01
-7.22
-9.37
-11.90
-15.16
-19.35
-24.46
-30.23
-36.06
-41.01
-44.01
-44.15
-41.10
-35.25
-27.58
-19.30
-11.39
-4.38
1.72
7.10
11.93
16.17
19.66
22.20
23.80
24.64
25.03
25.30
25.60
25.92
26.15
26.11
25.70
24.97
24.07
23.22
22.58
22.20
21.95
21.60
20.90
19.69
17.91
15.67
13.15
10.57
8.09
5.73
3.36
0.79
-2.22
-5.74
-9.67
-13.71
-17.51
-20.81
-23.53
-25.88
-28.23
-31.01
-34.54
-38.94
-44.07
-49.45
-54.32
-57.72
-58.78
-56.94
-52.20
-45.15
-36.80
-28.21
-20.20
-13.17
-7.15
-2.01
2.40
6.13
9.16
11.52
13.30
14.68
15.84
16.90
17.96
19.06
20.24
21.50
22.80
24.07
25.17
25.94
26.29
26.16
25.56
24.53
23.13
21.48
19.68
17.87
16.12
14.49
12.93
11.37
9.72
7.93
5.98
3.89
1.71
-0.56
-2.88
-5.26
-7.68
-10.13
-12.66
-15.31
-18.19
-21.42
-25.18
-29.67
-34.95
-40.91
-47.04
-52.50
-56.25
-57.41
-55.50
-50.74
-43.86
-35.93
-27.97
-20.66
-14.30
-8.79
-3.91
0.57
4.73
8.51
11.71
14.12
15.66
16.47
16.90
17.37
18.20
19.46
21.01
22.56
23.88
24.90
25.67
26.31
26.83
27.22
27.35
27.16
26.62
25.79
24.73
23.53
22.24
20.89
19.50
18.01
16.38
14.50
12.36
10.01
7.59
5.22
3.00
0.89
-1.24
-3.59
-6.34
-9.65
-13.59
-18.21
-23.44
-28.99
-34.32
-38.61
-40.98
-40.75
-37.77
-32.46
-25.67
-18.39
-11.39
-5.06
0.54
5.53
9.98
13.83
16.95
19.25
20.73
21.55
21.89
21.92
21.74
21.39
20.96
20.56
20.34
20.42
20.86
21.61
22.48
23.24
23.65
23.51
22.74
21.39
19.57
17.46
15.25
13.06
10.87
8.54
5.85
2.67
-1.00
-4.96
-8.91
-12.53
-15.73
-18.61
-21.50
-24.81
-28.87
-33.79
-39.36
-45.04
-49.98
-53.20
-53.88
-51.60
-46.56
-39.52
-31.53
-23.57
-16.23
-9.65
-3.69
1.82
6.86
11.18
14.48
16.60
17.64
17.89
17.75
17.58
17.58
17.79
18.14
18.54
18.89
19.17
19.35
19.39
19.23
18.73
17.81
16.41
14.56
12.39
10.10
7.92
6.05
4.60
3.45
2.37
0.97
-1.03
-3.73
-6.93
-10.29
-13.47
-16.26
-18.73
-21.11
-23.77
-27.02
-31.09
-36.06
-41.81
-47.93
-53.71
-58.25
-60.64
-60.25
-56.97
-51.20
-43.72
-35.43
-27.09
-19.21
-12.05
-5.69
-0.11
4.72
8.89
12.43
15.47
18.10
20.40
22.42
24.18
25.63
26.72
27.44
27.83
28.00
28.10
28.28
28.58
28.90
29.05
28.81
28.01
26.65
24.85
22.84
20.85
18.97
17.20
15.39
13.33
10.90
8.08
4.96
1.73
-1.46
-4.48
-7.27
-9.86
-12.33
-14.87
-17.73
-21.19
-25.49
-30.67
-36.44
-42.13
-46.77
-49.37
-49.16
-45.94
-40.09
-32.56
-24.40
-16.57
-9.53
-3.37
2.11
7.12
11.73
15.86
19.37
22.17
24.32
25.94
27.14
27.98
28.48
28.67
28.64
28.52
28.47
28.60
28.98
29.53
30.09
30.45
30.42
29.88
28.88
27.52
25.98
24.36
22.67
20.80
18.62
16.03
13.00
9.62
6.03
2.41
-1.12
-4.55
-7.99
-11.76
-16.13
-21.31
-27.17
-33.18
-38.47
-42.08
-43.23
-41.58
-37.32
-31.09
-23.76
-16.16
-8.94
-2.43
3.25
8.10
12.12
15.32
17.71
19.34
20.38
21.03
21.43
21.68
21.79
21.77
21.70
21.71
21.87
22.15
22.41
22.41
21.96
20.93
19.36
17.34
15.00
12.51
10.00
7.58
5.27
2.99
0.49
-2.43
-5.91
-9.84
-13.94
-17.85
-21.30
-24.31
-27.12
-30.19
-33.96
-38.64
-44.05
-49.56
-54.21
-56.95
-57.00
-54.10
-48.58
-41.27
-33.12
-24.99
-17.39
-10.54
-4.46
0.85
5.34
8.98
11.77
13.85
15.40
16.59
17.53
18.23
18.72
19.04
19.27
19.54
19.94
20.53
21.26
22.02
22.63
22.89
22.58
21.58
19.88
17.57
14.87
12.05
9.29
6.61
3.88
0.91
-2.47
-6.26
-10.34
-14.45
-18.39
-22.06
-25.53
-29.00
-32.78
-37.12
-42.07
-47.42
-52.51
-56.48
-58.38
-57.54
-53.78
-47.52
-39.65
-31.16
-22.88
-15.24
-8.28
-1.85
4.19
9.84
14.95
19.33
22.92
25.74
27.94
29.66
30.95
31.78
32.13
32.07
31.78
31.52
31.48
31.69
32.03
32.32
32.37
32.10
31.52
30.63
29.43
27.90
26.05
23.93
21.57
18.99
16.15
13.00
9.55
5.94
2.36
-1.00
-4.11
-7.16
-10.50
-14.56
-19.58
-25.44
-31.58
-37.08
-40.86
-42.07
-40.31
-35.78
-29.17
-21.39
-13.34
-5.63
1.42
7.71
13.24
17.98
21.89
24.88
26.93
28.10
28.56
28.59
28.48
28.45
28.62
28.98
29.40
29.73
29.82
29.60
29.05
28.16
26.96
25.45
23.69
21.73
19.62
17.36
14.88
12.07
8.83
5.13
1.10
-3.02
-7.01
-10.68
-14.07
-17.45
-21.22
-25.78
-31.25
-37.38
-43.41
-48.31
-51.07
-51.06
-48.21
-43.03
-36.35
-28.98
-21.54
-14.38
-7.63
-1.36
4.34
9.32
13.49
16.75
19.16
20.79
21.80
22.35
22.59
22.64
22.60
22.52
22.42
22.33
22.24
22.15
21.98
21.59
20.85
19.70
18.20
16.48
14.67
12.84
10.87
8.57
5.71
2.21
-1.78
-5.92
-9.81
-13.15
-15.92
-18.33
-20.82
-23.89
-27.93
-33.12
-39.30
-45.93
-52.15
-56.90
-59.23
-58.56
-54.91
-48.84
-41.30
-33.20
-25.19
-17.55
-10.28
-3.32
3.29
9.39
14.75
19.15
22.54
25.03
26.80
28.08
29.05
29.85
30.49
30.97
31.27
31.44
31.61
31.86
32.24
32.59
32.62
31.99
30.48
28.08
25.05
21.79
18.77
16.22
14.17
12.33
10.31
7.71
4.38
0.48
-3.60
-7.35
-10.41
-12.75
-14.67
-16.71
-19.43
-23.28
-28.42
-34.63
-41.37
-47.75
-52.75
-55.44
-55.27
-52.17
-46.58
-39.28
-31.11
-22.81
-14.84
-7.44
-0.63
5.59
11.26
16.37
20.88
24.71
27.77
30.01
31.47
32.27
32.62
32.73
32.81
33.03
33.52
34.28
35.24
36.21
37.00
37.49
37.68
37.60
37.29
36.70
35.68
34.13
32.04
29.59
27.07
24.73
22.65
20.69
18.56
16.01
12.97
9.61
6.23
3.14
0.42
-2.06
-4.62
-7.61
-11.30
-15.79
-21.01
-26.81
-32.89
-38.77
-43.75
-46.97
-47.66
-45.45
-40.53
-33.68
-25.98
-18.42
-11.60
-5.63
-0.30
4.62
9.20
13.28
16.59
18.96
20.40
21.13
21.51
21.80
22.15
22.55
22.87
22.98
22.82
22.49
22.15
21.97
22.02
22.18
22.20
21.80
20.76
19.10
16.96
14.61
12.30
10.15
8.13
6.08
3.84
1.26
-1.68
-4.92
-8.35
-11.81
-15.17
-18.27
-21.07
-23.58
-25.93
-28.37
-31.26
-34.89
-39.38
-44.54
-49.82
-54.37
-57.23
-57.63
-55.26
-50.32
-43.50
-35.72
-27.81
-20.34
-13.50
-7.22
-1.38
4.05
8.93
13.03
16.16
18.26
19.47
20.03
20.21
20.23
20.22
20.28
20.46
20.82
21.39
22.12
22.88
23.47
23.73
23.56
22.98
22.09
20.99
19.77
18.42
16.86
15.03
12.90
10.54
8.14
5.92
3.99
2.30
0.68
-1.14
-3.37
-5.99
-8.86
-11.78
-14.54
-17.14
-19.72
-22.58
-26.03
-30.33
-35.58
-41.59
-47.84
-53.50
-57.58
-59.24
-57.97
-53.88
-47.56
-39.94
-31.94
-24.18
-17.00
-10.39
-4.27
1.40
6.56
11.08
14.83
17.75
19.90
21.43
22.51
23.32
23.97
24.55
25.06
25.49
25.87
26.20
26.53
26.84
27.09
27.16
26.97
26.48
25.76
24.87
23.87
22.73
21.40
19.83
18.07
16.27
14.55
12.93
11.29
9.42
7.18
4.57
1.74
-1.08
-3.71
-6.11
-8.42
-10.87
-13.70
-17.13
-21.30
-26.20
-31.61
-37.01
-41.58
-44.34
-44.47
-41.58
-35.88
-28.18
-19.60
-11.24
-3.85
2.30
7.32
11.58
15.32
18.62
21.35
23.31
24.39
24.66
24.39
23.90
23.46
23.14
22.93
22.77
22.67
22.69
22.93
23.37
23.85
24.07
23.73
22.62
20.73
18.27
15.57
13.00
10.82
9.01
7.40
5.64
3.39
0.49
-2.99
-6.75
-10.44
-13.80
-16.78
-19.52
-22.31
-25.44
-29.11
-33.39
-38.11
-42.96
-47.41
-50.75
-52.25
-51.36
-47.89
-42.14
-34.81
-26.80
-18.90
-11.63
-5.16
0.53
5.47
9.60
12.77
14.84
15.86
16.09
15.92
15.77
15.88
16.27
16.80
17.27
17.52
17.53
17.42
17.33
17.41
17.67
17.98
18.11
17.82
16.92
15.42
13.48
11.41
9.50
7.92
6.57
5.18
3.39
0.92
-2.30
-6.06
-10.02
-13.78
-17.11
-20.01
-22.68
-25.49
-28.80
-32.85
-37.76
-43.38
-49.37
-55.08
-59.68
-62.28
-62.16
-59.04
-53.19
-45.38
-36.70
-28.16
-20.44
-13.80
-8.13
-3.15
1.37
5.54
9.27
12.43
14.91
16.76
18.10
19.19
20.20
21.16
22.03
22.68
23.08
23.31
23.55
23.95
24.56
25.22
25.69
25.69
25.12
23.97
22.40
20.56
18.62
16.71
14.95
13.35
11.86
10.33
8.55
6.35
3.71
0.77
-2.26
-5.18
-7.93
-10.58
-13.34
-16.39
-19.93
-24.09
-28.95
-34.45
-40.28
-45.80
-50.12
-52.35
-51.83
-48.45
-42.65
-35.28
-27.32
-19.55
-12.39
-5.93
-0.02
5.51
10.75
15.58
19.78
23.11
25.45
26.82
27.44
27.61
27.61
27.66
27.86
28.24
28.79
29.50
30.37
31.34
32.33
33.13
33.51
33.22
32.12
30.22
27.73
25.01
22.42
20.19
18.31
16.56
14.66
12.38
9.65
6.62
3.53
0.59
-2.15
-4.80
-7.57
-10.71
-14.40
-18.77
-23.84
-29.49
-35.39
-40.94
-45.31
-47.60
-47.13
-43.63
-37.48
-29.57
-21.04
-12.89
-5.70
0.41
5.66
10.29
14.36
17.72
20.11
21.41
21.72
21.38
20.77
20.20
19.81
19.59
19.50
19.56
19.88
20.50
21.35
22.17
22.57
22.21
20.92
18.78
16.13
13.38
10.87
8.67
6.62
4.37
1.65
-1.64
-5.31
-9.05
-12.52
-15.61
-18.43
-21.27
-24.45
-28.22
-32.69
-37.85
-43.52
-49.30
-54.53
-58.34
-59.85
-58.44
-54.07
-47.31
-39.14
-30.64
-22.60
-15.34
-8.84
-2.92
2.52
7.42
11.62
14.97
17.46
19.16
20.23
20.82
21.05
21.05
20.94
20.81
20.74
20.78
20.95
21.26
21.70
22.21
22.61
22.63
22.07
20.86
19.12
17.16
15.28
13.63
12.11
10.42
8.18
5.17
1.39
-2.88
-7.21
-11.15
-14.41
-17.00
-19.20
-21.57
-24.70
-29.06
-34.73
-41.36
-48.11
-53.88
-57.55
-58.33
-55.97
-50.80
-43.60
-35.33
-26.82
-18.65
-11.12
-4.28
1.85
7.28
12.00
15.99
19.24
21.79
23.69
25.05
26.05
26.91
27.82
28.92
30.21
31.56
32.84
33.97
34.88
35.59
36.10
36.33
36.20
35.62
34.55
33.02
31.17
29.19
27.28
25.58
24.09
22.68
21.07
18.98
16.27
12.99
9.43
5.97
2.92
0.39
-1.74
-3.82
-6.30
-9.64
-14.16
-19.95
-26.71
-33.76
-40.07
-44.48
-46.04
-44.25
-39.30
-32.02
-23.57
-15.17
-7.65
-1.32
4.02
8.79
13.34
17.72
21.72
24.95
27.14
28.30
28.68
28.66
28.51
28.32
28.01
27.49
26.81
26.15
25.70
25.54
25.53
25.39
24.77
23.49
21.56
19.17
16.55
13.92
11.35
8.81
6.23
3.55
0.77
-2.05
-4.83
-7.53
-10.13
-12.70
-15.40
-18.43
-22.09
-26.60
-32.02
-38.12
-44.27
-49.60
-53.12
-54.07
-52.16
-47.63
-41.15
-33.59
-25.74
-18.14
-11.09
-4.68
1.03
5.95
9.97
12.97
14.96
16.09
16.67
17.01
17.35
17.77
18.20
18.53
18.72
18.81
18.92
19.14
19.46
19.79
19.94
19.74
19.09
18.02
16.65
15.14
13.65
12.25
10.89
9.43
7.65
5.42
2.65
-0.53
-3.97
-7.44
-10.82
-14.03
-17.03
-19.86
-22.54
-25.20
-28.09
-31.57
-35.92
-41.17
-46.82
-51.90
-55.21
-55.72
-53.04
-47.51
-40.12
-32.01
-24.10
-16.82
-10.11
-3.79
2.27
7.95
12.98
17.10
20.26
22.58
24.31
25.65
26.69
27.43
27.84
28.01
28.07
28.24
28.62
29.22
29.93
30.57
31.02
31.17
30.99
30.45
29.55
28.31
26.76
25.00
23.14
21.28
19.40
17.40
15.16
12.50
9.37
5.84
2.09
-1.59
-4.96
-7.87
-10.32
-12.45
-14.50
-16.78
-19.64
-23.37
-28.18
-34.02
-40.49
-46.82
-52.00
-54.99
-55.08
-52.11
-46.55
-39.30
-31.45
-23.85
-16.98
-10.90
-5.42
-0.38
4.26
8.40
11.88
14.65
16.78
18.46
19.85
21.03
21.97
22.61
22.98
23.27
23.72
24.59
25.95
27.67
29.44
30.88
31.69
31.79
31.30
30.52
29.72
29.01
28.32
27.49
26.36
24.88
23.12
21.20
19.18
17.06
14.72
12.07
9.11
5.88
2.50
-0.92
-4.32
-7.72
-11.23
-15.00
-19.26
-24.13
-29.54
-35.07
-40.01
-43.44
-44.58
-43.04
-38.94
-32.91
-25.80
-18.41
-11.30
-4.74
1.18
6.44
10.98
14.72
17.61
19.69
21.06
21.86
22.24
22.31
22.15
21.87
21.57
21.40
21.48
21.90
22.61
23.45
24.17
24.51
24.28
23.45
22.10
20.37
18.36
16.08
13.46
10.43
6.99
3.26
-0.61
-4.44
-8.15
-11.71
-15.12
-18.37
-21.48
-24.49
-27.59
-31.06
-35.19
-40.04
-45.30
-50.23
-53.85
-55.22
-53.83
-49.71
-43.45
-35.94
-28.05
-20.39
-13.29
-6.86
-1.17
3.68
7.57
10.43
12.32
13.41
13.99
14.38
14.81
15.47
16.39
17.50
18.64
19.63
20.29
20.57
20.52
20.31
20.08
19.91
19.68
19.23
18.36
17.03
15.33
13.53
11.90
10.57
9.49
8.41
7.00
4.97
2.26
-1.01
-4.59
-8.17
-11.58
-14.77
-17.85
-21.01
-24.44
-28.30
-32.74
-37.85
-43.60
-49.65
-55.37
-59.79
-61.95
-61.18
-57.32
-50.85
-42.69
-33.88
-25.21
-17.17
-9.90
-3.38
2.38
7.33
11.37
14.43
16.59
18.03
19.04
19.92
20.90
22.11
23.50
24.90
26.14
27.04
27.54
27.65
27.45
27.04
26.49
25.81
24.98
23.97
22.83
21.59
20.35
19.21
18.15
17.10
15.88
14.33
12.32
9.85
7.07
4.18
1.40
-1.12
-3.34
-5.32
-7.27
-9.46
-12.16
-15.66
-20.06
-25.31
-31.11
-36.84
-41.68
-44.74
-45.30
-43.03
-38.13
-31.27
-23.41
-15.51
-8.23
-1.91
3.45
8.01
11.93
15.30
18.17
20.58
22.60
24.30
25.71
26.76
27.39
27.57
27.38
27.01
26.69
26.54
26.59
26.71
26.73
26.51
25.97
25.09
23.87
22.30
20.41
18.26
15.99
13.76
11.69
9.79
7.94
5.92
3.54
0.71
-2.52
-5.96
-9.39
-12.67
-15.85
-19.17
-22.94
-27.46
-32.75
-38.49
-43.96
-48.20
-50.25
-49.47
-45.79
-39.70
-32.08
-23.92
-16.02
-8.78
-2.34
3.31
8.22
12.33
15.54
17.80
19.14
19.72
19.75
19.45
19.02
18.63
18.39
18.35
18.48
18.72
18.97
19.11
19.06
18.70
17.90
16.62
14.87
12.80
10.69
8.73
7.03
5.42
3.58
1.16
-2.03
-5.89
-10.06
-14.11
-17.67
-20.64
-23.12
-25.40
-27.81
-30.65
-34.20
-38.64
-43.95
-49.73
-55.20
-59.22
-60.64
-58.76
-53.60
-45.95
-37.07
-28.22
-20.19
-13.18
-6.92
-1.07
4.56
9.82
14.37
17.92
20.38
21.92
22.83
23.41
23.83
24.13
24.31
24.41
24.51
24.76
25.28
26.09
27.12
28.13
28.84
28.98
28.33
26.82
24.56
21.78
18.86
16.08
13.63
11.42
9.19
6.65
3.58
0.02
-3.80
-7.48
-10.74
-13.47
-15.80
-18.00
-20.44
-23.40
-27.16
-31.88
-37.58
-43.96
-50.31
-55.59
-58.66
-58.64
-55.23
-48.88
-40.55
-31.40
-22.46
-14.30
-7.07
-0.63
5.19
10.48
15.12
18.95
21.81
23.73
24.93
25.72
26.38
27.08
27.78
28.40
28.84
29.13
29.34
29.61
29.99
30.48
31.00
31.42
31.61
31.46
30.86
29.82
28.39
26.71
24.92
23.11
21.24
19.22
16.96
14.44
11.77
9.11
6.60
4.24
1.93
-0.52
-3.33
-6.69
-10.83
-15.84
-21.68
-27.93
-33.83
-38.32
-40.41
-39.48
-35.61
-29.48
-22.16
-14.63
-7.49
-0.94
5.07
10.61
15.56
19.72
22.87
24.92
26.03
26.42
26.31
25.90
25.26
24.50
23.79
23.29
23.13
23.31
23.70
24.05
24.07
23.50
22.21
20.23
17.72
14.95
12.24
9.79
7.60
5.50
3.18
0.40
-2.89
-6.53
-10.20
-13.63
-16.72
-19.56
-22.36
-25.38
-28.83
-32.87
-37.54
-42.72
-47.93
-52.43
-55.24
-55.53
-52.88
-47.49
-40.15
-31.94
-23.80
-16.36
-9.78
-3.95
1.23
5.79
9.57
12.35
14.04
14.78
14.92
14.96
15.35
16.32
17.82
19.56
21.16
22.35
23.06
23.38
23.52
23.60
23.62
23.47
23.00
22.10
20.80
19.22
17.51
15.80
14.09
12.28
10.22
7.70
4.67
1.20
-2.49
-6.09
-9.35
-12.15
-14.58
-16.88
-19.44
-22.70
-27.03
-32.63
-39.34
-46.55
-53.25
-58.16
-60.21
-58.77
-53.98
-46.64
-37.97
-29.16
-21.04
-13.93
-7.75
-2.22
2.91
7.76
12.24
16.20
19.46
21.93
23.60
24.63
25.27
25.80
26.47
27.37
28.45
29.49
30.29
30.73
30.84
30.77
30.60
30.34
29.85
28.90
27.40
25.40
23.15
20.96
19.03
17.40
15.87
14.18
12.10
9.54
6.58
3.39
0.15
-2.98
-5.91
-8.60
-11.08
-13.48
-16.02
-19.05
-22.94
-27.84
-33.59
-39.52
-44.61
-47.68
-47.84
-44.74
-38.78
-30.95
-22.43
-14.26
-6.99
-0.68
4.92
10.05
14.76
18.86
22.10
24.34
25.63
26.19
26.31
26.24
26.09
25.90
25.67
25.44
25.31
25.38
25.77
26.49
27.41
28.25
28.65
28.25
26.90
24.74
22.10
19.46
17.10
15.08
13.18
11.06
8.50
5.54
2.34
-0.83
-3.82
-6.65
-9.50
-12.58
-16.08
-20.15
-24.86
-30.17
-35.79
-41.12
-45.28
-47.31
-46.53
-42.81
-36.64
-28.96
-20.85
-13.19
-6.38
-0.51
4.55
8.90
12.54
15.40
17.39
18.55
19.07
19.24
19.34
19.53
19.80
20.08
20.25
20.31
20.34
20.45
20.65
20.80
20.67
20.00
18.69
16.78
14.47
12.01
9.59
7.28
5.06
2.77
0.24
-2.72
-6.23
-10.30
-14.72
-19.17
-23.27
-26.78
-29.74
-32.54
-35.74
-39.83
-44.95
-50.67
-56.02
-59.77
-60.82
-58.61
-53.27
-45.58
-36.67
-27.62
-19.25
-11.94
-5.71
-0.36
4.36
8.61
12.39
15.59
18.07
19.76
20.67
20.93
20.76
20.41
20.06
19.91
20.11
20.73
21.72
22.92
24.01
24.64
24.54
23.62
22.00
19.87
17.50
15.11
12.85
10.82
9.05
7.47
5.94
4.26
2.20
-0.36
-3.40
-6.73
-10.07
-13.14
-15.79
-18.10
-20.36
-23.08
-26.74
-31.62
-37.56
-43.88
-49.53
-53.32
-54.40
-52.44
-47.81
-41.33
-34.00
-26.64
-19.69
-13.24
-7.19
-1.43
3.95
8.73
12.65
15.62
17.73
19.28
20.61
21.96
23.40
24.79
25.91
26.56
26.76
26.65
26.57
26.81
27.50
28.58
29.73
30.58
30.74
30.04
28.50
26.34
23.86
21.37
19.07
16.99
15.10
13.29
11.42
9.36
7.02
4.41
1.67
-1.01
-3.41
-5.45
-7.26
-9.18
-11.72
-15.33
-20.18
-26.01
-32.02
-37.05
-39.92
-39.81
-36.53
-30.58
-22.99
-14.87
-7.19
-0.48
5.08
9.60
13.22
16.10
18.38
20.18
21.67
22.90
23.89
24.52
24.67
24.27
23.46
22.54
21.83
21.62
21.95
22.62
23.28
23.51
23.03
21.73
19.78
17.42
14.99
12.73
10.73
8.89
7.02
4.88
2.31
-0.71
-4.08
-7.59
-10.99
-14.09
-16.86
-19.46
-22.25
-25.67
-30.03
-35.33
-41.11
-46.50
-50.41
-51.90
-50.46
-46.20
-39.77
-32.15
-24.30
-16.95
-10.44
-4.77
0.18
4.57
8.34
11.36
13.47
14.67
15.13
15.21
15.24
15.42
15.73
16.03
16.18
16.15
16.02
15.97
16.08
16.32
16.52
16.50
16.07
15.17
13.85
12.25
10.58
9.01
7.57
6.16
4.58
2.58
0.02
-3.08
-6.55
-10.08
-13.44
-16.48
-19.19
-21.69
-24.17
-26.93
-30.28
-34.53
-39.72
-45.49
-51.03
-55.21
-56.95
-55.59
-51.16
-44.34
-36.22
-27.83
-19.90
-12.70
-6.19
-0.23
5.22
10.09
14.22
17.47
19.86
21.49
22.58
23.35
23.98
24.58
25.16
25.71
26.21
26.66
27.08
27.53
28.03
28.50
28.80
28.74
28.19
27.07
25.40
23.26
20.74
17.95
15.04
12.20
9.62
7.43
5.55
3.79
1.88
-0.34
-2.87
-5.55
-8.24
-10.89
-13.63
-16.70
-20.32
-24.58
-29.42
-34.59
-39.61
-43.87
-46.61
-47.17
-45.19
-40.74
-34.35
-26.84
-18.99
-11.38
-4.26
2.34
8.42
13.92
18.67
22.48
25.20
26.87
27.67
27.88
27.81
27.71
27.77
28.08
28.66
29.42
30.23
30.93
31.37
31.45
31.08
30.28
29.06
27.55
25.88
24.20
22.64
21.16
19.61
17.71
15.15
11.78
7.73
3.37
-0.74
-4.18
-6.81
-8.83
-10.72
-13.00
-16.07
-20.14
-25.13
-30.70
-36.20
-40.77
-43.42
-43.39
-40.39
-34.76
-27.41
-19.49
-11.98
-5.43
0.06
4.65
8.60
12.00
14.83
16.99
18.41
19.12
19.26
19.00
18.56
18.17
17.99
18.14
18.66
19.53
20.67
21.95
23.19
24.10
24.41
23.87
22.37
20.07
17.29
14.47
11.99
9.99
8.36
6.68
4.47
1.38
-2.61
-7.23
-11.92
-16.12
-19.51
-22.20
-24.59
-27.31
-30.88
-35.53
-41.10
-47.04
-52.50
-56.48
-58.09
-56.80
-52.62
-46.08
-38.13
-29.79
-21.89
-14.86
-8.74
-3.37
1.37
5.50
8.88
11.36
12.90
13.67
14.00
14.30
14.86
15.76
16.84
17.85
18.56
19.00
19.36
19.91
20.86
22.07
23.20
23.79
23.50
22.27
20.36
18.21
16.21
14.54
13.16
11.79
10.16
8.02
5.31
2.11
-1.35
-4.83
-8.09
-11.04
-13.70
-16.23
-18.88
-22.00
-25.89
-30.71
-36.36
-42.32
-47.68
-51.32
-52.23
-49.89
-44.48
-36.81
-28.10
-19.50
-11.78
-5.21
0.30
5.00
9.04
12.47
15.23
17.34
18.86
19.97
20.86
21.62
22.30
22.82
23.14
23.23
23.17
23.09
23.15
23.37
23.69
23.92
23.86
23.40
22.53
21.34
19.96
18.50
16.97
15.36
13.59
11.58
9.30
6.72
3.91
0.99
-1.81
-4.33
-6.53
-8.50
-10.50
-12.77
-15.58
-19.10
-23.32
-28.08
-32.92
-37.13
-39.80
-40.11
-37.62
-32.48
-25.39
-17.38
-9.45
-2.24
4.03
9.46
14.23
18.39
21.84
24.40
25.97
26.63
26.62
26.24
25.71
25.14
24.54
23.98
23.62
23.61
24.02
24.71
25.29
25.32
24.49
22.76
20.40
17.84
15.48
13.51
11.87
10.26
8.37
5.99
3.17
0.14
-2.80
-5.43
-7.75
-10.01
-12.57
-15.75
-19.69
-24.31
-29.28
-34.15
-38.33
-41.13
-41.91
-40.23
-36.02
-29.69
-22.06
-14.13
-6.73
-0.35
4.91
9.17
12.55
15.05
16.57
17.05
16.54
15.32
13.83
12.45
11.50
11.11
11.22
11.67
12.25
12.77
13.12
13.28
13.22
12.95
12.42
11.58
10.42
9.01
7.42
5.73
3.87
1.68
-1.00
-4.21
-7.80
-11.45
-14.81
-17.73
-20.30
-22.85
-25.80
-29.49
-34.08
-39.41
-44.98
-49.93
-53.26
-54.08
-51.85
-46.70
-39.33
-30.82
-22.30
-14.57
-7.97
-2.46
2.17
6.09
9.34
11.87
13.65
14.77
15.46
16.01
16.62
17.35
18.12
18.75
19.13
19.26
19.27
19.33
19.55
19.87
20.11
20.06
19.49
18.28
16.45
14.16
11.65
9.17
6.79
4.43
1.89
-1.01
-4.30
-7.79
-11.17
-14.18
-16.71
-18.89
-21.02
-23.42
-26.41
-30.17
-34.75
-39.94
-45.16
-49.60
-52.29
-52.48
-49.85
-44.66
-37.65
-29.74
-21.76
-14.20
-7.31
-1.09
4.47
9.33
13.43
16.69
19.14
20.85
22.04
22.96
23.81
24.70
25.67
26.65
27.57
28.40
29.08
29.58
29.86
29.83
29.49
28.80
27.77
26.41
24.76
22.90
20.94
19.00
17.12
15.29
13.41
11.34
8.99
6.39
3.69
1.05
-1.38
-3.64
-5.85
-8.26
-11.14
-14.71
-19.02
-23.88
-28.73
-32.75
-35.01
-34.77
-31.73
-26.19
-18.95
-11.04
-3.37
3.43
9.15
13.85
17.59
20.42
22.30
23.19
23.22
22.64
21.81
21.00
20.40
20.04
19.92
20.03
20.38
20.99
21.74
22.44
22.83
22.75
22.13
21.08
19.71
18.10
16.23
14.01
11.39
8.39
5.22
2.08
-0.87
-3.55
-6.07
-8.58
-11.26
-14.31
-17.86
-22.03
-26.85
-32.17
-37.58
-42.41
-45.82
-47.07
-45.73
-41.81
-35.84
-28.64
-21.10
-13.95
-7.63
-2.28
2.13
5.71
8.50
10.50
11.67
12.11
12.04
11.81
11.74
12.05
12.75
13.69
14.65
15.43
15.99
16.30
16.43
16.37
16.07
15.47
14.47
13.07
11.33
9.42
7.56
5.90
4.49
3.19
1.75
-0.13
-2.61
-5.65
-9.00
-12.32
-15.32
-17.90
-20.23
-22.66
-25.63
-29.48
-34.28
-39.70
-45.02
-49.24
-51.42
-50.89
-47.55
-41.84
-34.59
-26.74
-19.00
-11.80
-5.23
0.75
6.20
11.01
15.02
18.09
20.19
21.48
22.27
22.87
23.49
24.16
24.77
25.17
25.29
25.20
25.10
25.17
25.51
25.99
26.36
26.33
25.66
24.33
22.53
20.57
18.76
17.25
15.95
14.59
12.83
10.46
7.48
4.12
0.78
-2.23
-4.75
-6.86
-8.83
-11.03
-13.79
-17.37
-21.86
-27.11
-32.65
-37.79
-41.62
-43.35
-42.41
-38.74
-32.76
-25.31
-17.29
-9.51
-2.38
3.92
9.47
14.34
18.56
22.05
24.75
26.65
27.81
28.40
28.60
28.55
28.35
28.11
27.93
27.92
28.13
28.50
28.86
29.02
28.79
28.08
26.85
25.17
23.18
21.02
18.82
16.64
14.43
12.07
9.43
6.48
3.32
0.15
-2.81
-5.42
-7.73
-9.91
-12.19
-14.87
-18.20
-22.33
-27.26
-32.68
-37.88
-41.81
-43.45
-42.14
-37.89
-31.42
-23.85
-16.28
-9.43
-3.51
1.65
6.33
10.63
14.46
17.62
19.91
21.29
21.91
22.02
21.88
21.71
21.63
21.70
21.94
22.33
22.92
23.66
24.42
24.94
24.88
23.91
21.95
19.18
16.01
12.89
10.13
7.78
5.64
3.44
0.98
-1.79
-4.79
-7.90
-11.04
-14.20
-17.35
-20.51
-23.68
-26.98
-30.59
-34.80
-39.72
-45.17
-50.54
-54.85
-57.04
-56.34
-52.57
-46.21
-38.25
-29.78
-21.70
-14.45
-8.12
-2.57
2.34
6.58
10.08
12.75
14.65
16.00
17.06
18.00
18.82
19.42
19.69
19.65
19.46
19.33
19.41
19.72
20.15
20.53
20.75
20.71
20.33
19.53
18.24
16.49
14.45
12.34
10.33
8.42
6.43
4.10
1.29
-1.96
-5.36
-8.59
-11.41
-13.77
-15.82
-17.82
-20.07
-22.82
-26.26
-30.50
-35.48
-40.84
-45.86
-49.63
-51.21
-49.92
-45.68
-39.02
-30.92
-22.53
-14.75
-8.03
-2.39
2.42
6.65
10.41
13.67
16.29
18.24
19.63
20.67
21.57
22.45
23.29
23.99
24.51
24.89
25.26
25.77
26.52
27.49
28.56
29.54
30.18
30.28
29.70
28.44
26.65
24.59
22.53
20.65
18.95
17.31
15.51
13.36
10.76
7.74
4.42
1.00
-2.29
-5.26
-7.86
-10.15
-12.46
-15.20
-18.73
-23.17
-28.24
-33.26
-37.28
-39.39
-38.96
-35.87
-30.49
-23.58
-16.02
-8.61
-1.88
3.91
8.73
12.68
15.88
18.42
20.31
21.53
22.11
22.11
21.72
21.17
20.69
20.41
20.32
20.40
20.61
20.95
21.41
21.90
22.16
21.90
20.91
19.22
17.10
14.93
12.94
11.09
9.10
6.61
3.47
-0.20
-4.01
-7.57
-10.65
-13.29
-15.77
-18.41
-21.49
-25.12
-29.31
-33.94
-38.75
-43.23
-46.67
-48.25
-47.33
-43.72
-37.76
-30.31
-22.42
-14.97
-8.48
-3.01
1.57
5.46
8.73
11.31
13.15
14.28
14.89
15.21
15.47
15.80
16.20
16.62
17.04
17.43
17.81
18.16
18.43
18.57
18.48
18.12
17.41
16.35
15.00
13.48
11.97
10.62
9.50
8.56
7.61
6.39
4.65
2.25
-0.76
-4.18
-7.67
-10.86
-13.47
-15.42
-16.84
-18.06
-19.50
-21.54
-24.44
-28.35
-33.23
-38.83
-44.57
-49.61
-52.95
-53.71
-51.45
-46.34
-39.13
-30.84
-22.49
-14.81
-8.19
-2.68
1.82
5.47
8.45
10.90
12.96
14.73
16.25
17.55
18.66
19.62
20.52
21.42
22.34
23.26
24.13
24.88
25.47
25.88
26.10
26.15
25.99
25.53
24.64
23.20
21.21
18.82
16.30
13.98
12.01
10.44
9.10
7.72
6.09
4.05
1.58
-1.22
-4.18
-7.09
-9.83
-12.33
-14.76
-17.35
-20.42
-24.13
-28.48
-33.20
-37.79
-41.56
-43.78
-43.86
-41.50
-36.83
-30.42
-23.09
-15.69
-8.84
-2.82
2.41
7.06
11.28
15.10
18.40
21.02
22.87
23.95
24.43
24.54
24.54
24.60
24.81
25.13
25.52
25.89
26.19
26.35
26.24
25.71
24.61
22.90
20.72
18.32
16.01
14.00
12.26
10.54
8.56
6.13
3.32
0.40
-2.32
-4.65
-6.66
-8.61
-10.82
-13.57
-17.06
-21.39
-26.52
-32.20
-37.80
-42.38
-44.91
-44.59
-41.25
-35.42
-28.17
-20.65
-13.68
-7.57
-2.25
2.53
6.92
10.81
13.98
16.23
17.57
18.19
18.46
18.72
19.19
19.93
20.87
21.86
22.77
23.55
24.16
24.55
24.65
24.31
23.43
21.99
20.11
18.02
15.92
13.89
11.81
9.46
6.62
3.20
-0.66
-4.65
-8.44
-11.76
-14.56
-17.00
-19.37
-22.05
-25.38
-29.55
-34.54
-40.02
-45.35
-49.65
-52.03
-51.78
-48.73
-43.23
-36.15
-28.55
-21.32
-15.00
-9.68
-5.18
-1.24
2.28
5.39
7.99
10.02
11.47
12.48
13.19
13.72
14.16
14.58
15.02
15.54
16.19
16.99
17.92
18.88
19.74
20.32
20.41
19.85
18.65
16.94
15.00
13.14
11.51
10.05
8.48
6.41
3.59
-0.01
-4.12
-8.32
-12.20
-15.53
-18.30
-20.77
-23.33
-26.38
-30.19
-34.83
-39.98
-45.07
-49.24
-51.63
-51.58
-48.85
-43.68
-36.73
-28.89
-21.01
-13.69
-7.24
-1.65
3.24
7.60
11.49
14.88
17.65
19.74
21.20
22.16
22.83
23.33
23.74
24.09
24.38
24.66
25.03
25.57
26.27
27.00
27.55
27.74
27.45
26.73
25.71
24.55
23.33
22.03
20.51
18.64
16.33
13.64
10.73
7.78
4.94
2.26
-0.36
-3.10
-6.23
-9.99
-14.58
-19.98
-25.91
-31.72
-36.52
-39.37
-39.52
-36.74
-31.38
-24.24
-16.36
-8.67
-1.78
4.15
9.21
13.64
17.62
21.14
24.02
26.09
27.24
27.58
27.37
26.91
26.47
26.19
26.11
26.20
26.34
26.38
26.14
25.43
24.18
22.42
20.31
18.03
15.75
13.51
11.30
9.05
6.70
4.19
1.50
-1.39
-4.48
-7.70
-11.01
-14.38
-17.90
-21.79
-26.25
-31.35
-36.75
-41.72
-45.28
-46.53
-45.00
-40.82
-34.66
-27.47
-20.19
-13.47
-7.58
-2.57
1.66
5.22
8.14
10.45
12.20
13.48
14.41
15.14
15.79
16.46
17.16
17.82
18.31
18.54
18.45
18.12
17.64
17.09
16.43
15.53
14.25
12.61
10.75
8.93
7.32
5.89
4.37
2.41
-0.24
-3.55
-7.23
-10.86
-14.05
-16.62
-18.66
-20.52
-22.64
-25.47
-29.28
-34.07
-39.48
-44.86
-49.33
-52.08
-52.48
-50.26
-45.63
-39.12
-31.49
-23.51
-15.79
-8.70
-2.35
3.33
8.40
12.88
16.71
19.80
22.15
23.86
25.09
26.01
26.74
27.33
27.82
28.24
28.61
28.93
29.19
29.33
29.32
29.14
28.76
28.12
27.10
25.60
23.58
21.16
18.62
16.27
14.30
12.66
11.01
8.94
6.12
2.52
-1.59
-5.77
-9.55
-12.64
-15.01
-16.90
-18.70
-20.84
-23.74
-27.67
-32.63
-38.27
-43.84
-48.33
-50.76
-50.43
-47.21
-41.53
-34.20
-26.12
-18.04
-10.43
-3.50
2.69
8.12
12.74
16.55
19.55
21.85
23.58
24.93
26.05
27.07
28.06
29.00
29.88
30.66
31.34
31.98
32.63
33.32
33.95
34.36
34.36
33.78
32.60
30.91
28.91
26.82
24.81
23.02
21.42
19.93
18.35
16.48
14.19
11.43
8.31
5.02
1.83
-1.09
-3.70
-6.13
-8.67
-11.69
-15.50
-20.23
-25.75
-31.55
-36.95
-41.07
-43.19
-42.84
-39.97
-34.93
-28.38
-21.13
-13.90
-7.19
-1.21
4.10
8.87
13.20
17.04
20.14
22.23
23.21
23.21
22.62
21.92
21.52
21.56
21.93
22.38
22.67
22.75
22.66
22.53
22.41
22.18
21.65
20.60
18.95
16.76
14.24
11.65
9.22
6.97
4.76
2.39
-0.35
-3.48
-6.83
-10.09
-12.96
-15.35
-17.41
-19.55
-22.24
-25.81
-30.38
-35.73
-41.34
-46.50
-50.41
-52.35
-51.84
-48.79
-43.56
-36.84
-29.44
-22.05
-15.13
-8.79
-2.98
2.39
7.37
11.86
15.69
18.69
20.75
21.88
22.15
21.75
20.90
19.80
18.66
17.64
16.87
16.38
16.13
16.04
16.01
15.98
15.90
15.82
15.73
15.60
15.34
14.80
13.92
12.68
11.20
9.68
8.26
6.96
5.69
4.24
2.42
0.13
-2.58
-5.52
-8.52
-11.43
-14.22
-16.95
-19.74
-22.81
-26.35
-30.54
-35.45
-40.87
-46.19
-50.53
-52.91
-52.59
-49.41
-43.82
-36.80
-29.40
-22.42
-16.21
-10.70
-5.61
-0.74
3.88
8.05
11.56
14.29
16.34
17.86
19.02
19.91
20.55
20.94
21.15
21.31
21.56
22.06
22.83
23.83
24.87
25.73
26.22
26.20
25.68
24.76
23.63
22.44
21.27
20.15
19.06
18.02
17.09
16.22
15.29
14.06
12.27
9.81
6.80
3.56
0.44
-2.32
-4.69
-6.85
-9.04
-11.48
-14.36
-17.79
-21.88
-26.62
-31.80
-36.85
-40.89
-42.93
-42.22
-38.60
-32.58
-25.23
-17.72
-10.90
-5.14
-0.28
4.00
7.99
11.73
15.06
17.75
19.65
20.78
21.32
21.54
21.73
22.10
22.67
23.32
23.85
24.05
23.87
23.44
22.98
22.66
22.46
22.20
21.60
20.46
18.74
16.55
14.12
11.62
9.24
7.03
5.04
3.16
1.25
-0.92
-3.50
-6.49
-9.73
-12.99
-16.00
-18.71
-21.19
-23.70
-26.54
-29.95
-34.02
-38.56
-43.14
-47.03
-49.38
-49.45
-46.87
-41.81
-34.94
-27.21
-19.46
-12.28
-5.90
-0.35
4.35
8.10
10.83
12.52
13.44
13.98
14.52
15.29
16.24
17.18
17.89
18.26
18.34
18.29
18.25
18.28
18.38
18.48
18.47
18.24
17.66
16.63
15.13
13.26
11.20
9.13
7.16
5.26
3.30
1.11
-1.42
-4.28
-7.39
-10.57
-13.64
-16.48
-19.09
-21.55
-24.03
-26.76
-30.02
-33.97
-38.60
-43.58
-48.21
-51.62
-52.91
-51.57
-47.59
-41.55
-34.32
-26.81
-19.66
-13.13
-7.21
-1.81
3.11
7.47
11.13
13.99
16.09
17.57
18.62
19.39
19.96
20.34
20.48
20.41
20.17
19.89
19.69
19.69
19.86
20.08
20.16
19.92
19.24
18.13
16.70
15.06
13.34
11.60
9.86
8.14
6.45
4.75
2.99
1.08
-1.02
-3.27
-5.55
-7.75
-9.83
-11.87
-14.09
-16.78
-20.17
-24.35
-29.14
-34.10
-38.54
-41.70
-42.88
-41.67
-38.09
-32.54
-25.66
-18.15
-10.59
-3.41
3.10
8.76
13.46
17.20
20.05
22.15
23.63
24.54
24.91
24.82
24.44
24.03
23.83
23.96
24.33
24.75
25.02
25.05
24.86
24.49
23.91
23.01
21.68
19.93
17.94
16.01
14.34
12.95
11.60
9.92
7.62
4.66
1.28
-2.13
-5.20
-7.80
-10.10
-12.46
-15.31
-18.94
-23.39
-28.36
-33.29
-37.49
-40.22
-40.90
-39.17
-35.09
-29.06
-21.82
-14.24
-7.10
-0.91
4.20
8.38
11.90
14.96
17.55
19.53
20.72
21.10
20.84
20.28
19.83
19.75
20.14
20.84
21.62
22.18
22.40
22.23
21.73
20.93
19.80
18.26
16.27
13.90
11.36
8.87
6.53
4.30
1.98
-0.65
-3.70
-7.10
-10.61
-14.03
-17.24
-20.32
-23.53
-27.18
-31.47
-36.35
-41.40
-45.84
-48.76
-49.38
-47.36
-42.86
-36.54
-29.26
-21.85
-14.88
-8.63
-3.20
1.41
5.20
8.18
10.39
11.94
12.99
13.69
14.18
14.58
14.94
15.31
15.69
16.08
16.43
16.69
16.80
16.74
16.53
16.21
15.81
15.30
14.59
13.56
12.19
10.56
8.85
7.22
5.70
4.15
2.28
-0.11
-3.08
-6.42
-9.83
-13.02
-15.91
-18.63
-21.51
-24.95
-29.22
-34.41
-40.19
-45.87
-50.46
-52.91
-52.44
-48.85
-42.57
-34.54
-25.92
-17.66
-10.34
-4.12
1.14
5.70
9.74
13.28
16.25
18.57
20.19
21.22
21.89
22.49
23.25
24.25
25.43
26.61
27.58
28.25
28.64
28.87
29.08
29.27
29.29
28.94
28.01
26.48
24.53
22.43
20.44
18.68
17.05
15.36
13.42
11.15
8.55
5.69
2.62
-0.65
-4.08
-7.61
-11.15
-14.64
-18.09
-21.66
-25.59
-30.14
-35.39
-41.14
-46.85
-51.61
-54.47
-54.62
-51.71
-46.03
-38.33
-29.64
-20.90
-12.71
-5.35
1.11
6.70
11.42
15.30
18.41
20.89
22.90
24.59
26.05
27.31
28.40
29.36
30.17
30.84
31.39
31.85
32.29
32.82
33.43
34.02
34.33
34.08
33.07
31.30
29.03
26.61
24.46
22.76
21.49
20.40
19.16
17.50
15.30
12.64
9.67
6.58
3.51
0.58
-2.14
-4.58
-6.82
-9.16
-11.98
-15.72
-20.58
-26.37
-32.45
-37.85
-41.51
-42.61
-40.78
-36.16
-29.37
-21.33
-12.99
-5.15
1.71
7.38
11.93
15.51
18.29
20.37
21.79
22.59
22.87
22.78
22.50
22.17
21.90
21.69
21.53
21.40
21.30
21.27
21.25
21.15
20.76
19.87
18.32
16.17
13.62
11.07
8.86
7.19
5.98
4.91
3.53
1.46
-1.42
-4.96
-8.74
-12.30
-15.27
-17.55
-19.35
-21.10
-23.30
-26.36
-30.46
-35.49
-41.07
-46.50
-50.95
-53.54
-53.59
-50.83
-45.52
-38.43
-30.54
-22.78
-15.77
-9.68
-4.33
0.54
5.06
9.15
12.52
14.94
16.33
16.87
16.96
17.02
17.35
18.02
18.94
19.96
21.03
22.14
23.32
24.48
25.46
25.99
25.88
25.10
23.74
22.01
20.08
18.07
16.03
13.96
11.87
9.75
7.55
5.17
2.56
-0.35
-3.50
-6.72
-9.81
-12.62
-15.11
-17.36
-19.57
-21.93
-24.64
-27.83
-31.61
-36.03
-40.98
-46.08
-50.67
-53.86
-54.76
-52.85
-48.16
-41.30
-33.27
-25.09
-17.48
-10.77
-4.87
0.43
5.28
9.68
13.43
16.33
18.32
19.53
20.23
20.75
21.29
21.85
22.37
22.75
23.02
23.29
23.74
24.43
25.34
26.28
26.99
27.22
26.82
25.80
24.28
22.50
20.69
19.01
17.50
16.06
14.48
12.54
10.09
7.11
3.73
0.13
-3.49
-7.03
-10.39
-13.58
-16.65
-19.71
-22.95
-26.60
-30.78
-35.37
-39.94
-43.70
-45.74
-45.29
-42.07
-36.41
-29.15
-21.34
-13.87
-7.23
-1.47
3.58
8.11
12.12
15.49
18.03
19.66
20.49
20.77
20.74
20.59
20.41
20.29
20.26
20.42
20.78
21.31
21.90
22.36
22.52
22.29
21.61
20.55
19.23
17.75
16.20
14.54
12.62
10.26
7.38
4.07
0.58
-2.74
-5.64
-8.14
-10.49
-13.09
-16.32
-20.36
-25.17
-30.46
-35.70
-40.23
-43.30
-44.27
-42.79
-38.93
-33.17
-26.27
-19.02
-12.03
-5.68
-0.08
4.77
8.86
12.14
14.51
15.95
16.55
16.51
16.13
15.72
15.53
15.64
16.06
16.70
17.46
18.25
18.98
19.55
19.82
19.63
18.90
17.58
15.74
13.51
11.05
8.56
6.18
3.97
1.88
-0.25
-2.61
-5.34
-8.44
-11.79
-15.13
-18.29
-21.16
-23.83
-26.56
-29.68
-33.47
-38.02
-43.07
-47.97
-51.74
-53.37
-52.05
-47.62
-40.56
-31.92
-22.92
-14.54
-7.31
-1.27
3.78
8.14
11.93
15.11
17.57
19.24
20.21
20.72
21.13
21.65
22.40
23.26
24.03
24.55
24.77
24.74
24.52
24.11
23.34
22.08
20.26
18.04
15.71
13.54
11.64
9.87
8.02
5.87
3.35
0.56
-2.38
-5.34
-8.30
-11.24
-14.17
-17.11
-20.14
-23.45
-27.28
-31.73
-36.54
-41.01
-44.09
-44.69
-42.17
-36.57
-28.67
-19.70
-10.89
-3.10
3.40
8.81
13.51
17.79
21.67
24.97
27.42
28.85
29.29
28.97
28.25
27.46
26.84
26.45
26.21
25.99
25.72
25.42
25.21
25.18
25.25
25.13
24.42
22.77
20.06
16.52
12.61
8.82
5.49
2.69
0.28
-2.03
-4.51
-7.36
-10.68
-14.52
-18.88
-23.65
-28.56
-33.12
-36.60
-38.22
-37.34
-33.73
-27.63
-19.80
-11.23
-2.87
4.60
10.85
15.88
19.77
22.57
24.30
24.96
24.72
23.87
22.82
21.95
21.46
21.33
21.38
21.41
21.29
20.98
20.52
19.91
19.09
17.91
16.23
13.98
11.23
8.13
4.89
1.67
-1.41
-4.35
-7.16
-9.91
-12.71
-15.69
-19.05
-22.99
-27.67
-33.10
-39.03
-44.87
-49.77
-52.83
-53.27
-50.70
-45.26
-37.61
-28.75
-19.72
-11.39
-4.22
1.65
6.42
10.33
13.60
16.30
18.36
19.71
20.30
20.23
19.72
19.05
18.50
18.24
18.32
18.63
18.97
19.17
19.08
18.63
17.85
16.76
15.41
13.78
11.89
9.72
7.25
4.50
1.45
-1.86
-5.36
-8.93
-12.40
-15.65
-18.68
-21.54
-24.47
-27.74
-31.61
-36.13
-41.07
-45.76
-49.21
-50.40
-48.59
-43.64
-36.08
-26.94
-17.41
-8.48
-0.71
5.77
11.08
15.44
18.97
21.72
23.76
25.21
26.23
27.01
27.67
28.18
28.43
28.38
28.11
27.88
27.97
28.55
29.55
30.62
31.32
31.23
30.21
28.36
25.98
23.42
20.89
18.42
15.92
13.22
10.28
7.16
4.07
1.19
-1.37
-3.70
-6.02
-8.63
-11.79
-15.66
-20.18
-25.03
-29.66
-33.29
-35.14
-34.59
-31.46
-25.98
-18.84
-10.85
-2.82
4.64
11.17
16.61
20.86
23.91
25.82
26.77
27.00
26.75
26.22
25.50
24.67
23.81
23.06
22.56
22.36
22.44
22.59
22.59
22.24
21.45
20.22
18.61
16.70
14.57
12.32
10.04
7.79
5.59
3.35
0.93
-1.76
-4.77
-8.03
-11.41
-14.81
-18.21
-21.68
-25.40
-29.52
-34.10
-38.97
-43.59
-47.16
-48.75
-47.70
-43.80
-37.49
-29.64
-21.27
-13.17
-5.79
0.75
6.44
11.19
14.85
17.28
18.49
18.69
18.22
17.45
16.65
16.01
15.58
15.40
15.44
15.65
15.91
16.07
16.03
15.72
15.13
14.28
13.20
11.84
10.20
8.32
6.26
4.08
1.79
-0.71
-3.58
-6.89
-10.61
-14.47
-18.11
-21.19
-23.63
-25.65
-27.70
-30.34
-33.94
-38.61
-43.97
-49.24
-53.42
-55.48
-54.68
-50.81
-44.23
-35.78
-26.48
-17.28
-8.82
-1.42
4.88
10.17
14.50
17.93
20.47
22.17
23.14
23.54
23.58
23.45
23.34
23.33
23.45
23.68
24.00
24.39
24.85
25.37
25.90
26.25
26.19
25.46
23.92
21.67
19.03
16.48
14.45
13.10
12.27
11.50
10.26
8.18
5.24
1.73
-1.87
-5.09
-7.78
-10.02
-12.20
-14.74
-18.00
-22.14
-27.02
-32.19
-36.92
-40.32
-41.53
-40.02
-35.77
-29.31
-21.58
-13.48
-5.74
1.29
7.50
12.82
17.15
20.37
22.47
23.65
24.23
24.53
24.75
24.93
25.03
25.02
24.92
24.80
24.64
24.37
23.87
23.09
22.06
20.89
19.69
18.51
17.30
15.98
14.44
12.62
10.47
7.96
5.07
1.86
-1.57
-5.02
-8.30
-11.20
-13.63
-15.66
-17.54
-19.61
-22.28
-25.76
-29.94
-34.32
-38.15
-40.56
-40.83
-38.63
-34.03
-27.52
-19.83
-11.76
-4.06
2.75
8.35
12.65
15.67
17.55
18.44
18.58
18.23
17.70
17.30
17.23
17.52
18.03
18.54
18.83
18.76
18.37
17.76
17.07
16.33
15.46
14.34
12.80
10.82
8.45
5.89
3.30
0.76
-1.78
-4.48
-7.43
-10.57
-13.71
-16.61
-19.12
-21.36
-23.71
-26.60
-30.42
-35.20
-40.53
-45.61
-49.40
-50.96
-49.70
-45.60
-39.21
-31.49
-23.47
-15.99
-9.46
-3.86
1.00
5.36
9.27
12.60
15.14
16.79
17.57
17.67
17.34
16.79
16.16
15.53
14.96
14.54
14.43
14.69
15.29
16.01
16.50
16.41
15.59
14.12
12.31
10.54
9.08
7.96
7.01
5.94
4.55
2.75
0.58
-1.89
-4.59
-7.48
-10.50
-13.53
-16.54
-19.55
-22.77
-26.46
-30.72
-35.32
-39.64
-42.80
-43.90
-42.43
-38.34
-32.15
-24.69
-16.92
-9.64
-3.37
1.73
5.76
8.94
11.52
13.62
15.24
16.32
16.83
16.90
16.73
16.58
16.64
16.99
17.57
18.31
19.13
19.93
20.65
21.20
21.43
21.23
20.58
19.49
18.07
16.47
14.80
13.14
11.47
9.72
7.80
5.63
3.22
0.65
-1.88
-4.25
-6.41
-8.47
-10.70
-13.39
-16.73
-20.62
-24.57
-27.81
-29.47
-28.83
-25.66
-20.28
-13.53
-6.39
0.28
6.04
10.84
14.84
18.27
21.16
23.38
24.73
25.10
24.49
23.10
21.22
19.21
17.41
16.12
15.44
15.33
15.54
15.75
15.67
15.15
14.19
12.90
11.39
9.72
7.90
5.94
3.82
1.64
-0.50
-2.52
-4.45
-6.41
-8.60
-11.19
-14.27
-17.87
-21.90
-26.17
-30.40
-34.10
-36.72
-37.67
-36.54
-33.21
-27.97
-21.44
-14.36
-7.45
-1.25
3.93
8.02
11.05
13.16
14.48
15.11
15.14
14.62
13.71
12.60
11.63
11.07
11.06
11.47
12.00
12.20
11.76
10.60
8.92
7.10
5.49
4.26
3.33
2.42
1.22
-0.49
-2.69
-5.23
-7.85
-10.38
-12.75
-15.06
-17.49
-20.27
-23.61
-27.58
-32.04
-36.56
-40.43
-42.84
-43.05
-40.76
-36.16
-29.93
-23.02
-16.32
-10.40
-5.42
-1.24
2.38
5.56
8.20
10.13
11.15
11.27
10.70
9.76
8.86
8.35
8.38
8.98
9.99
11.18
12.26
12.99
13.21
12.91
12.19
11.20
10.07
8.84
7.45
5.79
3.79
1.44
-1.16
-3.92
-6.69
-9.43
-12.12
-14.79
-17.54
-20.45
-23.65
-27.24
-31.21
-35.30
-39.01
-41.59
-42.34
-40.74
-36.79
-30.97
-24.03
-16.80
-9.88
-3.62
1.85
6.51
10.36
13.48
15.94
17.92
19.53
20.84
21.75
22.17
22.04
21.49
20.84
20.44
20.55
21.20
22.20
23.18
23.79
23.78
23.08
21.78
20.10
18.24
16.30
14.32
12.29
10.18
8.00
5.75
3.45
1.11
-1.27
-3.62
-5.92
-8.15
-10.35
-12.69
-15.41
-18.67
-22.46
-26.47
-30.11
-32.65
-33.39
-31.88
-28.11
-22.46
-15.67
-8.53
-1.79
4.09
8.96
12.89
16.06
18.59
20.54
21.89
22.63
22.84
22.67
22.41
22.29
22.50
23.06
23.87
24.70
25.30
25.52
25.30
24.72
23.89
22.93
21.85
20.58
19.05
17.15
14.87
12.19
9.14
5.81
2.35
-1.03
-4.13
-6.82
-9.18
-11.48
-14.10
-17.42
-21.60
-26.49
-31.50
-35.75
-38.23
-38.16
-35.23
-29.76
-22.64
-14.97
-7.74
-1.55
3.47
7.52
10.88
13.73
16.10
17.92
19.04
19.46
19.29
18.75
18.15
17.76
17.78
18.20
18.83
19.40
19.66
19.43
18.72
17.60
16.19
14.56
12.76
10.78
8.57
6.11
3.39
0.47
-2.50
-5.37
-7.98
-10.31
-12.42
-14.48
-16.68
-19.17
-22.09
-25.56
-29.62
-34.11
-38.54
-42.12
-43.96
-43.34
-40.12
-34.67
-27.84
-20.57
-13.57
-7.22
-1.63
3.23
7.38
10.78
13.37
15.16
16.23
16.72
16.81
16.66
16.40
16.09
15.72
15.30
14.89
14.63
14.66
15.04
15.69
16.30
16.57
16.22
15.26
13.86
12.35
10.98
9.84
8.81
7.60
5.93
3.60
0.69
-2.55
-5.66
-8.26
-10.18
-11.53
-12.71
-14.21
-16.44
-19.59
-23.60
-28.10
-32.47
-36.01
-38.00
-37.91
-35.59
-31.30
-25.63
-19.32
-13.04
-7.23
-2.07
2.44
6.36
9.67
12.33
14.30
15.62
16.43
16.91
17.24
17.49
17.68
17.76
17.79
17.90
18.30
19.08
20.21
21.45
22.45
22.90
22.65
21.80
20.60
19.35
18.24
17.28
16.31
15.13
13.59
11.72
9.69
7.67
5.77
3.98
2.16
0.18
-2.03
-4.49
-7.21
-10.27
-13.81
-17.89
-22.27
-26.36
-29.27
-30.14
-28.42
-24.18
-18.04
-11.00
-4.09
1.96
6.82
10.55
13.41
15.65
17.46
18.89
19.91
20.58
20.99
21.29
21.58
21.91
22.18
22.29
22.18
21.85
21.43
21.05
20.77
20.50
20.07
19.23
17.84
15.93
13.72
11.50
9.60
8.14
7.04
6.03
4.78
3.03
0.71
-1.99
-4.75
-7.21
-9.16
-10.64
-11.87
-13.24
-15.11
-17.73
-21.16
-25.18
-29.37
-33.12
-35.79
-36.79
-35.78
-32.72
-27.95
-22.08
-15.83
-9.82
-4.44
0.17
4.05
7.27
9.83
11.66
12.70
12.99
12.75
12.31
11.96
11.87
11.98
12.14
12.18
12.07
11.85
11.67
11.60
11.64
11.71
11.67
11.37
10.72
9.65
8.21
6.53
4.83
3.30
2.02
0.92
-0.21
-1.56
-3.27
-5.28
-7.43
-9.52
-11.38
-12.93
-14.17
-15.22
-16.24
-17.49
-19.21
-21.62
-24.75
-28.39
-32.09
-35.19
-37.03
-37.08
-35.10
-31.26
-26.03
-20.09
-14.12
-8.64
-3.90
-0.00
3.13
5.57
7.41
8.79
9.84
10.66
11.29
11.68
11.74
11.45
10.90
10.31
10.01
10.27
11.15
12.55
14.16
15.59
16.57
16.88
16.51
15.57
14.22
12.67
11.08
9.59
8.34
7.46
6.97
6.84
6.91
6.93
6.61
5.71
4.12
1.93
-0.59
-3.08
-5.23
-6.92
-8.26
-9.54
-11.09
-13.20
-16.06
-19.66
-23.80
-28.02
-31.63
-33.88
-34.12
-32.04
-27.80
-22.01
-15.53
-9.20
-3.65
0.80
4.16
6.63
8.48
10.01
11.39
12.68
13.80
14.66
15.16
15.32
15.24
15.05
14.82
14.60
14.39
14.21
14.12
14.19
14.44
14.81
15.17
15.31
15.01
14.18
12.84
11.20
9.57
8.21
7.29
6.76
6.36
5.81
4.82
3.27
1.22
-1.16
-3.56
-5.73
-7.51
-8.89
-10.08
-11.38
-13.12
-15.50
-18.56
-22.09
-25.77
-29.17
-31.83
-33.29
-33.16
-31.21
-27.45
-22.24
-16.17
-9.97
-4.29
0.46
4.11
6.73
8.51
9.68
10.45
11.00
11.46
11.94
12.48
13.10
13.77
14.44
15.03
15.43
15.60
15.52
15.28
15.00
14.79
14.63
14.36
13.77
12.73
11.29
9.73
8.36
7.41
6.83
6.29
5.35
3.65
1.13
-1.98
-5.18
-8.03
-10.26
-11.95
-13.43
-15.11
-17.30
-20.14
-23.58
-27.39
-31.25
-34.73
-37.27
-38.29
-37.34
-34.29
-29.45
-23.53
-17.37
-11.71
-6.90
-2.98
0.23
2.92
5.15
6.88
8.09
8.86
9.35
9.76
10.21
10.67
11.05
11.31
11.43
11.52
11.76
12.25
13.05
14.07
15.11
15.94
16.32
16.10
15.25
13.87
12.09
10.12
8.11
6.18
4.37
2.73
1.27
-0.06
-1.31
-2.62
-4.08
-5.76
-7.62
-9.59
-11.57
-13.53
-15.51
-17.66
-20.14
-23.12
-26.66
-30.71
-35.05
-39.32
-42.94
-45.24
-45.63
-43.72
-39.53
-33.57
-26.65
-19.63
-13.15
-7.47
-2.53
1.85
5.72
8.94
11.26
12.52
12.83
12.52
12.05
11.72
11.62
11.65
11.66
11.61
11.56
11.67
12.01
12.55
13.14
13.58
13.77
13.71
13.49
13.19
12.83
12.36
11.65
10.69
9.55
8.43
7.51
6.84
6.25
5.46
4.18
2.28
-0.12
-2.71
-5.17
-7.33
-9.23
-11.10
-13.20
-15.77
-18.90
-22.60
-26.71
-30.93
-34.76
-37.56
-38.68
-37.65
-34.38
-29.20
-22.75
-15.80
-9.03
-2.90
2.42
6.88
10.55
13.49
15.79
17.59
19.02
20.20
21.20
21.98
22.46
22.60
22.40
21.96
21.44
20.96
20.67
20.62
20.78
21.01
21.08
20.72
19.72
18.04
15.83
13.41
11.09
9.03
7.25
5.56
3.73
1.62
-0.79
-3.41
-6.13
-8.86
-11.57
-14.31
-17.11
-20.05
-23.21
-26.68
-30.50
-34.59
-38.63
-42.04
-44.03
-43.83
-40.98
-35.52
-28.08
-19.65
-11.29
-3.81
2.43
7.43
11.44
14.63
17.06
18.72
19.64
20.03
20.17
20.43
21.00
21.83
22.72
23.40
23.72
23.68
23.43
23.14
22.92
22.77
22.58
22.18
21.37
20.07
18.29
16.20
14.01
11.90
9.92
7.92
5.69
3.05
0.00
-3.31
-6.56
-9.47
-11.93
-14.03
-16.06
-18.45
-21.66
-26.03
-31.61
-38.06
-44.56
-49.99
-53.26
-53.66
-51.06
-45.96
-39.20
-31.71
-24.16
-16.95
-10.25
-4.15
1.24
5.82
9.49
12.30
14.38
15.95
17.14
18.02
18.59
18.81
18.69
18.36
18.04
17.93
18.24
19.02
20.20
21.52
22.65
23.21
22.89
21.61
19.55
17.09
14.70
12.69
11.10
9.70
8.15
6.13
3.54
0.51
-2.78
-6.07
-9.19
-12.05
-14.68
-17.24
-20.06
-23.56
-28.04
-33.58
-39.77
-45.78
-50.53
-52.96
-52.45
-48.87
-42.72
-34.84
-26.17
-17.55
-9.52
-2.34
3.96
9.41
14.04
17.85
20.82
22.97
24.38
25.23
25.66
25.84
25.85
25.81
25.82
26.02
26.51
27.31
28.36
29.46
30.37
30.89
30.87
30.26
29.08
27.42
25.43
23.34
21.38
19.71
18.35
17.10
15.68
13.75
11.17
7.96
4.39
0.82
-2.43
-5.24
-7.72
-10.17
-12.96
-16.41
-20.71
-25.86
-31.63
-37.49
-42.69
-46.31
-47.48
-45.59
-40.63
-33.16
-24.19
-14.87
-6.18
1.40
7.76
13.10
17.61
21.35
24.24
26.17
27.14
27.31
27.00
26.53
26.16
25.96
25.93
26.04
26.26
26.62
27.14
27.77
28.34
28.58
28.24
27.18
25.47
23.35
21.18
19.23
17.53
15.87
13.88
11.21
7.74
3.63
-0.73
-4.88
-8.52
-11.58
-14.25
-16.89
-19.88
-23.56
-28.11
-33.48
-39.34
-45.03
-49.62
-52.11
-51.68
-48.01
-41.40
-32.69
-23.06
-13.57
-4.99
2.32
8.35
13.24
17.14
20.12
22.19
23.40
23.83
23.64
23.10
22.50
22.16
22.31
23.01
24.13
25.42
26.54
27.28
27.55
27.37
26.82
25.92
24.61
22.84
20.63
18.15
15.66
13.43
11.61
10.14
8.79
7.25
5.28
2.79
-0.09
-3.19
-6.25
-9.15
-11.86
-14.47
-17.16
-20.13
-23.59
-27.70
-32.57
-38.14
-44.13
-49.96
-54.76
-57.61
-57.70
-54.60
-48.45
-39.96
-30.18
-20.27
-11.16
-3.36
2.99
8.09
12.20
15.57
18.37
20.62
22.33
23.49
24.16
24.53
24.79
25.18
25.90
26.96
28.26
29.61
30.76
31.52
31.84
31.70
31.13
30.19
28.91
27.38
25.75
24.17
22.71
21.35
19.94
18.28
16.30
14.01
11.58
9.13
6.66
4.05
1.16
-2.05
-5.45
-8.81
-11.92
-14.73
-17.43
-20.41
-24.01
-28.46
-33.68
-39.28
-44.56
-48.67
-50.72
-50.07
-46.44
-40.05
-31.60
-22.05
-12.40
-3.46
4.26
10.56
15.48
19.20
21.92
23.84
25.11
25.84
26.18
26.21
26.08
25.93
25.86
25.95
26.19
26.53
26.89
27.20
27.41
27.48
27.30
26.75
25.69
24.07
21.94
19.53
17.06
14.69
12.43
10.10
7.49
4.45
1.02
-2.59
-6.11
-9.33
-12.19
-14.84
-17.51
-20.52
-24.20
-28.70
-34.04
-39.84
-45.43
-49.83
-52.06
-51.41
-47.67
-41.29
-33.17
-24.38
-15.84
-8.10
-1.30
4.65
9.89
14.46
18.23
21.03
22.75
23.45
23.36
22.84
22.24
21.81
21.68
21.90
22.39
23.05
23.69
24.11
24.11
23.65
22.78
21.63
20.31
18.79
16.98
14.81
12.34
9.81
7.49
5.60
4.10
2.73
1.14
-0.88
-3.36
-6.14
-9.01
-11.85
-14.64
-17.47
-20.41
-23.53
-26.90
-30.68
-35.05
-40.11
-45.66
-51.05
-55.31
-57.34
-56.36
-52.16
-45.26
-36.68
-27.63
-19.10
-11.62
-5.26
0.21
5.14
9.66
13.73
17.08
19.53
21.05
21.87
22.43
23.09
24.02
25.12
26.13
26.79
27.02
26.94
26.79
26.79
26.96
27.16
27.13
26.60
25.45
23.71
21.53
19.18
16.85
14.68
12.72
10.94
9.24
7.47
5.43
2.97
0.05
-3.25
-6.65
-9.86
-12.63
-14.95
-17.03
-19.20
-21.90
-25.45
-30.00
-35.38
-41.04
-46.07
-49.39
-50.02
-47.43
-41.79
-33.88
-24.87
-15.89
-7.73
-0.73
5.14
10.07
14.21
17.65
20.39
22.47
23.95
24.97
25.63
