1520263872.00
64.000000
-0.00
-0.00
-0.00
-0.00
-0.00
-0.00
-0.00
-0.00
-0.00
-0.00
0.00
0.01
0.01
-0.00
-0.03
-0.05
-0.05
0.00
0.13
0.36
0.66
1.01
1.37
1.72
2.06
2.40
2.79
3.24
3.80
4.42
5.06
5.66
6.20
6.68
7.15
7.68
8.31
9.14
10.09
11.04
11.88
12.56
13.14
13.76
14.65
15.96
17.91
20.32
22.90
25.38
27.58
29.57
31.68
34.32
37.81
42.54
48.15
54.10
59.83
64.97
69.58
74.14
79.34
85.71
93.76
103.00
112.62
121.73
129.77
136.75
143.30
150.75
157.77
166.64
177.95
191.79
206.97
220.57
228.25
225.36
208.53
176.87
132.76
80.05
23.07
-34.94
-92.44
-149.16
-205.23
-260.37
-313.74
-363.87
-409.83
-450.91
-486.50
-515.74
-537.23
-549.22
-549.96
-538.37
-514.21
-478.67
-433.88
-382.45
-327.02
-269.84
-212.63
-156.66
-102.95
-52.37
-5.90
35.58
71.43
101.35
125.50
144.38
158.69
169.15
176.37
180.75
182.57
182.07
179.51
175.23
169.65
163.18
156.15
148.81
141.30
133.69
126.02
118.33
110.69
103.16
95.80
88.68
81.83
75.25
68.95
62.95
57.25
51.86
46.78
42.03
37.59
33.45
29.61
26.07
22.81
19.83
17.11
14.67
12.48
10.54
8.83
7.35
6.07
4.97
4.05
3.27
2.62
2.09
1.65
1.30
1.01
0.79
0.61
0.48
0.37
0.30
0.24
0.21
0.19
0.18
0.19
0.21
0.23
0.26
0.29
0.33
0.37
0.41
0.46
0.50
0.55
0.60
0.66
0.71
0.77
0.84
0.91
0.99
1.08
1.18
1.29
1.41
1.55
1.70
1.87
2.06
2.27
2.50
2.77
3.05
3.37
3.71
4.09
4.50
4.95
5.43
5.95
6.51
7.12
7.77
8.46
9.19
9.97
10.80
11.68
12.60
13.57
14.60
15.69
16.85
18.07
19.35
20.66
21.94
23.16
24.20
24.96
25.31
25.14
24.34
22.83
20.60
17.68
14.13
10.10
5.76
1.32
-3.00
-7.00
-10.51
-13.39
-15.57
-17.03
-17.78
-17.90
-17.48
-16.64
-15.49
-14.15
-12.72
-11.26
-9.81
-8.35
-6.88
-5.40
-3.85
-2.23
-0.53
1.23
3.05
4.95
7.00
9.15
11.38
13.75
16.23
18.82
21.49
24.20
27.01
30.08
33.28
36.63
40.17
43.85
47.60
51.25
54.70
57.98
61.37
64.77
68.30
72.10
76.15
80.24
84.01
87.13
89.50
91.39
92.65
93.43
93.84
93.62
92.07
88.00
79.87
65.75
48.58
29.53
9.69
-10.12
-29.48
-48.37
-67.20
-86.61
-107.42
-130.30
-156.09
-184.30
-212.79
-237.95
-255.59
-262.31
-256.68
-239.76
-214.55
-185.41
-155.99
-128.65
-104.40
-83.43
-65.66
-50.95
-39.06
-29.37
-21.32
-14.12
-7.15
-0.21
6.53
12.55
17.44
20.99
23.40
25.01
26.30
27.71
29.42
31.30
32.94
33.89
33.75
32.45
30.14
27.21
24.19
21.52
19.46
17.97
16.81
15.53
13.68
10.90
7.03
2.14
-3.41
-9.05
-14.00
-17.43
-18.68
-17.43
-13.81
-8.46
-2.26
3.87
9.26
13.61
16.99
19.63
21.77
23.58
25.10
26.30
27.12
27.55
27.63
27.43
27.07
26.61
26.11
25.55
24.87
24.03
23.06
22.14
21.48
21.27
21.55
22.13
22.67
22.76
22.18
20.98
19.43
17.90
16.62
15.52
14.27
12.43
9.68
6.01
1.70
-2.71
-6.68
-9.74
-11.54
-11.87
-10.64
-7.89
-3.86
1.01
6.12
10.86
14.75
17.58
19.38
20.43
21.05
21.50
21.91
22.20
22.23
21.88
21.20
20.38
19.67
19.23
19.03
18.87
18.49
17.77
16.81
15.89
15.24
14.93
14.77
14.34
13.21
11.07
7.83
3.68
-1.02
-5.85
-10.41
-14.40
-17.69
-20.25
-22.15
-23.53
-24.61
-25.75
-27.41
-30.10
-34.10
-39.26
-44.87
-49.76
-52.63
-52.57
-49.35
-43.50
-36.14
-28.52
-21.63
-15.95
-11.50
-7.93
-4.82
-1.82
1.20
4.15
6.89
9.24
11.08
12.40
13.22
13.59
13.61
13.38
13.05
12.73
12.47
12.19
11.73
10.89
9.53
7.68
5.43
3.00
0.54
-1.85
-4.18
-6.57
-9.17
-12.05
-15.19
-18.38
-21.38
-23.93
-25.96
-27.63
-29.27
-31.27
-33.91
-37.13
-40.53
-43.36
-44.75
-44.06
-40.98
-35.74
-29.02
-21.72
-14.73
-8.64
-3.70
0.15
3.16
5.54
7.47
8.98
10.07
10.66
10.81
10.62
10.30
10.06
10.07
10.38
10.92
11.50
11.91
12.00
11.71
11.12
10.34
9.43
8.36
6.96
5.06
2.57
-0.39
-3.49
-6.36
-8.70
-10.45
-11.81
-13.14
-14.78
-16.97
-19.81
-23.25
-27.04
-30.73
-33.69
-35.17
-34.52
-31.46
-26.27
-19.71
-12.76
-6.27
-0.76
3.70
7.30
10.33
13.02
15.48
17.69
19.61
21.19
22.47
23.55
24.60
25.74
26.97
28.15
29.09
29.63
29.75
29.55
29.22
28.90
28.56
28.11
27.41
26.43
25.20
23.78
22.19
20.40
18.38
16.19
14.05
12.24
11.00
10.42
10.36
10.47
10.33
9.57
8.12
6.27
4.71
4.24
5.53
8.75
13.51
18.92
23.94
27.74
30.01
30.96
31.16
31.17
31.36
31.68
31.86
31.48
30.18
27.75
24.17
19.52
14.00
7.86
1.42
-4.98
-10.99
-16.36
-21.05
-25.16
-28.87
-32.33
-35.49
-38.12
-39.94
-40.68
-40.32
-39.07
-37.31
-35.45
-33.80
-32.51
-31.60
-31.00
-30.62
-30.42
-30.32
-30.34
-30.54
-31.10
-32.24
-34.02
-36.21
-38.14
-38.90
-37.57
-33.69
-27.49
-19.83
-11.96
-5.08
0.07
3.36
5.21
6.28
7.26
8.62
10.53
12.91
15.58
18.30
20.89
23.22
25.14
26.53
27.30
27.45
27.17
26.70
26.24
25.85
25.43
24.81
23.91
22.72
21.31
19.62
17.54
14.78
11.15
6.63
1.39
-4.25
-9.92
-15.39
-20.51
-25.23
-29.57
-33.66
-37.78
-42.26
-47.33
-52.84
-58.13
-62.08
-63.43
-61.29
-55.51
-46.80
-36.55
-26.33
-17.41
-10.37
-5.12
-1.09
2.33
5.60
8.75
11.64
14.03
15.84
17.17
18.23
19.22
20.24
21.27
22.25
23.14
23.97
24.73
25.36
25.75
25.70
25.06
23.72
21.72
19.16
16.16
12.77
8.95
4.62
-0.29
-5.62
-11.09
-16.26
-20.78
-24.56
-27.82
-31.08
-34.93
-39.78
-45.62
-52.02
-58.05
-62.59
-64.56
-63.20
-58.34
-50.49
-40.75
-30.58
-21.31
-13.86
-8.45
-4.76
-2.06
0.29
2.71
5.23
7.67
9.83
11.61
13.18
14.71
16.34
18.00
19.49
20.55
21.04
20.98
20.51
19.80
18.96
18.02
16.91
15.51
13.61
10.99
7.50
3.12
-2.00
-7.50
-12.94
-18.02
-22.60
-26.79
-30.80
-34.93
-39.36
-44.18
-49.30
-54.27
-58.28
-60.26
-59.06
-53.99
-45.04
-32.99
-19.23
-5.36
7.23
17.59
25.32
30.46
33.39
34.59
34.65
34.06
33.25
32.58
32.26
32.42
33.01
33.80
34.45
34.62
34.08
32.87
31.34
29.89
28.90
28.47
28.35
28.10
27.22
25.35
22.41
18.57
14.16
9.56
5.09
0.93
-2.79
-6.09
-9.15
-12.31
-16.02
-20.69
-26.41
-32.78
-38.83
-43.22
-44.62
-42.17
-35.81
-26.34
-15.25
-4.17
5.56
13.28
19.06
23.42
26.94
29.94
32.36
33.96
34.52
34.10
33.08
31.97
31.22
31.00
31.20
31.48
31.47
30.96
29.88
28.38
26.61
24.64
22.35
19.49
15.87
11.49
6.65
1.88
-2.22
-5.31
-7.38
-8.81
-10.23
-12.36
-15.72
-20.60
-26.81
-33.73
-40.32
-45.30
-47.46
-46.07
-41.08
-33.20
-23.69
-13.97
-5.22
1.92
7.40
11.58
14.99
18.02
20.89
23.55
25.87
27.73
29.09
30.05
30.77
31.44
32.15
32.84
33.29
33.23
32.51
31.19
29.53
27.82
26.15
24.31
21.83
18.22
13.32
7.44
1.20
-4.63
-9.53
-13.37
-16.40
-19.14
-22.14
-25.91
-30.78
-36.88
-43.99
-51.48
-58.40
-63.54
-65.81
-64.49
-59.50
-51.45
-41.50
-31.01
-21.26
-13.04
-6.57
-1.57
2.49
6.10
9.59
12.99
16.21
19.09
21.52
23.41
24.70
25.36
25.41
24.95
24.17
23.31
22.51
21.84
21.17
20.30
18.99
17.04
14.32
10.79
6.51
1.57
-3.85
-9.54
-15.17
-20.30
-24.60
-27.84
-30.16
-32.02
-34.11
-37.09
-41.27
-46.48
-51.96
-56.52
-58.77
-57.56
-52.26
-43.04
-30.85
-17.23
-3.86
7.91
17.42
24.79
30.68
35.97
41.28
46.82
52.39
57.56
61.94
65.35
67.81
69.49
70.49
70.91
70.70
69.85
68.35
66.26
63.54
60.01
55.33
49.13
41.13
31.44
20.52
9.20
-1.62
-11.14
-18.90
-24.68
-28.57
-30.68
-31.18
-30.28
-28.33
-25.86
-23.55
-22.04
-21.73
-22.55
-23.99
-25.16
-25.13
-23.20
-19.14
-13.29
-6.47
0.26
5.83
9.49
10.99
10.65
9.19
7.47
6.22
5.78
6.07
6.72
7.30
7.56
7.56
7.61
8.03
8.97
10.36
11.87
13.15
14.02
14.52
14.87
15.30
15.94
16.66
17.18
17.19
16.46
14.95
12.80
10.26
7.55
4.80
2.00
-0.93
-4.08
-7.52
-11.28
-15.44
-20.17
-25.65
-31.83
-38.30
-44.12
-48.05
-48.93
-46.12
-39.88
-31.25
-21.76
-12.83
-5.37
0.42
4.86
8.56
12.01
15.42
18.78
21.92
24.74
27.21
29.34
31.12
32.45
33.25
33.51
33.41
33.23
33.19
33.30
33.36
33.00
31.93
30.09
27.66
24.95
22.30
19.87
17.68
15.65
13.57
11.22
8.33
4.70
0.26
-4.74
-9.84
-14.42
-18.04
-20.69
-22.80
-25.20
-28.67
-33.58
-39.60
-45.74
-50.62
-52.99
-52.15
-48.17
-41.79
-34.08
-26.06
-18.39
-11.44
-5.29
0.06
4.64
8.53
11.88
14.89
17.76
20.61
23.41
26.09
28.51
30.54
32.10
33.11
33.55
33.47
32.91
31.97
30.65
28.94
26.82
24.33
21.61
18.90
16.47
14.44
12.75
11.10
9.10
6.36
2.74
-1.53
-5.97
-9.95
-13.00
-15.06
-16.48
-17.97
-20.24
-23.82
-28.79
-34.83
-41.21
-46.97
-51.05
-52.54
-50.86
-46.05
-38.75
-30.12
-21.48
-13.87
-7.82
-3.27
0.18
3.06
5.76
8.44
11.12
13.74
16.23
18.48
20.33
21.59
22.18
22.14
21.77
21.48
21.67
22.57
24.11
25.99
27.75
28.92
29.24
28.67
27.43
25.85
24.27
22.89
21.71
20.50
18.99
16.94
14.30
11.21
7.98
4.97
2.49
0.64
-0.76
-2.16
-4.18
-7.40
-11.95
-17.33
-22.40
-25.74
-26.16
-23.21
-17.37
-9.87
-2.23
4.30
9.08
12.11
13.78
14.62
15.00
15.14
15.11
14.92
14.56
13.95
12.94
11.39
9.24
6.62
3.77
1.03
-1.28
-3.01
-4.14
-4.79
-5.11
-5.28
-5.45
-5.78
-6.45
-7.58
-9.18
-11.14
-13.31
-15.53
-17.67
-19.63
-21.36
-22.87
-24.22
-25.54
-27.00
-28.73
-30.69
-32.64
-34.06
-34.34
-32.96
-29.72
-24.89
-19.11
-13.21
-7.91
-3.66
-0.53
1.69
3.28
4.50
5.48
6.26
6.88
7.38
7.85
8.36
8.97
9.72
10.62
11.61
12.53
13.20
13.42
13.14
12.40
11.41
10.37
9.34
8.23
6.80
4.81
2.16
-0.99
-4.33
-7.52
-10.36
-12.82
-15.10
-17.43
-20.07
-23.23
-27.06
-31.61
-36.68
-41.78
-46.03
-48.36
-47.90
-44.31
-38.03
-30.20
-22.20
-15.15
-9.56
-5.28
-1.78
1.50
4.82
8.12
11.08
13.44
15.10
16.17
16.90
17.55
18.28
19.17
20.17
21.18
22.03
22.58
22.65
22.18
21.19
19.77
18.05
16.11
13.96
11.58
8.91
6.01
3.01
0.10
-2.55
-4.89
-7.03
-9.17
-11.59
-14.49
-18.00
-22.08
-26.59
-31.19
-35.45
-38.81
-40.69
-40.60
-38.29
-33.90
-27.90
-21.04
-14.16
-7.90
-2.60
1.75
5.45
8.84
12.12
15.29
18.17
20.51
22.19
23.25
23.89
24.33
24.70
24.99
25.13
25.01
24.64
24.11
23.55
23.06
22.61
22.08
21.30
20.09
18.35
16.03
13.24
10.08
6.75
3.44
0.33
-2.44
-4.77
-6.73
-8.52
-10.45
-12.89
-16.19
-20.50
-25.60
-30.94
-35.61
-38.58
-39.01
-36.53
-31.40
-24.48
-16.98
-10.00
-4.30
-0.09
2.91
5.25
7.46
9.88
12.54
15.24
17.72
19.80
21.45
22.77
23.88
24.82
25.52
25.89
25.89
25.55
25.02
24.48
23.94
23.31
22.39
21.02
19.19
17.05
14.87
12.83
10.95
9.11
7.07
4.59
1.61
-1.80
-5.38
-8.86
-12.01
-14.84
-17.58
-20.65
-24.43
-29.03
-34.02
-38.49
-41.24
-41.27
-38.17
-32.30
-24.66
-16.53
-9.04
-2.88
1.76
5.09
7.48
9.32
10.92
12.41
13.85
15.21
16.52
17.78
19.02
20.22
21.31
22.15
22.64
22.75
22.52
22.11
21.61
21.10
20.57
19.98
19.28
18.43
17.39
16.14
14.66
12.94
10.98
8.83
6.55
4.22
1.95
-0.17
-2.11
-3.89
-5.64
-7.57
-9.91
-12.87
-16.55
-20.84
-25.41
-29.61
-32.64
-33.74
-32.41
-28.66
-23.00
-16.27
-9.47
-3.36
1.62
5.37
8.07
9.99
11.37
12.39
13.17
13.79
14.39
15.10
16.06
17.28
18.76
20.36
21.92
23.27
24.31
24.94
25.14
24.90
24.25
23.23
21.94
20.44
18.79
17.02
15.13
13.11
10.96
8.66
6.22
3.62
0.84
-2.10
-5.15
-8.21
-11.20
-14.11
-17.02
-20.08
-23.31
-26.48
-29.06
-30.36
-29.74
-26.95
-22.26
-16.42
-10.33
-4.79
-0.17
3.48
6.34
8.57
10.14
10.96
10.95
10.27
9.26
8.42
8.11
8.49
9.39
10.41
11.15
11.32
10.89
10.01
8.91
7.77
6.61
5.33
3.75
1.72
-0.72
-3.39
-6.05
-8.53
-10.78
-12.91
-15.10
-17.50
-20.21
-23.28
-26.78
-30.67
-34.81
-38.74
-41.76
-43.06
-41.99
-38.42
-32.81
-26.04
-19.17
-13.02
-7.96
-3.99
-0.79
1.98
4.53
6.90
8.98
10.67
11.93
12.84
13.56
14.25
15.01
15.81
16.48
16.81
16.64
15.93
14.80
13.47
12.14
10.89
9.68
8.31
6.60
4.44
1.97
-0.50
-2.61
-4.10
-5.03
-5.70
-6.61
-8.22
-10.85
-14.55
-19.22
-24.56
-30.11
-35.16
-38.84
-40.23
-38.74
-34.34
-27.71
-20.07
-12.71
-6.58
-2.04
1.13
3.47
5.50
7.51
9.54
11.48
13.24
14.80
16.16
17.36
18.35
19.10
19.57
19.84
20.02
20.21
20.42
20.63
20.68
20.43
19.76
18.62
17.10
15.30
13.37
11.34
9.21
6.86
4.22
1.31
-1.73
-4.70
-7.44
-9.94
-12.36
-15.04
-18.39
-22.67
-27.87
-33.55
-38.88
-42.81
-44.40
-43.12
-39.13
-33.19
-26.44
-19.95
-14.46
-10.16
-6.81
-3.97
-1.33
1.24
3.62
5.63
7.17
8.35
9.56
11.22
13.69
17.04
20.99
24.91
28.08
29.95
30.26
29.17
27.14
24.68
22.18
19.75
17.28
14.58
11.53
8.13
4.51
0.81
-2.91
-6.62
-10.36
-14.15
-18.01
-21.93
-25.96
-30.09
-34.24
-38.14
-41.33
-43.19
-43.19
-40.99
-36.65
-30.62
-23.67
-16.61
-10.10
-4.47
0.26
4.21
7.57
10.43
12.81
14.70
16.14
17.21
18.04
18.77
19.54
20.47
21.61
22.94
24.27
25.36
25.94
25.87
25.18
24.07
22.76
21.37
19.88
18.10
15.87
13.15
10.02
6.72
3.48
0.43
-2.46
-5.28
-8.19
-11.31
-14.78
-18.72
-23.22
-28.29
-33.60
-38.54
-42.17
-43.57
-42.10
-37.72
-31.05
-23.15
-15.21
-8.14
-2.43
1.95
5.30
8.07
10.64
13.26
16.00
18.79
21.42
23.64
25.26
26.20
26.56
26.57
26.50
26.54
26.76
27.07
27.26
27.13
26.53
25.44
23.90
22.06
20.00
17.75
15.28
12.58
9.68
6.70
3.90
1.44
-0.58
-2.25
-3.86
-5.82
-8.46
-11.97
-16.31
-21.15
-25.87
-29.67
-31.67
-31.19
-27.97
-22.33
-15.22
-7.82
-1.27
3.82
7.39
9.84
11.71
13.32
14.73
15.84
16.58
17.09
17.69
18.63
20.01
21.61
23.06
24.03
24.33
24.00
23.24
22.26
21.16
19.95
18.52
16.71
14.40
11.59
8.40
5.09
1.97
-0.68
-2.74
-4.27
-5.57
-7.06
-9.22
-12.45
-16.89
-22.32
-28.08
-33.18
-36.58
-37.49
-35.63
-31.37
-25.57
-19.28
-13.35
-8.31
-4.20
-0.86
1.92
4.26
6.17
7.61
8.62
9.39
10.08
10.84
11.64
12.35
12.80
12.90
12.69
12.33
11.97
11.73
11.62
11.51
11.18
10.38
8.87
6.59
3.72
0.64
-2.20
-4.49
-6.21
-7.70
-9.41
-11.79
-14.99
-18.85
-22.96
-26.70
-29.42
-30.56
-29.75
-26.94
-22.49
-17.04
-11.42
-6.33
-2.18
0.93
3.20
4.94
6.39
7.71
8.97
10.08
10.96
11.42
11.39
10.85
9.94
8.94
8.16
7.83
8.01
8.54
9.07
9.24
8.75
7.47
5.48
3.00
0.32
-2.35
-4.85
-7.15
-9.33
-11.53
-13.94
-16.74
-19.91
-23.20
-26.06
-27.72
-27.52
-25.12
-20.72
-15.01
-8.91
-3.24
1.52
5.32
8.34
10.77
12.69
14.04
14.81
15.10
15.17
15.32
15.72
16.30
16.85
17.09
16.89
16.29
15.47
14.69
14.09
13.66
13.25
12.57
11.35
9.43
6.82
3.75
0.56
-2.39
-4.88
-6.91
-8.64
-10.37
-12.42
-15.03
-18.37
-22.39
-26.84
-31.18
-34.64
-36.40
-35.84
-32.75
-27.50
-20.89
-13.93
-7.55
-2.33
1.55
4.29
6.27
7.97
9.76
11.80
14.00
16.14
17.91
19.12
19.75
20.01
20.10
20.15
20.12
19.87
19.26
18.32
17.21
16.14
15.20
14.29
13.11
11.34
8.85
5.75
2.39
-0.82
-3.59
-5.81
-7.55
-8.98
-10.35
-11.87
-13.82
-16.49
-20.03
-24.36
-29.01
-33.13
-35.75
-36.05
-33.71
-29.07
-22.94
-16.43
-10.50
-5.72
-2.20
0.36
2.49
4.68
7.24
10.25
13.50
16.66
19.39
21.45
22.73
23.26
23.19
22.72
22.09
21.48
21.02
20.68
20.35
19.82
18.91
17.54
15.74
13.66
11.50
9.39
7.45
5.68
4.03
2.42
0.71
-1.21
-3.44
-5.95
-8.60
-11.17
-13.49
-15.51
-17.42
-19.56
-22.28
-25.68
-29.47
-32.99
-35.35
-35.83
-34.09
-30.36
-25.30
-19.77
-14.52
-9.96
-6.13
-2.80
0.31
3.39
6.48
9.46
12.19
14.52
16.39
17.81
18.80
19.39
19.62
19.50
19.07
18.44
17.79
17.30
17.09
17.11
17.07
16.65
15.61
13.94
11.93
9.97
8.38
7.25
6.38
5.41
4.02
2.08
-0.28
-2.78
-5.13
-7.12
-8.68
-9.92
-11.07
-12.44
-14.31
-16.89
-20.20
-24.02
-27.92
-31.24
-33.27
-33.42
-31.41
-27.42
-22.02
-16.04
-10.29
-5.38
-1.58
1.13
3.04
4.59
6.17
8.08
10.38
12.91
15.42
17.60
19.30
20.52
21.29
21.62
21.46
20.76
19.56
18.11
16.77
15.78
15.18
14.68
13.89
12.53
10.52
8.13
5.72
3.59
1.94
0.66
-0.41
-1.47
-2.65
-4.04
-5.72
-7.86
-10.60
-14.03
-18.10
-22.60
-27.29
-31.93
-36.41
-40.56
-44.10
-46.51
-47.17
-45.63
-41.90
-36.49
-30.32
-24.32
-19.15
-14.99
-11.70
-8.99
-6.60
-4.40
-2.31
-0.31
1.68
3.65
5.58
7.42
9.10
10.64
12.04
13.36
14.64
15.86
17.01
18.05
18.95
19.56
19.71
19.21
18.01
16.24
14.20
12.20
10.47
8.98
7.57
5.99
4.10
1.93
-0.32
-2.46
-4.34
-6.05
-7.78
-9.88
-12.59
-15.95
-19.73
-23.35
-26.08
-27.18
-26.21
-23.10
-18.22
-12.23
-5.91
0.05
5.19
9.30
12.43
14.89
17.16
19.75
23.04
27.16
31.90
36.83
41.42
45.18
47.77
48.96
48.61
46.62
42.98
37.75
31.21
23.80
16.04
8.38
1.09
-5.81
-12.53
-19.26
-26.06
-32.69
-38.70
-43.53
-46.76
-48.30
-48.36
-47.39
-45.87
-44.18
-42.61
-41.51
-41.36
-42.72
-45.92
-50.63
-55.62
-58.86
-58.10
-51.69
-39.18
-21.53
-0.75
20.67
40.33
56.26
66.96
71.60
70.18
63.71
54.14
43.92
35.30
29.68
27.38
27.84
30.12
33.26
36.43
38.79
39.42
37.44
32.29
24.11
13.68
2.31
-8.56
-17.70
-24.22
-27.59
-27.62
-24.49
-18.82
-11.63
-4.11
2.56
7.62
10.89
12.71
13.76
14.72
16.14
18.33
21.68
26.79
34.50
45.37
59.05
73.70
86.12
92.63
90.39
78.55
58.53
33.42
6.75
-18.60
-40.85
-59.13
-72.94
-81.75
-85.10
-82.76
-75.12
-63.19
-48.38
-32.11
-15.55
0.49
15.60
29.54
42.17
53.26
62.53
69.73
74.96
78.77
82.16
86.08
90.86
95.76
99.04
98.50
92.23
79.39
60.56
37.60
13.18
-9.94
-29.45
-44.09
-53.78
-59.61
-63.29
-66.56
-70.50
-75.18
-79.66
-82.43
-81.99
-77.42
-68.72
-56.74
-43.01
-29.27
-16.96
-6.94
0.73
6.62
11.61
16.44
21.34
25.99
29.69
31.69
31.54
29.27
25.30
20.41
15.48
11.41
8.90
8.07
8.26
7.71
3.91
-5.69
-22.59
-46.36
-74.25
-101.70
-123.51
-135.33
-134.88
-122.62
-101.59
-76.46
-52.22
-33.02
-21.28
-17.49
-20.54
-28.33
-38.31
-47.87
-54.58
-56.40
-52.14
-41.89
-27.28
-11.20
3.00
12.67
16.74
15.96
12.35
8.26
5.32
4.08
4.12
4.62
4.94
4.91
4.65
4.37
4.21
4.27
4.81
6.34
9.38
14.19
20.51
27.58
34.31
39.73
43.19
44.58
44.26
42.86
41.07
39.43
38.27
37.66
37.55
37.87
38.66
39.99
41.92
44.27
46.67
48.59
49.47
48.78
45.90
40.21
31.16
18.86
4.30
-10.65
-23.58
-32.39
-35.93
-34.44
-29.28
-22.42
-15.76
-10.69
-7.97
-7.91
-10.57
-15.90
-23.60
-32.97
-42.68
-50.89
-55.50
-54.77
-47.69
-34.43
-16.22
4.79
25.87
43.94
56.09
60.06
54.83
41.05
21.00
-1.91
-24.15
-42.74
-55.74
-62.10
-61.58
-54.69
-42.88
-28.53
-14.59
-3.67
2.77
4.81
3.75
1.20
-1.64
-4.25
-6.49
-8.21
-9.01
-8.52
-6.76
-4.27
-1.95
-0.40
0.40
1.13
2.75
6.09
11.53
18.98
27.89
37.29
45.67
51.13
51.68
45.91
33.55
15.66
-5.67
-27.87
-48.42
-65.13
-76.30
-80.88
-78.68
-70.68
-58.89
-46.04
-34.84
-27.37
-24.62
-26.62
-32.75
-42.10
-53.59
-65.92
-77.55
-86.83
-92.32
-93.24
-89.70
-82.67
-73.71
-64.36
-55.74
-48.18
-41.23
-34.06
-25.86
-16.47
-6.52
2.68
9.54
12.97
12.77
9.94
6.20
3.37
2.58
3.90
6.53
9.44
12.20
15.28
19.72
26.44
35.50
45.87
55.93
64.17
69.82
73.09
74.67
75.21
74.93
73.60
70.87
66.78
61.85
56.93
52.78
49.63
46.95
43.59
38.16
29.46
16.88
0.59
-18.38
-38.25
-56.75
-71.51
-80.66
-83.18
-79.27
-70.23
-58.15
-45.30
-33.73
-24.92
-19.81
-18.78
-21.62
-27.37
-34.22
-39.66
-41.13
-36.82
-26.42
-11.38
5.59
21.44
33.83
41.85
45.99
47.64
48.31
49.15
50.76
53.43
57.30
62.40
68.51
74.86
80.17
82.93
81.94
76.78
67.86
56.10
42.35
26.94
9.71
-9.54
-30.58
-52.50
-73.97
-93.74
-111.17
-126.27
-139.45
-150.91
-160.36
-167.06
-170.16
-169.13
-163.87
-154.53
-141.26
-124.14
-103.38
-79.70
-54.41
-29.13
-5.14
17.21
38.50
59.78
81.61
103.39
123.31
138.99
148.43
150.86
146.83
137.76
125.14
109.95
92.57
73.12
52.05
30.31
9.24
-9.81
-25.88
-38.50
-47.54
-52.96
-54.74
-52.86
-47.61
-39.66
-29.95
-19.48
-8.90
1.52
11.88
22.49
33.68
45.77
59.13
74.18
91.29
110.65
131.95
154.08
174.98
191.74
200.96
199.51
185.33
157.91
118.63
70.38
17.11
-36.68
-86.41
-127.80
-157.47
-173.42
-175.67
-166.41
-149.62
-130.23
-112.70
-100.10
-93.43
-91.74
-92.70
-93.42
-91.18
-84.05
-71.32
-53.62
-32.90
-11.97
6.20
19.41
26.94
29.76
30.27
31.28
35.15
42.92
54.38
68.36
83.39
98.03
111.06
121.55
128.93
133.24
135.29
136.47
138.18
141.15
145.10
148.89
151.32
151.73
150.40
148.16
145.64
142.78
138.69
132.28
122.82
110.27
95.21
78.40
60.46
41.78
22.56
2.99
-16.82
-36.72
-56.09
-73.34
-85.66
-89.45
-81.84
-62.42
-34.19
-3.16
23.63
40.76
46.22
41.47
30.03
15.42
-0.40
-17.12
-35.31
-55.12
-75.50
-94.31
-109.11
-118.14
-120.86
-118.03
-111.24
-102.24
-92.33
-82.19
-72.05
-62.16
-53.22
-46.43
-43.09
-44.04
-49.19
-57.30
-66.32
-73.95
-78.20
-77.63
-71.62
-60.30
-44.67
-26.69
-8.98
5.65
15.03
18.41
16.71
12.07
7.00
3.33
1.70
1.80
2.86
4.40
6.33
8.75
11.40
13.58
14.28
12.77
9.07
3.97
-1.37
-6.03
-9.60
-12.18
-14.01
-15.12
-15.26
-14.17
-11.93
-9.02
-6.16
-3.87
-2.02
0.08
3.37
8.41
14.91
21.64
26.82
28.86
26.87
20.99
12.05
1.13
-10.93
-23.41
-35.49
-45.84
-52.61
-53.93
-48.66
-37.19
-21.53
-4.77
10.02
20.64
26.23
26.84
22.90
14.71
2.70
-11.92
-26.74
-38.35
-43.43
-40.28
-29.62
-14.24
2.50
18.24
32.45
45.86
59.18
71.90
82.33
88.68
90.41
88.68
85.89
84.27
84.67
86.29
87.24
85.70
80.70
72.45
61.96
50.54
39.42
29.47
21.23
14.88
10.37
7.65
6.98
9.09
15.05
25.75
41.12
59.58
77.85
91.59
96.35
88.88
68.06
35.30
-5.88
-50.70
-94.13
-131.79
-160.33
-177.71
-183.32
-178.01
-164.08
-144.91
-124.42
-106.18
-92.64
-84.77
-81.99
-82.79
-85.22
-87.55
-88.67
-88.34
-87.14
-86.26
-86.96
-89.89
-94.53
-98.93
-100.25
-95.65
-83.35
-63.34
-37.62
-9.71
16.30
36.79
49.54
54.08
51.57
44.16
34.29
23.98
14.56
6.72
0.60
-4.03
-7.82
-11.76
-16.90
-24.04
-33.18
-43.36
-52.87
-59.88
-63.04
-61.83
-56.51
-47.82
-36.56
-23.51
-9.38
5.10
19.04
31.53
41.71
48.88
52.55
52.62
49.48
44.06
37.71
31.84
27.56
25.33
24.95
25.81
27.25
28.83
30.32
31.51
32.03
31.36
28.97
24.73
19.08
12.93
7.36
3.21
0.77
-0.27
-0.55
-0.83
-1.69
-3.44
-6.06
-9.26
-12.48
-14.97
-16.08
-15.47
-13.41
-10.75
-8.60
-7.89
-8.88
-10.99
-12.94
-13.27
-10.86
-5.31
2.90
12.57
22.25
30.71
37.39
42.52
46.95
51.63
57.08
63.18
69.17
74.09
77.39
79.17
80.29
82.03
85.65
92.03
101.39
113.23
126.06
137.49
144.38
143.49
132.30
110.10
78.44
41.16
3.53
-29.18
-53.15
-67.05
-72.05
-71.01
-67.01
-62.13
-56.93
-50.90
-43.44
-34.80
-26.27
-19.57
-15.82
-14.94
-15.64
-16.32
-15.99
-14.65
-13.07
-11.97
-11.42
-10.69
-8.77
-5.05
0.22
5.90
10.50
12.68
11.87
8.33
3.07
-2.62
-7.56
-11.04
-12.98
-13.81
-14.21
-14.85
-16.11
-18.02
-20.37
-22.87
-25.29
-27.57
-29.78
-32.17
-35.00
-38.46
-42.57
-47.08
-51.55
-55.33
-57.88
-58.78
-57.94
-55.56
-52.07
-47.99
-43.75
-39.55
-35.27
-30.63
-25.35
-19.44
-13.29
-7.61
-3.02
0.32
2.94
5.92
10.40
17.10
25.91
36.07
46.50
56.26
64.72
71.48
76.27
78.62
78.09
74.49
68.08
59.52
49.65
38.99
27.57
14.96
0.58
-15.84
-34.00
-52.88
-70.88
-86.19
-97.20
-102.91
-103.16
-98.64
-90.65
-80.66
-70.03
-59.67
-49.99
-40.95
-32.23
-23.40
-14.07
-4.03
6.65
17.56
28.09
37.43
44.71
49.11
49.91
46.72
39.69
29.74
18.47
7.95
0.08
-3.85
-3.62
-0.01
5.64
11.85
17.58
22.29
25.82
28.03
28.67
27.58
25.00
21.86
19.71
20.12
24.01
31.04
39.62
47.44
52.31
52.81
48.64
40.39
29.22
16.45
3.41
-8.55
-18.08
-23.96
-25.31
-21.88
-14.16
-3.36
8.86
20.86
31.39
39.83
46.16
50.66
53.60
55.10
55.11
53.65
50.97
47.58
44.06
40.77
37.67
34.40
30.52
25.82
20.57
15.45
11.35
9.01
8.79
10.48
13.45
16.76
19.48
20.85
20.47
18.29
14.57
9.76
4.37
-1.17
-6.50
-11.34
-15.52
-18.88
-21.45
-23.28
-24.50
-25.14
-25.12
-24.25
-22.38
-19.57
-16.09
-12.43
-9.01
-6.05
-3.47
-1.04
1.41
3.85
6.05
7.72
8.62
8.66
7.88
6.38
4.37
2.13
0.06
-1.47
-2.29
-2.51
-2.46
-2.62
-3.30
-4.51
-6.09
-7.75
-9.36
-10.95
-12.74
-14.88
-17.39
-20.04
-22.54
-24.55
-25.85
-26.40
-26.28
-25.67
-24.85
-24.10
-23.65
-23.60
-23.88
-24.25
-24.32
-23.69
-22.10
-19.47
-15.98
-11.91
-7.63
-3.41
0.49
3.94
6.82
9.07
10.68
11.68
12.14
12.14
11.80
11.33
10.89
10.61
10.46
10.20
9.48
7.98
5.50
2.18
-1.59
-5.35
-8.79
-11.91
-15.07
-18.70
-23.15
-28.43
-34.22
-40.02
-45.27
-49.50
-52.28
-53.29
-52.35
-49.55
-45.40
-40.73
-36.51
-33.55
-32.04
-31.59
-31.38
-30.53
-28.41
-24.80
-19.88
-14.07
-7.86
-1.75
3.88
8.82
13.07
16.84
20.44
24.04
27.64
30.96
33.60
35.33
36.12
36.26
36.17
36.20
36.46
36.77
36.67
35.52
32.73
27.95
21.15
12.79
3.71
-5.05
-12.49
-17.94
-21.23
-22.66
-22.87
-22.51
-22.11
-21.90
-21.90
-22.14
-22.79
-24.18
-26.82
-31.20
-37.67
-46.25
-56.49
-67.42
-77.52
-84.98
-88.12
-85.97
-78.64
-67.33
-53.94
-40.46
-28.29
-18.07
-9.73
-2.85
2.91
7.75
11.65
14.66
16.93
18.77
20.54
22.50
24.73
27.06
29.23
30.95
32.03
32.54
32.68
32.73
32.86
33.01
32.93
32.29
30.91
28.85
26.41
24.05
22.15
20.91
20.17
19.56
18.63
17.00
14.60
11.61
8.35
5.24
2.55
0.52
-0.68
-0.82
0.39
3.07
7.08
11.88
16.74
20.93
24.06
26.13
27.37
28.06
28.24
27.72
26.16
23.37
19.36
14.33
8.60
2.48
-3.74
-9.81
-15.42
-20.22
-23.79
-25.87
-26.39
-25.56
-23.77
-21.48
-19.03
-16.54
-13.96
-11.22
-8.36
-5.70
-3.67
-2.68
-2.89
-4.09
-5.84
-7.71
-9.48
-11.27
-13.40
-16.09
-19.28
-22.52
-25.07
-26.19
-25.41
-22.74
-18.58
-13.61
-8.51
-3.75
0.46
4.14
7.37
10.26
12.82
15.03
16.88
18.37
19.59
20.64
21.59
22.51
23.42
24.29
25.08
25.66
25.95
25.92
25.71
25.49
25.45
25.64
25.87
25.77
25.03
23.53
21.50
19.46
17.97
17.32
17.38
17.61
17.30
15.89
13.20
9.45
5.18
0.96
-2.66
-5.25
-6.51
-6.18
-4.22
-0.75
3.72
8.48
12.72
15.79
17.38
17.58
16.80
15.53
14.21
13.10
12.35
11.98
11.97
12.32
12.89
13.48
13.67
13.04
11.30
8.42
4.59
0.13
-4.65
-9.59
-14.62
-19.77
-25.06
-30.44
-35.80
-40.93
-45.59
-49.47
-52.34
-54.08
-54.80
-54.91
-55.01
-55.81
-57.87
-61.51
-66.55
-72.34
-77.79
-81.61
-82.62
-79.98
-73.50
-63.53
-50.90
-36.64
-21.73
-6.93
7.24
20.45
32.43
42.85
51.34
57.52
61.30
62.94
63.15
62.90
63.04
64.08
66.01
68.36
70.39
71.39
70.87
68.69
65.09
60.56
55.74
51.06
46.62
42.07
36.82
30.28
22.21
12.97
3.47
-5.00
-11.19
-14.13
-13.29
-8.57
-0.23
11.23
24.99
39.97
54.87
68.43
79.64
87.97
93.25
95.51
94.72
90.76
83.60
73.60
61.69
49.17
37.28
26.85
18.07
10.73
4.55
-0.62
-4.79
-8.09
-11.03
-14.40
-18.94
-24.98
-32.23
-39.96
-47.38
-54.03
-59.85
-64.99
-69.50
-73.17
-75.55
-76.35
-75.62
-73.93
-72.21
-71.56
-72.90
-76.76
-83.11
-91.12
-99.24
-105.41
-107.57
-104.25
-95.01
-80.57
-62.53
-42.88
-23.40
-5.31
10.83
24.91
36.88
46.52
53.21
56.20
54.86
49.16
39.84
28.34
16.33
5.23
-4.29
-12.35
-19.64
-26.89
-34.45
-41.98
-48.45
-52.55
-53.17
-50.04
-43.99
-36.77
-30.43
-26.54
-25.45
-26.24
-27.12
-26.24
-22.44
-15.63
-6.67
3.08
12.41
20.59
27.50
33.43
38.68
43.39
47.51
50.85
53.36
55.27
56.97
58.85
61.04
63.32
65.17
66.07
65.83
64.73
63.56
63.23
64.46
67.41
71.59
76.03
79.64
81.58
81.50
79.61
76.50
72.95
69.63
66.91
64.70
62.48
59.39
54.55
47.35
37.73
26.33
14.22
2.65
-7.37
-15.29
-21.03
-24.85
-27.12
-28.25
-28.64
-28.70
-28.84
-29.48
-30.94
-33.39
-36.87
-41.26
-46.22
-51.29
-55.88
-59.42
-61.59
-62.42
-62.36
-62.07
-62.07
-62.46
-62.82
-62.32
-60.07
-55.51
-48.53
-39.52
-29.12
-18.10
-7.15
3.11
12.22
19.90
26.09
31.04
35.15
38.90
42.62
46.49
50.41
54.15
57.35
59.71
61.18
62.24
63.90
67.51
74.27
84.68
98.20
113.25
127.55
138.61
144.13
142.25
131.71
112.23
84.77
51.75
16.75
-16.36
-44.50
-66.10
-81.06
-89.87
-92.55
-88.07
-74.86
-52.01
-20.51
16.39
53.92
87.37
113.47
131.14
141.06
144.88
144.14
139.87
132.53
122.38
109.72
95.02
78.70
61.05
42.22
22.41
2.07
-17.86
-36.12
-51.40
-62.75
-69.90
-73.42
-74.34
-73.89
-73.07
-72.64
-73.04
-74.80
-78.34
-83.93
-91.69
-101.36
-112.39
-123.80
-134.41
-142.97
-148.71
-151.75
-153.41
-155.90
-161.41
-171.20
-184.60
-199.05
-210.56
-214.97
-209.05
-191.40
-162.77
-125.80
-84.43
-42.98
-5.25
26.23
50.49
67.91
79.64
86.95
91.04
92.77
92.86
91.94
90.33
87.95
84.22
78.32
69.61
58.06
44.47
30.28
17.27
6.91
0.02
-3.51
-4.67
-5.00
-6.05
-8.87
-13.60
-19.44
-24.98
-28.77
-29.95
-28.62
-25.78
-22.88
-21.27
-21.48
-23.03
-24.62
-24.70
-22.27
-17.44
-11.40
-5.86
-2.18
-0.65
-0.36
0.28
2.58
6.78
11.73
15.33
15.56
11.50
3.99
-4.58
-11.11
-12.86
-8.42
1.94
16.41
32.16
45.94
54.74
56.30
49.72
35.89
17.41
-2.04
-18.87
-30.83
-37.55
-40.22
-40.62
-39.90
-37.87
-33.25
-24.33
-9.85
10.38
35.22
62.26
88.08
108.86
121.24
123.22
114.77
97.58
74.33
47.77
20.31
-5.80
-28.00
-43.44
-49.82
-46.74
-36.67
-24.51
-15.78
-14.34
-20.64
-31.85
-43.57
-52.01
-55.55
-54.94
-52.30
-49.58
-47.64
-46.12
-43.98
-40.49
-35.73
-30.75
-27.11
-26.23
-28.75
-34.32
-41.68
-49.28
-55.82
-60.70
-63.93
-65.89
-66.96
-67.36
-67.11
-66.26
-64.99
-63.49
-61.83
-60.02
-57.98
-55.79
-53.77
-52.42
-52.17
-53.26
-55.59
-58.86
-62.70
-66.72
-70.45
-73.12
-73.68
-70.82
-63.34
-50.59
-32.81
-11.25
12.14
34.98
55.07
70.56
80.30
83.86
81.60
74.73
65.37
56.19
49.90
48.34
51.74
58.56
65.97
70.96
71.49
67.26
59.64
50.88
43.05
37.17
33.03
29.57
25.56
20.30
13.85
6.92
0.60
-3.80
-4.95
-1.52
7.34
21.50
39.32
57.75
73.15
82.66
85.38
82.72
77.74
73.81
73.31
77.11
84.80
95.25
107.15
119.06
129.15
135.23
135.18
127.87
113.79
95.05
74.69
55.48
39.01
25.60
14.64
5.45
-2.30
-8.43
-12.67
-14.92
-15.39
-14.44
-12.42
-9.57
-6.18
-2.71
0.13
1.53
0.89
-1.95
-6.61
-12.36
-18.42
-24.21
-29.51
-34.46
-39.48
-45.02
-51.33
-58.22
-65.04
-70.83
-74.54
-75.47
-73.50
-69.14
-63.53
-58.09
-54.25
-52.96
-54.46
-58.17
-63.01
-67.86
-72.07
-75.78
-79.79
-85.11
-92.46
-101.87
-112.58
-123.35
-132.66
-138.94
-140.67
-136.57
-125.92
-109.01
-87.44
-63.85
-41.32
-22.38
-8.27
1.14
7.01
10.64
13.02
14.53
15.14
14.77
13.48
11.63
9.76
8.57
8.71
10.79
15.02
21.22
28.70
36.40
43.29
48.76
52.82
56.06
59.32
63.12
67.39
71.34
73.70
73.14
68.74
60.29
48.35
34.02
18.74
3.90
-9.28
-19.92
-27.43
-31.57
-32.42
-30.30
-25.67
-18.96
-10.56
-0.76
10.17
21.97
34.12
45.72
55.41
61.70
63.41
60.27
53.17
43.91
34.43
26.16
19.66
14.82
11.47
9.79
10.38
14.00
20.99
31.13
43.64
57.29
70.33
80.51
85.24
82.19
70.09
49.35
22.01
-8.73
-39.39
-66.80
-88.43
-102.40
-107.63
-103.96
-92.47
-75.19
-54.60
-32.90
-11.38
9.57
30.02
49.90
68.79
85.74
99.51
108.77
112.32
109.35
99.78
84.58
65.84
46.27
28.30
13.11
0.36
-11.56
-24.43
-39.13
-55.22
-71.18
-85.25
-96.15
-103.39
-107.08
-107.51
-104.76
-98.84
-89.94
-78.67
-66.06
-53.22
-40.97
-29.63
-19.18
-9.43
-0.31
8.02
15.28
21.11
25.26
27.67
28.52
28.22
27.42
26.84
27.25
29.32
33.56
40.21
49.11
59.61
70.64
80.87
89.10
94.65
97.52
98.28
97.81
96.95
96.15
95.27
93.66
90.31
84.31
75.09
62.76
48.09
32.40
17.18
3.74
-7.15
-15.31
-21.01
-24.76
-27.05
-28.27
-28.70
-28.57
-28.13
-27.57
-26.95
-26.12
-24.67
-22.05
-17.81
-12.00
-5.24
1.25
6.07
8.00
6.67
2.68
-2.32
-6.13
-6.67
-2.61
6.11
18.39
32.30
45.59
56.21
62.57
63.64
59.01
48.88
34.07
15.93
-3.73
-22.91
-39.64
-52.26
-59.70
-61.75
-59.16
-53.58
-47.18
-42.01
-39.25
-38.91
-39.95
-40.86
-40.49
-38.54
-35.79
-33.73
-34.22
-39.02
-49.47
-66.22
-88.72
-114.91
-141.24
-163.17
-176.46
-178.34
-168.28
-147.89
-120.18
-88.61
-56.53
-26.96
-2.70
13.89
21.45
20.26
12.44
1.41
-9.24
-16.96
-20.85
-21.60
-20.61
-19.36
-18.81
-19.47
-21.49
-24.91
-29.55
-34.86
-39.87
-43.17
-43.34
-39.34
-30.91
-18.60
-3.73
12.03
27.02
39.95
50.29
58.28
64.95
71.67
79.67
89.42
100.41
111.16
119.75
124.50
124.62
120.48
113.44
105.24
97.38
90.74
85.41
81.02
77.14
73.59
70.41
67.86
66.19
65.51
65.84
67.08
68.92
70.60
70.81
68.06
61.29
50.48
36.85
22.41
9.05
-2.27
-11.74
-20.32
-29.00
-38.15
-47.44
-56.24
-64.13
-71.16
-77.74
-84.18
-90.26
-95.18
-97.78
-97.06
-92.59
-84.75
-74.69
-63.99
-54.00
-45.62
-39.01
-33.89
-29.87
-26.69
-24.45
-23.48
-24.26
-27.39
-33.55
-43.54
-57.99
-76.90
-99.16
-122.29
-142.81
-157.00
-161.92
-155.97
-138.97
-111.67
-75.53
-32.81
12.81
55.69
88.42
103.35
95.03
62.65
11.24
-49.35
-106.98
-150.64
-172.91
-171.04
-146.53
-103.92
-49.62
9.00
64.30
109.36
139.22
152.00
149.49
136.50
119.36
103.79
93.32
88.55
87.58
87.20
84.28
77.07
65.65
51.75
37.85
26.21
18.00
13.21
10.95
10.11
9.86
9.78
9.71
9.28
7.88
4.77
-0.52
-7.81
-16.21
-24.42
-31.27
-36.17
-39.35
-41.71
-44.35
-48.10
-53.18
-59.10
-64.80
-69.04
-70.62
-68.74
-63.08
-53.85
-41.77
-27.87
-13.28
1.06
14.53
26.91
38.21
48.44
57.46
64.84
70.01
72.33
71.29
66.73
58.81
48.10
35.43
21.82
8.21
-4.65
-16.33
-26.75
-36.08
-44.59
-52.53
-59.93
-66.64
-72.29
-76.44
-78.52
-78.08
-74.86
-69.03
-61.24
-52.64
-44.56
-38.05
-33.50
-30.51
-28.01
-24.79
-19.86
-12.85
-3.92
6.39
17.49
28.82
39.92
50.41
60.00
68.52
75.98
82.50
88.22
93.24
97.54
101.08
103.83
105.90
107.39
108.34
108.57
107.67
105.05
100.13
92.55
82.38
70.18
56.87
43.55
31.26
20.65
11.89
4.64
-1.77
-8.10
-14.87
-22.33
-30.35
-38.54
-46.27
-52.81
-57.42
-59.45
-58.45
-54.32
-47.30
-37.97
-27.01
-15.19
-3.17
8.46
19.11
28.21
35.26
39.94
42.29
42.81
42.37
41.97
42.39
43.91
46.19
48.47
50.08
50.73
50.81
51.09
52.28
54.52
57.24
59.28
59.34
56.42
50.01
40.13
27.20
11.78
-5.33
-23.30
-41.19
-58.25
-73.93
-87.92
-100.02
-109.92
-117.15
-121.15
-121.54
-118.29
-111.81
-102.85
-92.23
-80.57
-68.23
-55.26
-41.66
-27.52
-13.17
0.79
13.62
24.63
33.34
39.61
43.59
45.60
46.01
45.13
43.25
40.70
37.91
35.41
33.67
32.98
33.27
34.07
34.59
33.99
31.65
27.40
21.61
14.97
8.28
2.06
-3.58
-8.97
-14.62
-21.00
-28.32
-36.29
-44.25
-51.16
-55.88
-57.33
-54.86
-48.39
-38.47
-26.20
-12.81
0.59
13.31
25.06
35.82
45.53
54.00
60.90
65.87
68.78
69.73
69.04
67.14
64.44
61.25
57.79
54.25
50.74
47.33
44.01
40.75
37.47
34.11
30.57
26.80
22.71
18.22
13.26
7.77
1.82
-4.48
-10.89
-17.16
-23.11
-28.71
-34.13
-39.72
-45.89
-53.00
-61.09
-69.76
-78.15
-85.03
-89.13
-89.49
-85.77
-78.49
-68.83
-58.34
-48.41
-39.96
-33.39
-28.71
-25.88
-24.99
-26.10
-29.12
-33.56
-38.50
-42.90
-45.98
-47.45
-47.60
-46.92
-45.76
-44.04
-41.21
-36.38
-28.73
-17.86
-4.13
11.29
26.54
39.48
48.25
51.90
50.62
45.64
38.71
31.30
24.13
16.87
8.37
-3.00
-18.67
-39.06
-62.80
-86.35
-104.49
-111.48
-103.00
-77.70
-38.10
10.06
59.34
102.75
135.41
155.28
162.97
160.90
152.41
140.89
129.20
119.27
111.90
106.96
103.73
101.30
98.77
95.39
90.69
84.66
77.93
71.86
68.22
68.57
73.44
81.77
90.87
97.24
97.73
90.86
77.28
59.69
41.67
26.38
15.36
8.25
3.18
-2.13
-9.32
-18.77
-29.79
-41.11
-51.55
-60.32
-66.93
-70.99
-71.90
-69.08
-62.25
-51.72
-38.54
-24.37
-11.01
0.04
7.95
12.66
14.74
15.16
14.87
14.62
14.68
14.92
14.98
14.42
12.96
10.54
7.35
3.83
0.55
-1.93
-3.22
-3.14
-1.84
0.25
2.52
4.38
5.42
5.53
4.95
4.21
3.98
4.84
7.09
10.55
14.73
18.96
22.75
25.97
28.84
31.81
35.33
39.80
45.54
52.76
61.62
71.99
83.36
94.83
105.25
113.61
119.36
122.61
124.04
124.63
125.35
126.85
129.21
131.98
134.29
135.12
133.79
130.15
124.63
118.03
111.23
104.78
98.80
93.02
86.91
79.94
71.72
62.17
51.50
40.25
29.16
19.01
10.43
3.68
-1.35
-5.04
-7.83
-9.97
-11.33
-11.47
-9.83
-6.03
-0.14
7.21
14.90
21.69
26.38
28.18
26.80
22.43
15.64
7.19
-2.13
-11.82
-21.81
-32.68
-45.48
-61.44
-81.52
-105.94
-134.03
-164.54
-196.08
-227.85
-260.20
-294.72
-333.81
-379.62
-432.74
-491.34
-551.17
-606.48
-651.66
-682.83
-698.65
-700.16
-689.87
-670.59
-644.72
-614.07
-580.07
-544.11
-507.46
-471.15
-435.64
-400.79
-366.13
-331.23
-296.02
-260.93
-226.90
-194.94
-165.87
-140.03
-117.20
-96.80
-78.15
-60.77
-44.59
-29.88
-17.13
-6.74
1.14
6.71
10.49
13.14
15.33
17.50
19.81
22.22
24.50
26.44
27.98
29.34
30.98
33.49
37.42
43.06
50.32
58.77
67.81
76.90
85.85
94.85
104.43
115.16
127.38
140.95
155.31
169.77
183.73
197.00
209.84
222.80
236.57
251.85
269.35
289.66
312.76
337.46
361.08
379.90
390.22
389.87
379.08
360.39
337.56
314.05
291.87
271.39
251.97
232.82
213.76
195.06
177.10
159.88
142.97
125.88
108.68
92.24
78.04
67.69
61.96
60.39
61.28
62.41
61.99
59.38
55.25
50.99
47.91
46.54
46.44
46.63
46.09
44.23
41.08
37.10
32.97
29.37
26.72
25.19
24.57
24.37
23.98
22.93
21.10
18.78
16.43
14.41
12.67
10.84
8.32
4.67
-0.20
-6.04
-12.39
-18.79
-24.86
-30.28
-34.62
-37.34
-37.90
-35.98
-31.72
-25.74
-19.02
-12.57
-7.08
-2.80
0.43
2.93
4.94
6.59
7.82
8.52
8.60
7.99
6.63
4.49
1.67
-1.54
-4.67
-7.12
-8.36
-8.04
-5.96
-2.16
3.16
9.53
16.20
22.17
26.43
28.23
27.28
23.65
17.58
9.35
-0.72
-11.87
-22.62
-30.80
-34.15
-31.17
-21.93
-8.17
7.32
21.81
33.57
42.24
48.49
53.28
57.25
60.57
63.10
64.83
66.04
67.15
68.33
69.22
68.87
66.11
60.09
50.74
38.94
26.32
14.73
5.75
0.17
-2.10
-1.93
-0.62
0.57
0.78
-0.19
-2.07
-4.33
-6.64
-9.11
-12.21
-16.47
-22.07
-28.53
-34.77
-39.51
-41.67
-40.80
-37.19
-31.65
-25.19
-18.71
-12.76
-7.60
-3.22
0.42
3.38
5.61
7.04
7.57
7.23
6.13
4.49
2.59
0.73
-0.84
-2.02
-2.82
-3.32
-3.65
-3.82
-3.73
-3.14
-1.87
0.13
2.59
5.03
6.87
7.64
7.14
5.38
2.53
-1.26
-5.82
-10.92
-16.17
-20.96
-24.58
-26.39
-26.00
-23.29
-18.40
-11.53
-2.84
7.59
19.64
33.00
47.16
61.42
75.26
88.58
101.96
116.55
133.67
154.26
178.32
204.67
230.98
254.28
271.58
280.68
280.73
272.33
257.22
237.46
214.73
189.82
162.66
132.94
100.80
67.17
33.58
1.47
-28.53
-57.10
-85.99
-117.17
-152.05
-190.60
-231.06
-269.95
-302.48
-323.29
-327.45
-311.84
-276.44
-224.96
-164.26
-102.72
-47.76
-3.98
27.59
48.77
62.54
71.62
77.54
80.98
82.35
82.26
81.44
80.17
77.85
72.85
63.07
46.84
23.90
-4.21
-34.15
-61.66
-82.77
-95.05
-98.45
-95.20
-88.88
-83.06
-80.03
-80.30
-83.00
-86.72
-90.37
-93.60
-96.50
-99.15
-101.14
-101.57
-99.47
-94.38
-86.68
-77.62
-68.72
-61.21
-55.58
-51.52
-48.22
-44.84
-40.97
-36.72
-32.65
-29.37
-27.32
-26.59
-26.87
-27.67
-28.41
-28.63
-28.12
-27.08
-26.05
-25.70
-26.54
-28.52
-31.00
-33.03
-33.78
-32.94
-30.82
-28.08
-25.36
-23.09
-21.37
-20.18
-19.41
-18.95
-18.45
-17.31
-14.78
-10.21
-3.39
5.35
15.17
25.02
34.04
41.68
47.84
52.77
56.96
60.90
64.90
69.04
73.06
76.54
79.01
80.19
79.98
78.49
75.86
72.18
67.47
61.81
55.40
48.62
41.90
35.55
29.67
24.07
18.45
12.56
6.30
-0.22
-6.70
-12.77
-18.09
-22.38
-25.43
-27.16
-27.54
-26.52
-24.02
-19.98
-14.48
-7.96
-1.06
5.38
10.72
14.66
17.29
18.93
19.90
20.38
20.44
20.15
19.71
19.48
19.79
20.77
22.28
23.91
25.16
25.60
25.05
23.48
21.03
17.86
14.14
10.07
5.88
1.80
-2.10
-6.06
-10.58
-16.16
-23.04
-30.84
-38.58
-45.04
-49.29
-51.21
-51.61
-51.92
-53.50
-57.03
-62.18
-67.83
-72.67
-75.81
-77.26
-77.85
-78.72
-80.93
-85.00
-91.03
-98.72
-107.33
-115.45
-120.96
-121.42
-114.94
-101.24
-82.22
-61.66
-44.02
-32.80
-29.44
-32.87
-40.32
-48.34
-53.89
-54.92
-50.34
-39.74
-23.02
-0.43
26.97
56.51
83.55
102.05
106.54
94.56
68.47
35.25
4.06
-17.31
-25.41
-21.84
-11.56
0.05
9.75
17.16
23.65
30.44
37.37
42.93
45.33
43.79
39.03
33.07
28.02
25.18
24.52
24.87
24.64
22.66
18.63
13.18
7.42
2.39
-1.38
-4.09
-6.45
-9.36
-13.55
-19.28
-26.27
-33.77
-40.77
-46.26
-49.49
-50.09
-48.17
-44.14
-38.58
-32.08
-25.07
-17.93
-10.96
-4.41
1.54
6.81
11.45
15.60
19.37
22.81
25.82
28.21
29.78
30.48
30.35
29.63
28.59
27.50
26.52
25.69
24.92
24.05
22.90
21.30
19.16
16.49
13.37
9.95
6.37
2.74
-0.98
-4.89
-9.26
-14.31
-20.19
-26.75
-33.44
-39.41
-43.60
-45.13
-43.54
-38.97
-32.13
-24.00
-15.57
-7.53
-0.25
6.20
11.92
17.00
21.53
25.56
29.13
32.26
34.93
37.09
38.65
39.53
39.74
39.33
38.52
37.54
36.68
36.13
35.94
36.03
36.08
35.72
34.52
32.15
28.45
23.56
17.87
11.99
6.52
1.90
-1.83
-4.98
-8.12
-11.86
-16.59
-22.27
-28.43
-34.18
-38.49
-40.45
-39.49
-35.62
-29.32
-21.45
-12.99
-4.74
2.82
9.53
15.47
20.77
25.47
29.53
32.82
35.25
36.80
37.61
37.92
38.01
38.14
38.42
38.86
39.27
39.48
39.28
38.62
37.50
35.97
34.00
31.48
28.24
24.19
19.40
14.24
9.21
4.75
1.06
-2.02
-4.93
-8.22
-12.32
-17.41
-23.35
-29.63
-35.49
-39.99
-42.18
-41.42
-37.54
-30.99
-22.67
-13.73
-5.16
2.37
8.61
13.57
17.36
20.10
21.88
22.80
23.08
23.02
22.92
22.98
23.26
23.63
23.95
24.14
24.17
24.12
24.04
23.83
23.30
22.21
20.39
17.85
14.77
11.44
8.11
4.88
1.71
-1.59
-5.25
-9.52
-14.50
-20.04
-25.65
-30.51
-33.60
-34.07
-31.52
-26.23
-19.08
-11.24
-3.78
2.61
7.69
11.61
14.62
16.96
18.74
19.95
20.56
20.55
19.94
18.77
17.21
15.49
13.89
12.66
11.94
11.68
11.62
11.44
10.78
9.47
7.47
4.96
2.20
-0.53
-3.12
-5.61
-8.26
-11.40
-15.34
-20.21
-25.81
-31.58
-36.66
-40.05
-40.99
-39.09
-34.50
-27.88
-20.13
-12.21
-4.87
1.38
6.36
10.09
12.78
14.66
16.00
16.96
17.58
17.86
17.73
17.18
16.31
15.29
14.32
13.50
12.83
12.12
11.19
9.83
7.94
5.57
2.82
-0.17
-3.31
-6.58
-9.98
-13.55
-17.30
-21.28
-25.54
-30.07
-34.71
-39.04
-42.39
-43.96
-43.08
-39.50
-33.52
-25.98
-17.96
-10.44
-4.04
1.08
5.14
8.46
11.25
13.56
15.25
16.19
16.34
15.89
15.10
14.26
13.58
13.10
12.78
12.52
12.19
11.72
11.01
9.96
8.48
6.52
4.10
1.31
-1.71
-4.86
-8.09
-11.51
-15.28
-19.62
-24.66
-30.33
-36.24
-41.65
-45.60
-47.14
-45.65
-41.11
-34.16
-25.86
-17.39
-9.68
-3.18
2.12
6.46
10.11
13.22
15.83
17.93
19.53
20.70
21.49
21.92
21.99
21.69
21.03
20.03
18.78
17.40
16.00
14.67
13.39
12.01
10.30
8.04
5.16
1.81
-1.70
-5.04
-8.02
-10.69
-13.31
-16.24
-19.79
-24.14
-29.22
-34.69
-39.96
-44.21
-46.56
-46.34
-43.31
-37.81
-30.64
-22.85
-15.37
-8.78
-3.27
1.32
5.27
8.84
12.15
15.18
17.82
19.96
21.51
22.52
23.08
23.35
23.45
23.41
23.23
22.88
22.40
21.87
21.40
20.97
20.45
19.56
18.02
15.65
12.45
8.66
4.57
0.51
-3.33
-6.91
-10.39
-14.00
-18.05
-22.79
-28.26
-34.23
-40.10
-45.02
-48.04
-48.41
-45.79
-40.40
-32.97
-24.50
-15.97
-8.10
-1.24
4.53
9.34
13.29
16.52
19.08
21.08
22.66
23.94
25.04
26.02
26.84
27.39
27.55
27.26
26.51
25.40
24.07
22.69
21.39
20.23
19.15
17.98
16.46
14.41
11.73
8.50
4.97
1.42
-1.93
-5.01
-7.94
-10.91
-14.16
-17.87
-22.17
-27.08
-32.41
-37.72
-42.26
-45.17
-45.66
-43.30
-38.25
-31.16
-23.02
-14.85
-7.42
-1.08
4.17
8.63
12.65
16.47
20.16
23.63
26.60
28.83
30.17
30.66
30.55
30.15
29.74
29.46
29.27
29.02
28.50
27.56
26.16
24.35
22.25
20.03
17.80
15.63
13.48
11.26
8.85
6.18
3.24
0.10
-3.10
-6.29
-9.41
-12.54
-15.80
-19.36
-23.36
-27.82
-32.55
-37.11
-40.91
-43.23
-43.48
-41.37
-36.99
-30.85
-23.75
-16.54
-9.89
-4.22
0.40
4.17
7.37
10.27
12.99
15.51
17.74
19.59
20.99
22.01
22.70
23.15
23.40
23.46
23.37
23.19
23.04
23.01
23.13
23.31
23.38
23.12
22.38
21.05
19.12
16.66
13.76
10.49
6.96
3.28
-0.38
-3.86
-7.05
-9.97
-12.81
-15.84
-19.40
-23.71
-28.74
-34.16
-39.29
-43.25
-45.21
-44.62
-41.37
-35.83
-28.76
-21.03
-13.46
-6.61
-0.76
4.09
8.11
11.52
14.49
17.11
19.34
21.12
22.35
23.05
23.28
23.22
23.02
22.82
22.68
22.64
22.63
22.56
22.29
21.71
20.73
19.36
17.67
15.79
13.83
11.84
9.84
7.75
5.48
2.97
0.22
-2.67
-5.52
-8.13
-10.44
-12.55
-14.74
-17.45
-21.02
-25.52
-30.62
-35.58
-39.46
-41.34
-40.65
-37.28
-31.63
-24.45
-16.68
-9.13
-2.42
3.17
7.65
11.22
14.17
16.78
19.23
21.61
23.89
25.95
27.61
28.71
29.15
29.00
28.44
27.79
27.37
27.32
27.62
28.01
28.15
27.75
26.70
25.12
23.32
21.65
20.31
19.24
18.16
16.67
14.46
11.51
8.14
4.82
1.97
-0.24
-2.01
-3.83
-6.32
-10.06
-15.37
-22.18
-29.91
-37.49
-43.51
-46.65
-46.17
-42.36
-36.57
-30.93
-27.56
-27.84
-31.87
-38.40
-45.27
-50.21
-51.53
-48.67
-42.21
-33.60
-24.50
-16.28
-9.66
-4.73
-1.19
1.29
2.91
3.76
3.96
3.80
3.74
4.13
5.09
6.38
7.52
8.06
7.81
6.97
6.07
5.75
6.56
8.74
12.08
16.00
19.70
22.53
24.14
24.73
24.92
25.58
27.48
31.08
36.42
43.16
50.76
58.64
66.30
73.33
79.40
84.19
87.35
88.61
87.86
85.27
81.31
76.63
71.77
66.94
61.93
56.23
49.39
41.16
31.75
21.60
11.20
0.86
-9.41
-19.81
-30.62
-41.91
-53.41
-64.47
-74.09
-81.12
-84.53
-83.74
-78.86
-70.75
-60.83
-50.74
-41.84
-34.83
-29.70
-25.71
-21.85
-17.17
-11.17
-3.97
3.72
10.91
16.53
19.76
20.25
18.09
13.80
8.29
2.69
-1.69
-3.65
-2.37
2.28
9.55
17.86
25.21
29.62
29.59
24.39
14.09
-0.60
-18.60
-38.56
-59.07
-78.78
-96.52
-111.50
-123.49
-132.72
-139.71
-144.91
-148.54
-150.45
-150.29
-147.70
-142.53
-134.91
-125.20
-113.91
-101.67
-89.10
-76.82
-65.36
-55.06
-45.94
-37.75
-30.07
-22.54
-14.98
-7.50
-0.48
5.62
10.48
13.98
16.34
18.04
19.72
21.96
25.15
29.32
34.17
39.14
43.58
46.98
49.06
49.85
49.56
48.56
47.20
45.70
44.17
42.47
40.24
36.90
31.83
24.49
14.75
2.97
-9.98
-22.85
-34.27
-42.91
-47.78
-48.26
-44.17
-35.84
-24.06
-10.03
4.78
18.86
30.96
40.31
46.74
50.57
52.44
53.01
52.81
52.15
51.18
50.05
48.92
48.00
47.39
47.01
46.59
45.81
44.42
42.43
40.14
38.01
36.40
35.41
34.82
34.16
32.95
30.88
27.92
24.18
19.82
14.90
9.51
3.85
-1.61
-6.15
-9.10
-10.14
-9.55
-8.16
-7.01
-6.99
-8.50
-11.39
-15.10
-18.90
-22.08
-24.12
-24.75
-23.94
-21.93
-19.18
-16.29
-13.92
-12.74
-13.37
-16.35
-22.08
-30.59
-41.38
-53.24
-64.29
-72.40
-75.70
-73.20
-65.12
-52.86
-38.52
-24.15
-11.17
-0.13
9.05
16.59
22.51
26.50
28.21
27.54
24.76
20.46
15.09
8.87
1.75
-6.19
-14.33
-21.42
-25.92
-26.59
-23.15
-16.40
-7.90
0.73
8.48
15.16
21.18
27.03
32.81
38.20
42.70
45.98
48.13
49.56
50.64
51.54
52.09
52.04
51.28
50.03
48.69
47.65
47.01
46.56
45.96
44.90
43.29
41.29
39.11
36.86
34.44
31.68
28.41
24.64
20.55
16.35
12.10
7.63
2.57
-3.46
-10.61
-18.71
-27.27
-35.62
-43.02
-48.70
-51.98
-52.22
-49.07
-42.64
-33.70
-23.66
-14.24
-7.02
-2.88
-1.79
-2.87
-4.82
-6.40
-6.80
-5.78
-3.56
-0.63
2.54
5.58
8.24
10.37
11.95
13.03
13.78
14.43
15.18
16.15
17.34
18.67
20.02
21.23
22.18
22.73
22.80
22.34
21.39
20.06
18.48
16.80
15.17
13.69
12.42
11.33
10.30
9.07
7.32
4.68
0.84
-4.37
-10.88
-18.27
-25.80
-32.38
-36.81
-38.09
-35.74
-29.88
-21.25
-10.85
0.29
11.32
21.48
30.00
36.03
38.79
37.90
33.69
27.19
19.80
12.83
7.06
2.73
-0.30
-2.24
-3.11
-2.83
-1.48
0.61
2.81
4.52
5.47
5.84
6.12
6.75
7.78
8.80
9.16
8.31
6.13
2.97
-0.49
-3.65
-6.19
-8.17
-9.91
-11.81
-14.07
-16.70
-19.54
-22.36
-24.98
-27.41
-29.75
-32.21
-34.85
-37.48
-39.60
-40.54
-39.70
-36.82
-32.13
-26.36
-20.45
-15.28
-11.39
-8.86
-7.43
-6.61
-5.93
-5.05
-3.89
-2.56
-1.32
-0.45
-0.13
-0.33
-0.77
-1.06
-0.83
0.11
1.74
3.80
5.95
7.95
9.75
11.46
13.34
15.67
18.63
22.32
26.71
31.69
37.00
42.38
47.60
52.79
58.38
64.94
72.81
81.60
90.06
96.29
98.35
95.03
86.33
73.50
58.63
43.86
30.84
20.33
12.20
5.69
-0.24
-6.57
-13.88
-22.21
-31.02
-39.36
-46.20
-50.79
-52.87
-52.71
-50.99
-48.44
-45.74
-43.37
-41.65
-40.81
-40.92
-41.86
-43.21
-44.37
-44.69
-43.79
-41.76
-39.08
