1520877118.00
64.000000
-0.00
-0.00
-0.00
-0.00
-0.00
-0.00
-0.00
-0.00
-0.00
-0.00
0.00
0.01
0.01
-0.00
-0.03
-0.05
-0.05
0.00
0.13
0.36
0.66
1.01
1.37
1.72
2.06
2.40
2.79
3.24
3.80
4.42
5.06
5.66
6.20
6.68
7.15
7.68
8.31
9.14
10.09
11.04
11.88
12.56
13.14
13.76
14.65
15.96
17.91
20.32
22.90
25.38
27.58
29.57
31.68
34.32
37.81
42.54
48.15
54.10
59.83
64.97
69.58
74.14
79.34
85.71
93.76
103.00
112.62
121.73
129.77
136.75
143.30
150.75
157.77
166.64
177.95
191.79
206.97
220.57
228.25
225.36
208.53
176.87
132.76
80.05
23.07
-34.94
-92.44
-149.16
-205.23
-260.37
-313.74
-363.87
-409.83
-450.91
-486.50
-515.74
-537.23
-549.22
-549.96
-538.37
-514.21
-478.67
-433.88
-382.45
-327.02
-269.84
-212.63
-156.66
-102.95
-52.37
-5.90
35.58
71.43
101.35
125.50
144.38
158.69
169.15
176.37
180.75
182.57
182.07
179.51
175.23
169.65
163.18
156.15
148.81
141.30
133.69
126.02
118.33
110.69
103.16
95.80
88.68
81.83
75.25
68.95
62.95
57.25
51.86
46.78
42.03
37.59
33.45
29.61
26.07
22.81
19.83
17.11
14.67
12.48
10.54
8.83
7.35
6.07
4.97
4.05
3.27
2.62
2.09
1.65
1.30
1.01
0.79
0.61
0.48
0.38
0.30
0.25
0.22
0.20
0.20
0.21
0.23
0.25
0.29
0.32
0.36
0.40
0.45
0.50
0.54
0.59
0.65
0.70
0.76
0.83
0.90
0.97
1.06
1.15
1.25
1.37
1.50
1.65
1.81
2.00
2.20
2.43
2.68
2.96
3.26
3.59
3.96
4.36
4.80
5.27
5.78
6.33
6.92
7.55
8.23
8.95
9.72
10.53
11.39
12.29
13.23
14.24
15.30
16.43
17.63
18.87
20.15
21.44
22.65
23.72
24.54
25.00
24.96
24.32
23.01
20.97
18.23
14.84
10.90
6.59
2.09
-2.39
-6.63
-10.45
-13.69
-16.25
-18.08
-19.18
-19.56
-19.33
-18.58
-17.43
-15.99
-14.35
-12.60
-10.77
-8.90
-6.98
-5.06
-3.12
-1.17
0.81
2.82
4.88
6.99
9.16
11.48
13.87
16.30
18.82
21.42
24.11
26.89
29.78
32.83
36.18
39.68
43.32
47.10
51.05
55.18
59.46
63.89
68.53
73.58
78.81
84.18
89.73
95.45
101.26
107.00
112.51
117.73
122.87
127.56
131.77
135.49
138.50
140.26
139.84
135.88
126.49
114.43
100.67
86.08
71.39
56.96
42.71
28.22
12.93
-3.45
-20.66
-38.67
-56.92
-74.82
-92.06
-108.74
-125.30
-142.38
-160.66
-180.75
-203.56
-229.15
-256.31
-282.30
-303.27
-315.35
-316.09
-305.42
-285.65
-260.94
-235.30
-211.45
-190.46
-172.24
-156.31
-142.42
-130.52
-120.28
-110.92
-101.02
-89.10
-74.37
-57.14
-38.70
-20.93
-5.37
7.23
17.02
24.90
31.92
38.82
45.80
52.48
58.27
62.60
65.26
66.41
66.50
66.11
65.67
65.37
65.18
64.89
64.24
63.01
61.08
58.44
55.18
51.45
47.45
43.33
39.22
35.13
31.03
26.89
22.69
18.50
14.40
10.43
6.57
2.73
-1.22
-5.43
-9.98
-14.94
-20.29
-25.87
-31.32
-36.02
-39.16
-39.93
-37.86
-32.95
-25.78
-17.34
-8.70
-0.67
6.33
12.29
17.43
21.96
25.99
29.50
32.42
34.68
36.25
37.16
37.45
37.17
36.42
35.39
34.32
33.50
33.08
33.08
33.28
33.35
32.95
31.87
30.07
27.65
24.84
21.85
18.89
16.11
13.57
11.21
8.83
6.14
2.90
-0.96
-5.21
-9.44
-13.18
-16.19
-18.53
-20.63
-23.07
-26.34
-30.65
-35.76
-41.00
-45.44
-48.09
-48.19
-45.39
-39.87
-32.26
-23.46
-14.42
-5.94
1.47
7.60
12.49
16.33
19.37
21.85
24.00
26.00
27.91
29.69
31.21
32.29
32.80
32.71
32.13
31.25
30.30
29.49
28.88
28.41
27.90
27.11
25.85
23.98
21.55
18.75
15.81
12.96
10.28
7.71
5.12
2.37
-0.58
-3.63
-6.61
-9.35
-11.80
-14.01
-16.17
-18.50
-21.17
-24.37
-28.22
-32.76
-37.83
-42.97
-47.40
-50.10
-50.14
-47.04
-40.97
-32.71
-23.42
-14.22
-5.92
1.10
6.79
11.31
14.88
17.71
20.02
22.00
23.78
25.39
26.72
27.65
28.11
28.15
27.95
27.73
27.70
27.90
28.28
28.69
28.94
28.88
28.36
27.24
25.47
23.08
20.28
17.36
14.66
12.36
10.44
8.68
6.71
4.23
1.15
-2.42
-6.22
-9.92
-13.31
-16.31
-18.99
-21.59
-24.43
-27.85
-32.06
-36.99
-42.15
-46.73
-49.71
-50.23
-47.80
-42.50
-34.99
-26.38
-17.87
-10.40
-4.44
0.06
3.53
6.49
9.25
11.81
13.95
15.43
16.18
16.37
16.37
16.53
17.04
17.93
19.08
20.32
21.49
22.46
23.14
23.40
23.15
22.35
20.98
19.11
16.84
14.35
11.77
9.16
6.52
3.76
0.87
-2.12
-5.07
-7.86
-10.51
-13.16
-16.10
-19.59
-23.77
-28.56
-33.64
-38.46
-42.26
-44.23
-43.70
-40.36
-34.48
-26.84
-18.55
-10.69
-3.96
1.40
5.49
8.55
10.73
12.06
12.62
12.62
12.41
12.41
12.83
13.64
14.57
15.28
15.56
15.42
15.05
14.66
14.38
14.18
13.91
13.40
12.47
10.97
8.80
5.96
2.57
-1.06
-4.64
-7.88
-10.74
-13.41
-16.20
-19.44
-23.31
-27.75
-32.42
-36.74
-40.05
-41.60
-40.85
-37.55
-31.94
-24.63
-16.53
-8.55
-1.37
4.60
9.24
12.63
14.84
16.01
16.31
15.96
15.20
14.38
13.76
13.55
13.83
14.53
15.41
16.17
16.58
16.53
16.13
15.56
14.94
14.17
12.97
11.01
8.09
4.36
0.18
-3.93
-7.60
-10.70
-13.40
-16.07
-19.17
-23.04
-27.75
-32.99
-38.03
-41.80
-43.27
-41.76
-37.22
-30.30
-21.99
-13.39
-5.25
2.05
8.38
13.73
18.02
21.16
23.12
24.06
24.31
24.33
24.50
24.96
25.61
26.15
26.27
25.85
25.02
24.12
23.45
23.11
22.84
22.12
20.44
17.53
13.55
8.94
4.22
-0.22
-4.20
-7.74
-10.94
-13.99
-17.10
-20.58
-24.75
-29.78
-35.47
-41.18
-45.85
-48.35
-47.77
-43.80
-36.78
-27.63
-17.56
-7.74
0.98
8.23
14.09
18.83
22.76
26.00
28.51
30.24
31.22
31.62
31.74
31.81
31.96
32.09
32.02
31.55
30.59
29.19
27.48
25.62
23.72
21.78
19.69
17.26
14.26
10.60
6.38
1.94
-2.32
-6.06
-9.20
-11.97
-14.84
-18.34
-22.89
-28.65
-35.43
-42.60
-49.24
-54.19
-56.36
-55.06
-50.16
-42.23
-32.34
-21.79
-11.76
-3.00
4.21
10.06
14.95
19.32
23.42
27.24
30.61
33.29
35.16
36.23
36.69
36.76
36.57
36.12
35.39
34.36
33.15
31.97
30.95
30.10
29.19
27.90
25.88
22.98
19.26
14.95
10.39
5.87
1.59
-2.36
-5.94
-9.20
-12.25
-15.24
-18.44
-22.11
-26.47
-31.67
-37.70
-44.27
-50.86
-56.63
-60.55
-61.63
-59.24
-53.36
-44.66
-34.29
-23.54
-13.45
-4.53
3.23
10.08
16.31
21.97
26.91
30.94
33.92
35.95
37.23
37.98
38.32
38.28
37.90
37.25
36.48
35.82
35.43
35.36
35.49
35.51
35.00
33.64
31.29
28.08
24.41
20.75
17.46
14.64
12.13
9.55
6.53
2.86
-1.42
-6.08
-10.77
-15.20
-19.19
-22.75
-26.11
-29.61
-33.69
-38.69
-44.76
-51.68
-58.80
-65.08
-69.28
-70.24
-67.24
-60.32
-50.29
-38.50
-26.52
-15.58
-6.36
1.09
7.17
12.43
17.29
21.93
26.25
30.05
33.14
35.45
37.03
38.04
38.65
39.02
39.25
39.34
39.31
39.11
38.76
38.26
37.62
36.78
35.64
34.05
31.85
28.99
25.57
21.84
18.12
14.67
11.63
8.90
6.22
3.29
-0.10
-4.02
-8.29
-12.59
-16.63
-20.26
-23.53
-26.68
-30.03
-33.90
-38.53
-43.96
-50.05
-56.34
-61.99
-65.89
-66.91
-64.25
-57.81
-48.27
-36.92
-25.28
-14.55
-5.43
2.03
8.18
13.51
18.34
22.70
26.48
29.49
31.71
33.32
34.63
35.95
37.41
38.89
40.15
40.99
41.33
41.26
40.94
40.49
39.88
39.00
37.66
35.76
33.25
30.20
26.75
23.12
19.52
16.16
13.12
10.40
7.81
5.13
2.12
-1.35
-5.25
-9.41
-13.61
-17.63
-21.33
-24.80
-28.21
-31.89
-36.16
-41.23
-47.04
-53.19
-58.92
-63.22
-65.05
-63.67
-58.82
-50.91
-40.84
-29.81
-18.95
-9.13
-0.81
5.92
11.19
15.29
18.50
21.11
23.40
25.56
27.72
29.83
31.72
33.19
34.09
34.44
34.43
34.36
34.47
34.83
35.27
35.55
35.39
34.65
33.31
31.41
29.04
26.26
23.13
19.79
16.39
13.11
10.10
7.45
5.05
2.67
0.04
-3.09
-6.78
-10.83
-14.90
-18.66
-21.93
-24.79
-27.59
-30.83
-34.89
-39.92
-45.65
-51.43
-56.29
-59.17
-59.17
-55.84
-49.29
-40.24
-29.81
-19.29
-9.78
-1.97
3.95
8.22
11.35
13.86
16.16
18.45
20.75
22.97
25.04
26.87
28.42
29.62
30.40
30.74
30.67
30.31
29.81
29.34
28.93
28.50
27.83
26.68
24.85
22.31
19.24
15.94
12.73
9.80
7.17
4.60
1.80
-1.45
-5.18
-9.24
-13.32
-17.12
-20.45
-23.29
-25.85
-28.44
-31.49
-35.36
-40.18
-45.65
-50.98
-55.10
-56.80
-55.28
-50.29
-42.35
-32.47
-21.92
-11.85
-3.07
3.99
9.26
12.90
15.15
16.31
16.68
16.59
16.29
16.06
16.08
16.45
17.14
18.03
18.86
19.40
19.47
19.02
18.19
17.21
16.26
15.43
14.64
13.61
12.05
9.74
6.62
2.83
-1.38
-5.75
-10.01
-13.99
-17.55
-20.62
-23.25
-25.62
-28.10
-31.18
-35.16
-40.09
-45.48
-50.43
-53.76
-54.41
-51.75
-45.79
-37.25
-27.27
-17.15
-7.98
-0.40
5.44
9.70
12.71
14.73
15.93
16.42
16.37
16.04
15.73
15.73
16.08
16.62
17.06
17.14
16.75
16.05
15.26
14.56
13.94
13.15
11.85
9.77
6.83
3.25
-0.63
-4.46
-8.02
-11.28
-14.36
-17.51
-21.00
-25.12
-30.04
-35.67
-41.57
-46.91
-50.64
-51.77
-49.75
-44.60
-36.97
-27.90
-18.49
-9.63
-1.83
4.72
10.08
14.42
17.84
20.37
21.96
22.63
22.57
22.09
21.64
21.54
21.86
22.44
22.95
23.11
22.85
22.30
21.61
20.82
19.73
18.02
15.40
11.83
7.54
2.98
-1.42
-5.37
-8.87
-12.15
-15.65
-19.85
-25.07
-31.32
-38.08
-44.41
-49.00
-50.64
-48.62
-43.00
-34.57
-24.60
-14.39
-4.91
3.34
10.25
15.98
20.73
24.64
27.83
30.37
32.32
33.82
34.93
35.80
36.48
37.03
37.46
37.74
37.76
37.45
36.71
35.50
33.78
31.50
28.53
24.77
20.16
14.81
9.04
3.33
-1.83
-6.18
-9.80
-13.10
-16.67
-21.09
-26.72
-33.47
-40.82
-47.79
-53.14
-55.64
-54.42
-49.26
-40.74
-30.04
-18.66
-7.91
1.37
8.93
14.98
19.96
24.28
28.17
31.66
34.71
37.21
39.13
40.47
41.30
41.67
41.63
41.27
40.68
39.97
39.15
38.16
36.85
35.06
32.74
29.96
26.83
23.40
19.57
15.21
10.20
4.65
-1.10
-6.64
-11.65
-16.05
-20.04
-24.05
-28.54
-33.90
-40.27
-47.42
-54.66
-60.92
-64.91
-65.54
-62.26
-55.28
-45.52
-34.33
-23.00
-12.51
-3.33
4.44
10.93
16.41
21.12
25.24
28.91
32.15
34.93
37.17
38.80
39.81
40.23
40.14
39.72
39.15
38.64
38.30
38.13
37.90
37.22
35.76
33.32
30.01
26.17
22.19
18.34
14.64
10.91
6.93
2.55
-2.19
-7.11
-11.98
-16.67
-21.12
-25.41
-29.71
-34.22
-39.21
-44.97
-51.60
-58.89
-66.07
-71.92
-74.99
-74.12
-68.82
-59.59
-47.73
-34.90
-22.66
-11.93
-2.98
4.45
10.85
16.59
21.85
26.56
30.62
33.99
36.74
39.04
41.02
42.73
44.14
45.15
45.66
45.69
45.32
44.73
44.04
43.26
42.27
40.85
38.75
35.80
32.05
27.73
23.18
18.76
14.63
10.73
6.86
2.72
-1.84
-6.76
-11.77
-16.52
-20.76
-24.46
-27.83
-31.23
-35.11
-39.87
-45.78
-52.83
-60.69
-68.53
-75.14
-79.12
-79.31
-75.15
-66.94
-55.78
-43.18
-30.63
-19.17
-9.21
-0.62
7.06
14.27
21.22
27.82
33.76
38.71
42.42
44.94
46.51
47.49
48.16
48.64
48.88
48.81
48.39
47.70
46.89
46.02
45.07
43.85
42.13
39.76
36.72
33.14
29.27
25.37
21.66
18.22
15.06
12.02
8.93
5.63
2.00
-1.98
-6.25
-10.67
-15.06
-19.28
-23.27
-27.08
-30.87
-34.88
-39.44
-44.83
-51.13
-58.07
-64.92
-70.54
-73.64
-73.16
-68.63
-60.41
-49.59
-37.67
-26.04
-15.64
-6.83
0.54
6.82
12.35
17.36
21.95
26.16
30.00
33.41
36.33
38.66
40.34
41.37
41.88
42.02
41.92
41.70
41.40
41.03
40.56
39.90
38.99
37.71
35.93
33.61
30.76
27.51
24.03
20.52
17.13
13.99
11.05
8.19
5.18
1.76
-2.22
-6.74
-11.61
-16.54
-21.23
-25.50
-29.36
-32.94
-36.56
-40.57
-45.31
-50.92
-57.22
-63.54
-68.84
-71.89
-71.59
-67.40
-59.52
-48.82
-36.63
-24.35
-13.07
-3.41
4.47
10.84
16.09
20.57
24.55
28.09
31.18
33.80
35.97
37.76
39.22
40.40
41.28
41.88
42.22
42.38
42.39
42.23
41.82
41.04
39.79
38.03
35.74
32.92
29.54
25.61
21.23
16.57
11.89
7.42
3.31
-0.46
-4.05
-7.65
-11.40
-15.36
-19.48
-23.60
-27.56
-31.20
-34.42
-37.25
-39.83
-42.41
-45.34
-48.98
-53.55
-58.99
-64.81
-70.07
-73.57
-74.12
-70.99
-64.11
-54.23
-42.64
-30.78
-19.83
-10.47
-2.78
3.49
8.72
13.19
16.99
20.09
22.42
23.96
24.81
25.21
25.45
25.80
26.40
27.20
28.06
28.72
29.03
28.86
28.23
27.14
25.63
23.67
21.28
18.52
15.53
12.47
9.49
6.66
3.93
1.19
-1.71
-4.86
-8.25
-11.77
-15.23
-18.43
-21.33
-24.17
-27.37
-31.43
-36.57
-42.44
-48.04
-51.93
-52.76
-49.78
-43.18
-34.00
-23.70
-13.65
-4.72
2.80
8.96
13.91
17.68
20.16
21.31
21.29
20.49
19.48
18.73
18.55
18.94
19.71
20.56
21.23
21.54
21.41
20.88
20.02
18.92
17.55
15.81
13.47
10.35
6.39
1.84
-2.88
-7.23
-10.81
-13.60
-15.93
-18.32
-21.39
-25.49
-30.71
-36.81
-43.20
-49.01
-53.12
-54.43
-52.16
-46.22
-37.29
-26.69
-15.97
-6.41
1.31
7.10
11.19
13.94
15.57
16.28
16.32
16.07
15.94
16.23
16.94
17.85
18.62
19.01
18.96
18.57
18.02
17.39
16.62
15.51
13.84
11.42
8.23
4.39
0.11
-4.27
-8.41
-12.14
-15.45
-18.58
-21.98
-26.15
-31.42
-37.79
-44.72
-51.20
-55.92
-57.68
-55.71
-49.95
-41.11
-30.47
-19.47
-9.33
-0.74
6.17
11.68
16.25
20.20
23.61
26.42
28.52
29.90
30.68
31.08
31.29
31.44
31.52
31.55
31.51
31.42
31.32
31.15
30.69
29.59
27.44
23.95
19.10
13.27
7.11
1.29
-3.77
-8.09
-12.10
-16.51
-21.97
-28.85
-37.03
-45.91
-54.41
-61.17
-64.86
-64.45
-59.63
-50.89
-39.46
-26.96
-14.89
-4.25
4.63
11.95
18.18
23.71
28.64
32.84
36.11
38.37
39.74
40.52
41.07
41.60
42.13
42.51
42.54
42.08
41.16
39.90
38.44
36.82
34.84
32.19
28.47
23.51
17.43
10.73
4.13
-1.71
-6.46
-10.31
-13.89
-18.07
-23.63
-31.00
-40.05
-50.05
-59.73
-67.51
-71.85
-71.66
-66.61
-57.27
-44.99
-31.46
-18.29
-6.59
3.18
11.14
17.73
23.48
28.75
33.72
38.33
42.40
45.72
48.11
49.50
49.99
49.80
49.24
48.62
48.15
47.91
47.80
47.58
46.89
45.38
42.74
38.87
33.95
28.42
22.85
17.80
13.53
9.95
6.65
3.08
-1.20
-6.31
-12.06
-18.02
-23.76
-29.01
-33.83
-38.60
-43.90
-50.31
-58.11
-67.06
-76.27
-84.30
-89.51
-90.50
-86.60
-78.08
-66.07
-52.14
-37.94
-24.65
-12.89
-2.73
6.16
14.21
21.81
29.14
36.21
42.80
48.59
53.22
56.48
58.36
59.12
59.16
58.98
58.89
59.00
59.18
59.17
58.66
57.47
55.50
52.76
49.29
45.15
40.46
35.37
30.17
25.16
20.59
16.56
12.92
9.32
5.27
0.37
-5.52
-12.17
-19.11
-25.73
-31.62
-36.72
-41.36
-46.17
-51.81
-58.73
-67.06
-76.42
-85.92
-94.22
-99.79
-101.21
-97.62
-89.04
-76.43
-61.43
-45.90
-31.38
-18.75
-8.11
0.99
9.26
17.29
25.34
33.31
40.82
47.45
52.84
56.86
59.54
61.02
61.53
61.32
60.72
60.01
59.50
59.29
59.29
59.24
58.73
57.39
54.91
51.17
46.26
40.51
34.38
28.40
22.97
18.18
13.86
9.56
4.86
-0.57
-6.75
-13.45
-20.27
-26.80
-32.78
-38.16
-43.19
-48.36
-54.31
-61.53
-70.08
-79.37
-88.10
-94.64
-97.42
-95.50
-88.86
-78.36
-65.43
-51.62
-38.13
-25.63
-14.34
-4.18
5.09
13.65
21.59
28.90
35.45
41.03
45.51
48.89
51.32
53.12
54.56
55.80
56.84
57.55
57.80
57.55
56.85
55.78
54.39
52.58
50.20
47.11
43.27
38.81
33.99
29.13
24.48
20.16
16.10
12.09
7.86
3.18
-2.02
-7.62
-13.37
-18.95
-24.13
-28.91
-33.51
-38.32
-43.82
-50.36
-58.00
-66.40
-74.74
-81.81
-86.23
-86.75
-82.70
-74.20
-62.16
-48.09
-33.58
-19.92
-7.81
2.63
11.66
19.64
26.84
33.35
39.10
43.94
47.75
50.54
52.49
53.89
55.05
56.12
57.10
57.85
58.17
57.98
57.31
56.25
54.85
53.07
50.73
47.64
43.75
39.19
34.26
29.35
24.74
20.56
16.75
13.06
9.15
4.70
-0.46
-6.28
-12.46
-18.53
-24.10
-28.92
-33.13
-37.14
-41.53
-46.86
-53.48
-61.27
-69.63
-77.44
-83.25
-85.58
-83.37
-76.35
-65.18
-51.31
-36.53
-22.52
-10.34
-0.33
7.79
14.53
20.36
25.52
30.05
33.90
37.09
39.77
42.10
44.17
45.87
47.02
47.45
47.16
46.35
45.31
44.30
43.31
42.14
40.43
37.92
34.52
30.37
25.83
21.25
16.94
12.97
9.28
5.66
1.86
-2.30
-6.82
-11.52
-16.14
-20.39
-24.13
-27.43
-30.57
-33.94
-37.92
-42.85
-48.85
-55.75
-62.91
-69.31
-73.59
-74.47
-71.15
-63.68
-52.94
-40.47
-27.89
-16.45
-6.82
0.98
7.20
12.18
16.11
19.03
20.98
22.07
22.60
23.01
23.76
25.12
27.07
29.21
30.91
31.62
31.06
29.39
27.08
24.69
22.47
20.31
17.76
14.33
9.83
4.45
-1.25
-6.68
-11.40
-15.34
-18.68
-21.71
-24.69
-27.87
-31.51
-35.94
-41.39
-47.76
-54.41
-60.10
-63.33
-62.89
-58.35
-50.20
-39.69
-28.32
-17.34
-7.51
0.84
7.64
12.87
16.52
18.66
19.51
19.48
19.05
18.61
18.38
18.44
18.71
19.10
19.48
19.74
19.75
19.39
18.53
17.03
14.73
11.51
7.38
2.53
-2.63
-7.60
-11.97
-15.52
-18.44
-21.15
-24.24
-28.25
-33.52
-40.05
-47.43
-54.79
-60.90
-64.40
-64.17
-59.69
-51.29
-40.11
-27.73
-15.68
-5.05
3.81
11.05
17.14
22.49
27.26
31.36
34.63
36.92
38.24
38.79
38.89
38.84
38.86
38.98
39.07
38.90
38.29
37.14
35.43
33.15
30.20
26.34
21.30
14.95
7.41
-0.80
-8.99
-16.48
-22.87
-28.18
-32.82
-37.45
-42.82
-49.50
-57.72
-67.10
-76.65
-84.74
-89.58
-89.67
-84.30
-73.83
-59.61
-43.53
-27.39
-12.49
0.62
12.02
22.06
31.02
39.00
45.85
51.36
55.39
57.98
59.32
59.74
59.63
59.31
59.04
58.87
58.71
58.29
57.29
55.41
52.50
48.61
43.99
38.97
33.83
28.65
23.34
17.73
11.64
5.12
-1.64
-8.38
-14.87
-21.05
-27.01
-33.05
-39.49
-46.66
-54.82
-63.97
-73.71
-83.09
-90.68
-94.81
-94.03
-87.64
-76.01
-60.51
-43.10
-25.74
-9.86
3.85
15.39
25.10
33.39
40.52
46.64
51.83
56.24
60.02
63.23
65.86
67.76
68.78
68.89
68.24
67.10
65.75
64.40
63.11
61.72
60.00
57.68
54.55
50.52
45.68
40.26
34.60
29.00
23.57
18.29
12.91
7.16
0.85
-6.01
-13.13
-20.12
-26.61
-32.45
-37.74
-42.82
-48.14
-54.21
-61.41
-69.88
-79.26
-88.58
-96.27
-100.48
-99.61
-92.91
-80.76
-64.71
-46.89
-29.35
-13.50
0.10
11.64
21.67
30.73
39.13
46.86
53.73
59.55
64.21
67.78
70.40
72.20
73.20
73.37
72.76
71.52
69.98
68.48
67.20
66.03
64.60
62.46
59.26
54.89
49.51
43.43
37.12
30.98
25.33
20.40
16.18
12.44
8.83
4.90
0.34
-4.97
-10.91
-17.14
-23.23
-28.85
-33.88
-38.53
-43.30
-48.81
-55.56
-63.74
-72.99
-82.35
-90.44
-95.69
-96.81
-93.09
-84.67
-72.53
-58.24
-43.48
-29.63
-17.53
-7.39
0.98
7.95
13.84
18.87
23.12
26.64
29.47
31.68
33.31
34.43
35.11
35.41
35.45
35.31
35.07
34.69
34.12
33.22
31.89
30.04
27.64
24.74
21.42
17.86
14.19
10.49
6.72
2.72
-1.66
-6.43
-11.48
-16.47
-21.09
-25.18
-28.80
-32.32
-36.28
-41.21
-47.43
-54.75
-62.41
-69.15
-73.40
-73.75
-69.42
-60.52
-48.07
-33.80
-19.55
-6.85
3.49
11.34
17.09
21.30
24.40
26.63
28.01
28.64
28.70
28.55
28.54
28.86
29.47
30.11
30.48
30.36
29.73
28.61
27.16
25.42
23.40
20.98
17.98
14.22
9.57
4.14
-1.75
-7.59
-12.89
-17.30
-20.83
-23.86
-26.99
-30.85
-35.96
-42.52
-50.36
-58.79
-66.66
-72.49
-74.76
-72.37
-65.02
-53.38
-38.97
-23.69
-9.36
2.75
12.13
18.89
23.58
26.81
29.03
30.49
31.28
31.50
31.30
30.93
30.68
30.68
30.91
31.19
31.28
31.00
30.26
29.12
27.63
25.88
23.83
21.41
18.48
14.93
10.68
5.77
0.38
-5.19
-10.58
-15.51
-19.85
-23.71
-27.40
-31.39
-36.17
-42.18
-49.55
-57.99
-66.64
-74.07
-78.59
-78.71
-73.64
-63.63
-49.97
-34.57
-19.40
-5.90
5.26
14.10
21.07
26.69
31.33
35.20
38.45
41.21
43.62
45.75
47.56
48.91
49.68
49.83
49.48
48.85
48.18
47.59
47.07
46.42
45.35
43.55
40.77
36.94
32.14
26.69
21.03
15.53
10.39
5.56
0.73
-4.48
-10.28
-16.60
-23.06
-29.19
-34.69
-39.67
-44.68
-50.47
-57.60
-66.11
-75.26
-83.63
-89.50
-91.34
-88.25
-80.24
-68.26
-53.84
-38.73
-24.42
-11.88
-1.38
7.27
14.56
20.96
26.81
32.25
37.27
41.78
45.69
48.93
51.45
53.24
54.36
54.91
55.05
54.92
54.59
54.10
53.40
52.36
50.75
48.29
44.78
40.18
34.73
28.93
23.38
18.50
14.40
10.78
7.14
2.97
-2.00
-7.71
-13.87
-20.08
-26.02
-31.51
-36.51
-41.22
-45.97
-51.26
-57.53
-65.02
-73.46
-81.97
-89.01
-92.85
-92.02
-85.86
-74.86
-60.43
-44.59
-29.22
-15.67
-4.45
4.66
12.22
18.90
25.09
30.92
36.25
40.87
44.63
47.54
49.74
51.43
52.78
53.78
54.35
54.36
53.80
52.82
51.65
50.45
49.22
47.76
45.78
43.06
39.58
35.56
31.35
27.29
23.59
20.26
17.12
13.89
10.26
6.05
1.25
-3.88
-8.97
-13.71
-17.95
-21.84
-25.67
-29.79
-34.42
-39.69
-45.73
-52.59
-60.12
-67.68
-74.09
-77.72
-77.04
-71.29
-60.80
-47.02
-31.97
-17.56
-5.05
5.12
13.13
19.35
24.09
27.51
29.72
30.98
31.67
32.27
33.16
34.51
36.29
38.23
40.03
41.37
42.10
42.20
41.85
41.24
40.56
39.76
38.63
36.79
33.97
30.12
25.52
20.62
15.89
11.51
7.36
3.07
-1.70
-7.05
-12.75
-18.29
-23.13
-27.01
-30.12
-33.03
-36.51
-41.20
-47.36
-54.72
-62.44
-69.28
-73.85
-74.93
-71.81
-64.48
-53.72
-40.95
-27.82
-15.76
-5.70
2.11
7.93
12.23
15.39
17.58
18.76
18.95
18.39
17.58
17.16
17.60
18.94
20.82
22.62
23.73
23.90
23.21
21.98
20.50
18.87
16.93
14.41
11.08
6.92
2.10
-3.04
-8.06
-12.59
-16.45
-19.71
-22.73
-26.00
-29.99
-34.99
-41.01
-47.73
-54.44
-60.23
-63.96
-64.60
-61.43
-54.36
-44.09
-31.93
-19.50
-8.26
0.85
7.51
11.93
14.48
15.57
15.54
14.71
13.46
12.27
11.58
11.64
12.43
13.65
14.87
15.75
16.16
16.21
16.11
15.91
15.42
14.20
11.79
7.95
2.85
-2.91
-8.58
-13.52
-17.49
-20.70
-23.80
-27.53
-32.56
-39.11
-46.83
-54.74
-61.42
-65.32
-65.18
-60.46
-51.50
-39.44
-25.84
-12.22
0.26
11.03
19.99
27.34
33.30
37.99
41.44
43.65
44.78
45.19
45.31
45.56
46.08
46.79
47.44
47.85
47.98
48.01
48.05
48.03
47.58
46.10
43.04
38.15
31.61
24.03
16.24
9.00
2.76
-2.46
-7.11
-11.93
-17.70
-24.97
-33.81
-43.61
-53.10
-60.63
-64.52
-63.60
-57.57
-47.16
-33.92
-19.77
-6.43
5.05
14.40
21.97
28.27
33.69
38.27
41.83
44.10
45.01
44.75
43.79
42.68
41.81
41.36
41.16
40.86
40.12
38.72
36.68
34.20
31.51
28.73
25.77
22.42
18.41
13.63
8.12
2.13
-4.02
-10.06
-15.80
-21.21
-26.38
-31.52
-36.91
-42.94
-49.98
-58.26
-67.56
-77.05
-85.25
-90.36
-90.79
-85.75
-75.59
-61.68
-45.96
-30.25
-15.83
-3.22
7.68
17.22
25.72
33.30
39.96
45.62
50.20
53.72
56.26
57.94
58.92
59.32
59.21
58.68
57.77
56.62
55.31
53.91
52.36
50.46
47.88
44.33
39.69
34.14
28.10
22.11
16.60
11.70
7.22
2.73
-2.25
-7.96
-14.29
-20.81
-26.90
-32.17
-36.58
-40.60
-45.03
-50.77
-58.40
-67.94
-78.65
-89.07
-97.34
-101.62
-100.63
-94.01
-82.47
-67.55
-51.18
-35.15
-20.65
-8.15
2.46
11.62
19.78
27.27
34.17
40.42
45.89
50.47
54.13
56.87
58.78
59.95
60.45
60.38
59.84
58.92
57.76
56.42
54.91
53.18
51.12
48.59
45.45
41.60
37.04
31.90
26.40
20.89
15.66
10.92
6.62
2.47
-1.91
-6.87
-12.51
-18.64
-24.83
-30.63
-35.81
-40.46
-45.00
-50.02
-56.08
-63.49
-72.08
-81.12
-89.34
-95.08
-96.73
-93.27
-84.60
-71.69
-56.26
-40.24
-25.14
-11.83
-0.43
9.35
17.91
25.57
32.47
38.66
44.13
48.85
52.75
55.74
57.82
59.05
59.62
59.71
59.50
59.04
58.34
57.37
56.10
54.55
52.64
50.26
47.22
43.40
38.82
33.71
28.47
23.52
19.19
15.52
12.27
8.99
5.18
0.53
-5.01
-11.16
-17.45
-23.42
-28.77
-33.49
-37.84
-42.32
-47.45
-53.77
-61.52
-70.53
-80.05
-88.75
-94.95
-97.02
-93.92
-85.51
-72.67
-56.98
-40.35
-24.41
-10.22
1.86
11.99
20.60
28.13
34.77
40.54
45.34
49.11
51.93
54.00
55.56
56.79
57.70
58.26
58.41
58.18
57.67
57.02
56.34
55.62
54.76
53.52
51.64
48.90
45.27
40.88
36.10
31.36
27.05
23.36
20.18
17.19
13.92
9.91
4.92
-1.07
-7.79
-14.77
-21.51
-27.62
-33.00
-37.83
-42.55
-47.71
-53.77
-60.92
-68.92
-76.97
-83.75
-87.65
-87.21
-81.63
-71.14
-56.96
-40.97
-25.09
-10.74
1.44
11.48
19.75
26.60
32.24
36.77
40.27
42.96
45.13
47.04
48.85
50.61
52.16
53.32
53.90
53.75
52.86
51.31
49.30
46.99
44.54
41.95
39.11
35.83
31.95
27.44
22.47
17.29
12.22
7.51
3.29
-0.49
-4.05
-7.69
-11.70
-16.25
-21.28
-26.51
-31.54
-36.09
-40.13
-44.01
-48.36
-53.80
-60.63
-68.59
-76.77
-83.77
-88.03
-88.27
-83.87
-75.05
-62.82
-48.73
-34.41
-21.22
-9.98
-0.95
6.09
11.54
15.79
19.07
21.43
22.85
23.45
23.48
23.41
23.70
24.63
26.11
27.74
28.98
29.46
29.10
28.14
26.90
25.55
24.00
21.94
19.10
15.34
10.78
5.74
0.62
-4.26
-8.69
-12.59
-16.05
-19.22
-22.38
-25.95
-30.36
-36.01
-42.97
-50.81
-58.59
-64.90
-68.26
-67.55
-62.45
-53.49
-41.95
-29.35
-17.07
-6.01
3.36
10.93
16.65
20.51
22.51
22.82
21.83
20.16
18.52
17.52
17.46
18.30
19.71
21.21
22.44
23.23
23.64
23.84
23.84
23.44
22.20
19.65
15.52
9.95
3.54
-2.88
-8.60
-13.26
-17.03
-20.44
-24.22
-29.00
-35.10
-42.47
-50.60
-58.52
-64.95
-68.43
-67.74
-62.30
-52.47
-39.54
-25.34
-11.74
-0.00
9.37
16.56
22.13
26.55
30.09
32.81
34.72
35.95
36.80
37.54
38.33
39.11
39.66
39.75
39.28
38.36
37.18
35.90
34.50
32.71
30.08
26.16
20.70
13.84
6.09
-1.76
-8.87
-14.65
-18.98
-22.26
-25.32
-29.16
-34.68
-42.24
-51.51
-61.28
-69.70
-74.71
-74.66
-68.89
-57.95
-43.46
-27.58
-12.36
0.79
11.30
19.32
25.42
30.21
34.13
37.37
39.95
41.84
43.10
43.90
44.43
44.87
45.19
45.23
44.81
43.81
42.30
40.46
38.47
36.29
33.70
30.31
25.75
19.93
13.03
5.56
-1.84
-8.60
-14.45
-19.45
-23.99
-28.63
-33.97
-40.51
-48.58
-58.16
-68.75
-79.22
-87.93
-93.04
-93.01
-87.26
-76.39
-62.03
-46.33
-31.24
-17.98
-6.93
2.19
9.92
16.67
22.62
27.73
31.88
35.06
37.39
39.01
40.05
40.50
40.26
39.22
37.37
34.78
31.61
27.94
23.72
18.75
12.76
5.60
-2.71
-11.97
-21.91
-32.29
-43.03
-54.18
-65.89
-78.23
-91.10
-104.23
-117.16
-129.43
-140.68
-150.80
-159.96
-168.56
-177.02
-185.46
-193.38
-199.57
-202.29
-199.85
-191.29
-176.87
-158.16
-137.56
-117.52
-99.79
-85.01
-72.88
-62.52
-53.11
-44.15
-35.59
-27.64
-20.60
-14.69
-10.01
-6.48
-3.79
-1.39
1.40
5.27
10.58
17.23
24.60
31.66
37.30
40.70
41.54
40.06
36.91
32.86
28.63
24.67
21.14
17.95
14.97
12.11
9.48
7.46
6.52
7.11
9.47
13.56
19.02
25.34
31.89
38.06
43.46
48.17
52.87
58.86
67.62
80.01
95.59
112.33
127.13
137.05
140.62
138.67
134.06
130.58
131.40
138.00
149.74
164.38
178.98
190.74
197.61
198.52
193.38
183.04
169.13
153.80
139.30
127.46
119.21
114.45
112.19
110.96
109.35
106.46
101.99
96.27
89.83
83.18
76.50
69.63
62.21
53.82
44.16
33.14
20.92
7.94
-5.24
-17.95
-29.66
-40.22
-49.88
-59.27
-69.15
-80.01
-91.72
-103.44
-113.89
-121.63
-125.65
-125.53
-121.60
-114.69
-105.78
-95.70
-84.92
-73.62
-61.77
-49.44
-36.90
-24.75
-13.80
-4.87
1.41
4.84
5.67
4.60
2.58
0.65
-0.31
0.22
2.33
5.61
9.36
12.71
14.96
15.73
15.10
13.49
11.50
9.63
8.17
7.02
5.86
4.26
1.87
-1.39
-5.37
-9.74
-14.20
-18.60
-23.13
-28.22
-34.48
-42.39
-52.08
-63.14
-74.50
-84.64
-91.88
-94.80
-92.71
-85.85
-75.35
-62.90
-50.24
-38.69
-28.84
-20.52
-13.12
-5.89
1.72
9.88
18.48
27.26
35.97
44.43
52.56
60.27
67.42
73.90
79.66
84.85
89.85
95.15
101.19
108.07
115.44
122.51
128.25
131.71
132.29
129.93
125.06
118.41
110.73
102.54
94.12
85.47
76.59
67.53
58.54
49.91
41.85
34.38
27.31
20.61
14.61
10.27
8.91
11.79
19.48
31.54
46.58
62.76
78.38
92.26
103.83
112.89
119.36
123.17
124.40
123.33
120.53
116.62
112.11
107.22
101.88
95.91
89.27
82.13
74.82
67.69
60.91
54.42
48.08
41.72
35.36
29.21
23.57
18.62
14.36
10.54
6.81
2.92
-1.16
-5.33
-9.43
-13.41
-17.50
-22.02
-27.41
-33.97
-41.81
-50.81
-60.53
-70.19
-78.76
-85.02
-87.95
-87.02
-82.44
-75.11
-66.32
-57.33
-49.07
-41.96
-36.03
-31.12
-27.08
-23.85
-21.51
-20.10
-19.63
-19.86
-20.46
-21.01
-21.20
-20.93
-20.37
-19.85
-19.73
-20.22
-21.35
-22.97
-24.90
-27.04
-29.36
-31.94
-34.83
-38.01
-41.36
-44.64
-47.64
-50.25
-52.51
-54.65
-56.97
-59.76
-63.26
-67.65
-73.04
-79.53
-87.11
-95.45
-103.85
-111.22
-116.29
-118.01
-115.93
-110.38
-102.43
-93.58
-85.34
-78.84
-74.71
-73.08
-73.69
-76.16
-80.11
-85.31
-91.58
-98.80
-106.80
-115.42
-124.58
-134.48
-145.40
-157.38
-169.73
-180.69
-187.63
-187.88
-179.76
-163.50
-141.36
-116.94
-93.86
-74.63
-60.03
-49.23
-40.59
-32.29
-22.73
-10.55
5.36
25.53
49.22
73.96
95.84
110.66
115.61
110.52
98.14
83.00
69.54
60.53
56.49
56.12
57.52
59.14
60.18
60.47
59.93
58.33
55.47
51.33
46.33
41.21
36.82
33.67
31.79
30.63
29.42
27.48
24.53
20.84
17.13
14.18
12.51
12.15
12.61
13.11
12.93
11.61
9.14
5.84
2.22
-1.21
-4.12
-6.37
-8.03
-9.43
-11.06
-13.50
-17.10
-21.83
-27.03
-31.55
-34.02
-33.34
-29.10
-21.73
-12.38
-2.47
6.68
14.25
20.02
24.27
27.52
30.33
33.08
35.95
38.91
41.89
44.82
47.72
50.64
53.64
56.77
60.08
63.64
67.56
71.96
76.86
82.08
87.19
91.54
94.35
94.77
92.11
85.87
75.86
62.19
45.33
26.21
6.16
-13.18
-30.23
-43.85
-53.66
-60.13
-64.27
-67.14
-69.39
-71.07
-71.70
-70.76
-67.96
-63.50
-57.80
-51.32
-44.13
-36.00
-26.52
-15.41
-2.80
10.80
24.59
37.91
50.45
62.35
74.11
86.24
98.99
112.14
125.13
137.29
148.23
158.04
167.24
176.61
186.77
197.97
209.92
221.88
232.82
241.64
247.38
249.29
247.01
240.50
230.08
216.15
199.05
178.79
155.10
127.68
96.76
63.53
30.27
-0.07
-24.74
-42.10
-52.20
-56.59
-57.68
-57.73
-58.20
-59.54
-61.49
-63.68
-65.95
-68.44
-71.28
-74.38
-77.31
-79.40
-80.17
-79.45
-77.43
-74.58
-71.30
-67.88
-64.40
-60.89
-57.38
-53.94
-50.66
-47.68
-45.11
-43.08
-41.64
-40.77
-40.23
-39.65
-38.75
-37.46
-36.10
-35.27
-35.61
-37.42
-40.48
-44.01
-46.84
-47.71
-45.69
-40.44
-32.30
-22.27
-11.63
-1.62
6.89
13.48
18.10
20.80
21.58
20.32
16.93
11.67
5.22
-1.32
-6.85
-10.51
-12.10
-11.94
-10.78
-9.33
-8.08
-7.15
-6.47
-5.98
-5.82
-6.33
-7.87
-10.67
-14.72
-19.77
-25.48
-31.49
-37.46
-43.06
-48.10
-52.54
-56.67
-60.90
-65.64
-70.95
-76.32
-80.71
-82.91
-81.83
-77.00
-68.61
-57.51
-44.91
-32.11
-20.24
-10.16
-2.35
3.08
6.35
7.85
8.11
7.64
6.92
6.35
6.20
6.59
7.46
8.61
9.79
10.84
11.73
12.48
13.09
13.38
12.97
11.52
8.80
4.92
0.29
-4.59
-9.34
-13.85
-18.29
-22.93
-28.09
-33.90
-40.40
-47.38
-54.39
-60.58
-64.83
-65.94
-63.05
-55.95
-45.35
-32.63
-19.43
-7.24
3.04
11.08
16.96
20.97
23.38
24.43
24.44
23.85
23.13
22.75
22.87
23.39
23.96
24.15
23.63
22.30
20.23
17.55
14.35
10.63
6.41
1.74
-3.27
-8.37
-13.29
-17.79
-21.76
-25.26
-28.66
-32.48
-37.34
-43.55
-50.85
-58.29
-64.36
-67.45
-66.43
-61.02
-51.95
-40.61
-28.62
-17.32
-7.51
0.53
6.86
11.67
15.09
17.22
18.23
18.43
18.38
18.72
20.10
22.98
27.41
33.08
39.26
45.03
49.43
51.68
51.35
48.31
42.76
35.12
25.98
16.06
6.16
-2.97
-10.86
-17.44
-23.13
-28.72
-35.12
-42.98
-52.40
-62.82
-73.00
-81.39
-86.49
-87.31
-83.65
-76.23
-66.48
-56.11
-46.66
-39.04
-33.44
-29.45
-26.40
-23.67
-20.92
-18.04
-15.11
-12.21
-9.31
-6.38
-3.41
-0.47
2.28
4.73
6.83
8.63
10.14
11.23
11.63
11.01
9.16
6.20
2.58
-1.08
-4.20
-6.55
-8.30
-9.91
-12.02
-15.10
-19.43
-24.92
-31.11
-37.09
-41.62
-43.42
-41.53
-35.67
-26.47
-15.28
-3.77
6.64
15.15
21.71
26.75
30.79
34.14
36.74
38.30
38.58
37.57
35.58
33.13
30.70
28.55
26.59
24.53
22.08
19.12
15.70
11.94
7.83
3.17
-2.33
-8.80
-16.08
-23.65
-30.88
-37.34
-42.95
-48.07
-53.33
-59.31
-66.29
-74.05
-81.84
-88.38
-92.16
-91.76
-86.23
-75.50
-60.46
-42.71
-24.18
-6.57
9.05
22.18
32.85
41.23
47.52
51.88
54.50
55.71
55.97
55.81
55.67
55.82
56.25
56.81
57.24
57.34
56.98
56.12
54.78
52.87
50.26
46.76
42.19
36.50
29.77
22.29
14.46
6.78
-0.34
-6.64
-12.19
-17.37
-22.80
-29.10
-36.65
-45.33
-54.36
-62.50
-68.29
-70.49
-68.43
-62.19
-52.60
-40.95
-28.60
-16.67
-5.84
3.65
11.78
18.61
24.05
28.01
30.47
31.57
31.76
31.56
31.44
31.55
31.77
31.78
31.29
30.24
28.80
27.26
25.82
24.48
22.99
20.97
18.06
14.15
9.36
4.05
-1.29
-6.24
-10.57
-14.29
-17.68
-21.20
-25.38
-30.64
-37.14
-44.58
-52.15
-58.62
-62.60
-62.87
-58.84
-50.70
-39.41
-26.46
-13.39
-1.38
8.89
17.29
24.01
29.35
33.47
36.42
38.22
39.01
39.14
39.08
39.33
40.11
41.29
42.38
42.84
42.27
40.68
38.40
35.87
33.44
31.06
28.42
25.05
20.61
15.10
8.80
2.29
-3.86
-9.21
-13.64
-17.36
-20.95
-25.08
-30.34
-36.96
-44.58
-52.25
-58.54
-61.93
-61.16
-55.65
-45.67
-32.32
-17.25
-2.19
11.40
22.65
31.38
37.88
42.68
46.30
49.12
51.30
52.88
53.77
53.92
53.35
52.22
50.79
49.28
47.83
46.47
45.13
43.70
42.10
40.23
38.03
35.38
32.22
28.56
24.49
20.13
15.55
10.71
5.53
-0.01
-5.74
-11.37
-16.63
-21.41
-25.88
-30.45
-35.64
-41.94
-49.64
-58.68
-68.41
-77.60
-84.48
-87.21
-84.46
-75.92
-62.48
-46.08
-28.97
-13.13
0.31
11.13
19.78
26.99
33.37
39.15
44.30
48.59
51.82
53.96
55.12
55.46
55.16
54.34
53.06
51.47
49.76
48.15
46.74
45.46
43.99
41.93
38.94
34.93
30.06
24.68
19.25
14.13
9.53
5.42
1.55
-2.47
-6.97
-12.19
-18.08
-24.36
-30.60
-36.32
-41.23
-45.27
-48.72
-52.15
-56.23
-61.61
-68.58
-76.81
-85.24
-92.21
-95.82
-94.58
-87.90
-76.39
-61.60
-45.54
-29.98
-16.06
-4.12
6.00
14.69
22.23
28.74
34.21
38.68
42.28
45.21
47.62
49.58
51.00
51.80
51.95
51.51
50.63
49.51
48.23
46.85
45.33
43.55
41.40
38.73
35.43
31.45
26.90
22.05
17.33
13.12
9.59
6.62
3.80
0.68
-3.13
-7.67
-12.77
-18.04
-23.11
-27.78
-32.04
-36.06
-40.16
-44.69
-49.97
-56.13
-62.96
-69.74
-75.38
-78.50
-77.93
-73.11
-64.25
-52.34
-38.76
-24.90
-11.83
-0.20
9.76
18.07
24.86
30.36
34.81
38.38
41.15
43.13
44.30
44.76
44.72
44.46
44.27
44.22
44.24
44.09
43.49
42.33
40.67
38.65
36.48
34.25
31.87
29.20
26.03
22.33
18.20
13.94
9.84
6.06
2.56
-0.86
-4.47
-8.40
-12.63
-17.03
-21.43
-25.74
-29.97
-34.15
-38.34
-42.61
-47.06
-51.89
-57.31
-63.34
-69.61
-75.21
-78.83
-79.14
-75.21
-66.96
-55.21
-41.47
-27.47
-14.66
-3.90
4.60
11.09
16.00
19.74
22.54
24.59
25.98
26.87
27.40
27.69
27.84
27.93
27.99
28.06
28.12
28.11
27.94
27.45
26.49
24.91
22.62
19.64
16.05
12.11
8.09
4.26
0.75
-2.53
-5.87
-9.65
-14.17
-19.43
-25.13
-30.72
-35.63
-39.52
-42.44
-44.82
-47.36
-50.69
-55.19
-60.78
-66.89
-72.57
-76.62
-77.88
-75.53
-69.34
-59.77
-47.91
-35.13
-22.74
-11.69
-2.43
4.95
10.56
14.57
17.18
18.67
19.45
19.96
20.56
21.40
22.39
23.31
23.87
23.94
23.53
22.78
21.88
20.93
19.93
18.71
17.07
14.85
12.00
8.69
5.24
2.05
-0.62
-2.70
-4.35
-5.90
-7.68
-9.99
-13.04
-16.91
-21.49
-26.41
-30.99
-34.27
-35.23
-33.07
-27.51
-18.98
-8.54
2.46
12.76
21.51
28.37
33.42
36.89
38.99
39.83
39.44
37.94
35.71
33.28
31.19
29.78
28.98
28.48
27.84
26.79
25.40
23.92
22.60
21.46
20.22
18.46
15.87
12.45
8.52
4.57
0.94
-2.26
-5.27
-8.50
-12.38
-17.14
-22.70
-28.60
-33.99
-37.85
-39.16
-37.24
-31.96
-23.86
-13.93
-3.38
6.72
15.64
22.97
28.55
32.33
34.33
34.67
33.60
31.54
29.03
26.58
24.59
23.25
22.54
22.22
21.95
21.40
20.26
18.43
16.01
13.20
10.27
7.36
4.43
1.22
-2.50
-6.88
-11.79
-16.85
-21.61
-25.72
-29.17
-32.32
-35.74
-40.05
-45.63
-52.45
-59.94
-67.08
-72.55
-75.02
-73.50
-67.69
-58.08
-45.90
-32.67
-19.81
-8.31
1.44
9.48
16.13
21.71
26.45
30.49
33.93
36.79
39.09
40.81
41.89
42.33
42.15
41.45
40.35
38.94
37.31
35.45
33.40
31.18
28.81
26.21
23.20
19.51
14.95
9.51
3.52
-2.51
-8.01
-12.63
-16.41
-19.77
-23.32
-27.64
-33.15
-39.87
-47.44
-55.12
-61.79
-66.23
-67.36
-64.54
-57.81
-47.87
-35.98
-23.52
-11.73
-1.43
7.04
13.78
19.15
23.63
27.63
31.36
34.88
38.06
40.78
42.88
44.28
44.89
44.71
43.84
42.50
41.02
39.70
38.69
37.82
36.69
34.84
31.98
28.15
23.63
18.87
14.21
9.76
5.45
1.17
-3.14
-7.42
-11.51
-15.26
-18.57
-21.55
-24.49
-27.78
-31.89
-37.11
-43.43
-50.33
-56.75
-61.32
-62.66
-59.86
-52.82
-42.37
-30.06
-17.66
-6.61
2.25
8.88
13.71
17.39
20.47
23.26
25.89
28.41
30.79
32.91
34.60
35.66
35.96
35.58
34.75
33.82
33.11
32.78
32.76
32.80
32.49
31.45
29.42
26.41
22.67
18.66
14.89
11.62
8.83
6.16
3.13
-0.66
-5.32
-10.67
-16.26
-21.55
-26.17
-29.95
-33.16
-36.38
-40.35
-45.65
-52.40
-60.02
-67.28
-72.60
-74.54
-72.26
-65.80
-55.95
-44.06
-31.59
-19.76
-9.39
-0.82
6.06
11.54
16.05
19.93
23.42
26.59
29.42
31.83
33.71
34.94
35.46
35.27
34.48
33.33
32.08
30.94
29.93
28.88
27.54
25.69
23.29
20.43
17.29
13.94
10.39
6.55
2.40
-1.94
-6.28
-10.43
-14.31
-17.95
-21.49
-25.05
-28.79
-32.85
-37.46
-42.82
-48.88
-55.12
-60.51
-63.77
-63.68
-59.64
-51.83
-41.28
-29.43
-17.77
-7.39
1.16
7.88
13.11
17.26
20.62
23.27
25.17
26.29
26.73
26.78
26.73
26.83
27.09
27.35
27.35
26.98
26.31
25.58
25.07
24.80
24.49
23.65
21.77
18.60
14.26
9.24
4.17
-0.38
-4.20
-7.38
-10.31
-13.48
-17.35
-22.30
-28.42
-35.51
-42.85
-49.28
-53.44
-54.13
-50.73
-43.45
-33.32
-21.78
-10.31
0.03
8.67
15.49
20.60
24.17
26.39
27.45
27.62
27.27
26.76
26.39
26.32
26.52
26.82
27.01
26.97
26.69
26.28
25.81
25.21
24.22
22.49
19.73
15.85
11.07
5.79
0.52
-4.38
-8.68
-12.45
-15.95
-19.62
-23.94
-29.27
-35.64
-42.52
-48.86
-53.25
-54.40
-51.53
-44.70
-34.80
-23.26
-11.58
-0.95
7.99
15.13
20.66
24.91
28.15
30.55
32.20
33.19
33.64
33.70
33.50
33.10
32.55
31.85
30.98
29.95
28.77
27.45
25.98
24.23
21.99
19.00
15.03
9.98
4.01
-2.46
-8.83
-14.56
-19.30
-23.05
-26.25
-29.55
-33.71
-39.29
-46.46
-54.80
-63.27
-70.35
-74.44
-74.21
-69.03
-59.13
-45.57
-29.93
-13.95
0.89
13.60
23.77
31.50
37.15
41.16
43.92
45.66
46.57
46.85
46.74
46.46
46.12
45.67
44.90
43.62
41.79
39.57
37.32
35.34
33.77
32.37
30.66
28.02
24.06
18.68
12.17
5.14
-1.76
-7.99
-13.30
-17.73
-21.61
-25.40
-29.65
-34.89
-41.40
-49.05
-57.07
-64.14
-68.59
-68.94
-64.37
-55.14
-42.52
-28.42
-14.76
-2.87
6.73
14.34
20.59
26.09
31.12
35.65
39.47
42.42
44.53
45.96
46.89
47.45
47.69
47.60
47.26
46.74
46.17
45.58
44.90
43.99
42.66
40.72
38.07
34.69
30.67
26.21
21.64
17.31
13.50
10.22
7.21
3.95
-0.09
-5.17
-11.08
-17.24
-22.90
-27.59
-31.27
-34.50
-38.07
-42.72
-48.80
-56.15
-64.12
-71.66
-77.53
-80.47
-79.44
-73.90
-64.11
-51.09
-36.45
-21.95
-9.02
1.63
10.05
16.79
22.66
28.29
33.96
39.53
44.62
48.75
51.63
53.19
53.64
53.30
52.51
51.47
50.29
48.96
47.54
46.07
44.66
43.33
41.93
40.24
37.99
35.02
31.35
27.17
22.78
18.46
14.41
10.70
7.28
3.96
0.56
-3.17
-7.38
-12.04
-16.96
-21.85
-26.45
-30.65
-34.59
-38.62
-43.17
-48.55
-54.92
-62.09
-69.52
-76.35
-81.43
-83.63
-82.06
-76.35
-66.82
-54.43
-40.57
-26.69
-13.98
-3.19
5.55
12.49
18.14
22.99
27.39
31.44
35.12
38.33
40.98
43.02
44.44
45.22
45.35
44.89
43.97
42.85
41.76
40.87
40.19
39.58
38.80
37.59
35.74
33.15
29.88
26.17
22.33
18.66
15.31
12.24
9.25
6.05
2.46
-1.56
-5.88
-10.30
-14.70
-19.01
-23.24
-27.38
-31.43
-35.40
-39.46
-43.94
-49.24
-55.54
-62.53
-69.25
-74.23
-75.94
-73.30
-66.16
-55.32
-42.35
-29.03
-16.81
-6.49
1.81
8.45
13.95
18.69
22.86
26.48
29.55
32.16
34.44
36.49
38.33
39.84
40.82
41.14
40.81
40.00
39.01
38.09
37.36
36.80
36.20
35.28
33.76
31.50
28.52
25.08
21.51
18.18
15.22
12.55
9.89
6.86
3.26
-0.96
-5.61
-10.48
-15.27
-19.82
-23.98
-27.73
-31.12
-34.36
-37.82
-41.92
-46.96
-52.92
-59.31
-65.23
-69.49
-70.91
-68.65
-62.50
-52.97
-41.21
-28.69
-16.80
-6.45
2.01
8.79
14.29
18.91
22.85
26.11
28.64
30.50
31.79
32.71
33.41
34.01
34.57
35.08
35.50
35.74
35.71
35.32
34.56
33.50
32.20
30.72
28.99
26.89
24.32
21.31
18.02
14.68
11.50
8.48
5.43
2.06
-1.87
-6.34
-11.11
-15.76
-19.89
-23.34
-26.24
-28.91
-31.78
-35.22
-39.45
-44.52
-50.18
-55.82
-60.47
-62.96
-62.25
-57.83
-50.00
-39.76
-28.55
-17.73
-8.22
-0.42
5.70
10.40
14.00
16.84
19.20
21.26
23.11
24.67
25.83
26.50
26.74
26.77
26.82
27.09
27.53
27.92
27.93
27.32
25.97
23.93
21.31
18.22
14.74
10.91
6.84
2.70
-1.30
-4.93
-8.07
-10.73
-13.07
-15.30
-17.69
-20.50
-24.01
-28.49
-34.07
-40.58
-47.44
-53.61
-57.77
-58.71
-55.76
-49.04
-39.47
-28.45
-17.43
-7.49
0.79
7.29
12.14
15.53
17.62
18.61
18.77
18.46
18.09
18.00
18.37
19.14
20.14
21.11
21.88
22.41
22.72
22.89
22.89
22.61
21.82
20.35
18.08
15.04
11.34
7.14
2.66
-1.86
-6.18
-10.13
-13.68
-17.06
-20.64
-24.87
-30.03
-36.02
-42.27
-47.77
-51.36
-51.98
-49.06
-42.67
-33.51
-22.67
-11.36
-0.62
8.82
16.55
22.35
26.19
28.15
28.48
27.59
26.04
24.38
23.05
22.26
21.97
21.97
22.01
21.88
21.53
20.99
20.28
19.40
18.18
16.37
13.76
10.28
6.11
1.61
-2.77
-6.70
-10.10
-13.13
-16.21
-19.83
-24.41
-30.13
-36.76
-43.59
-49.56
-53.41
-54.03
-50.83
-43.91
-34.04
-22.55
-10.87
-0.21
8.76
15.85
21.28
25.38
28.39
30.34
31.23
31.13
30.25
29.02
27.84
26.95
26.38
25.98
25.59
25.13
24.72
24.45
24.31
24.06
23.27
21.43
18.20
13.58
7.94
1.95
-3.69
-8.47
-12.26
-15.33
-18.29
-21.86
-26.60
-32.76
-40.03
-47.51
-53.84
-57.47
-57.11
-52.23
-43.22
-31.41
-18.56
-6.30
4.32
12.98
19.92
25.54
30.14
33.75
36.27
37.67
38.07
37.89
37.58
37.46
37.61
37.80
37.66
36.88
35.43
33.52
31.54
29.88
28.65
27.67
26.47
24.52
21.44
17.10
11.73
5.77
-0.24
-5.83
-10.78
-15.14
-19.22
-23.49
-28.47
-34.56
-41.85
-50.01
-58.20
-65.11
-69.28
-69.38
-64.81
-55.87
-43.77
-30.24
-16.99
-5.22
4.57
12.47
18.86
24.13
28.51
32.09
34.88
36.88
38.18
38.88
39.18
39.25
39.29
39.37
39.47
39.41
38.91
37.76
35.85
33.27
30.21
26.83
23.28
19.61
15.80
11.80
7.63
3.31
-1.05
-5.34
-9.48
-13.45
-17.33
-21.29
-25.53
-30.30
-35.85
-42.38
-49.84
-57.85
-65.54
-71.62
-74.65
-73.46
-67.61
-57.62
-44.77
-30.80
-17.29
-5.35
4.62
12.67
19.17
24.51
28.99
32.85
36.26
39.34
42.11
44.44
46.07
46.75
46.43
45.32
43.85
42.48
41.43
40.59
39.61
38.06
35.66
32.40
28.48
24.20
19.81
15.50
11.33
7.33
3.43
-0.51
-4.68
-9.25
-14.26
-19.56
-24.88
-29.96
-34.65
-39.13
-43.77
-49.00
-54.95
-61.26
-66.97
-70.79
-71.45
-68.17
-60.98
-50.62
-38.32
-25.43
-13.07
-1.97
7.49
15.23
21.35
26.15
30.03
33.45
36.76
40.06
43.20
45.86
47.73
48.62
48.57
47.78
46.51
44.97
43.31
41.56
39.71
37.63
35.14
32.03
28.13
23.45
18.20
12.80
7.71
3.22
-0.64
-4.08
-7.44
-11.04
-15.03
-19.37
-23.88
-28.33
-32.60
-36.78
-41.16
-46.12
-51.99
-58.65
-65.49
-71.31
-74.75
-74.60
-70.26
-61.93
-50.54
-37.45
-24.07
-11.48
-0.39
8.94
16.54
22.64
27.51
31.44
34.69
37.49
39.97
42.14
43.89
45.06
45.51
45.24
44.38
43.24
42.14
41.32
40.79
40.40
39.81
38.68
36.73
33.90
30.29
26.15
21.77
17.44
13.34
9.51
5.83
2.08
-1.97
-6.49
-11.47
-16.71
-21.91
-26.73
-30.97
-34.65
-37.97
-41.31
-45.15
-49.91
-55.68
-62.10
-68.16
-72.37
-73.25
-69.78
-61.88
-50.48
-37.19
-23.76
-11.55
-1.23
7.16
13.92
19.39
23.74
27.07
29.47
31.18
32.58
34.03
35.73
37.59
39.36
40.70
41.42
41.53
41.20
40.64
39.99
39.23
38.21
36.78
34.85
32.34
29.30
25.80
21.96
17.96
14.02
10.33
7.03
4.03
1.10
-2.14
-5.91
-10.26
-14.87
-19.28
-23.08
-26.09
-28.59
-31.11
-34.37
-38.97
-45.14
-52.66
-60.75
-68.17
-73.41
-75.02
-72.04
-64.35
-52.81
-39.02
-24.88
-12.09
-1.65
6.23
11.98
16.24
19.65
22.49
24.76
26.36
27.29
27.77
28.15
28.77
29.74
30.93
32.02
32.76
33.03
32.85
32.32
31.42
30.03
28.00
25.33
22.13
18.64
15.08
11.53
7.93
4.18
0.25
-3.75
-7.58
-11.03
-14.00
-16.58
-19.10
-22.07
-25.98
-31.14
-37.43
-44.23
-50.41
-54.65
-55.76
-53.12
-46.83
-37.70
-26.96
-15.88
-5.44
3.71
11.30
17.19
21.35
23.79
24.67
24.31
23.17
21.79
20.59
19.81
19.47
19.44
19.56
19.67
19.69
19.54
19.29
18.93
18.44
17.67
16.36
14.17
10.88
6.55
1.54
-3.55
-8.13
-11.85
-14.78
-17.34
-20.13
-23.70
-28.40
-34.25
-40.97
-47.87
-53.92
-57.90
-58.68
-55.53
-48.53
-38.53
-27.01
-15.55
-5.41
2.77
8.89
13.18
15.97
17.49
17.97
17.65
16.90
16.11
15.63
15.54
15.67
15.70
15.35
14.55
13.53
12.63
12.16
12.13
12.24
11.90
10.54
7.82
3.85
-0.85
-5.54
-9.51
-12.42
-14.39
-16.02
-18.16
-21.65
-26.99
-34.12
-42.27
-50.11
-56.02
-58.51
-56.70
-50.57
-40.97
-29.35
-17.32
-6.17
3.33
10.99
16.91
21.37
24.56
26.66
27.83
28.26
28.21
27.89
27.46
27.02
26.59
26.17
25.81
25.53
25.31
25.03
24.50
23.46
21.58
18.63
14.53
9.43
3.77
-1.89
-7.00
-11.34
-15.02
-18.56
-22.65
-27.87
-34.49
-42.23
-50.26
-57.32
-61.99
-62.96
-59.50
-51.62
-40.24
-26.85
-13.21
-0.78
9.56
17.62
23.69
28.32
31.92
34.70
36.71
37.99
38.73
39.20
39.71
40.40
41.15
41.63
41.49
40.56
38.93
36.97
35.03
33.30
31.61
29.55
26.67
22.67
17.62
11.88
5.98
0.31
-4.92
-9.86
-14.82
-20.25
-26.53
-33.94
-42.52
-51.92
-61.30
-69.34
-74.47
-75.30
-71.07
-61.98
-49.26
-34.74
-20.29
-7.33
3.54
12.40
19.77
26.22
32.09
37.41
42.03
45.75
48.46
50.22
51.19
51.59
51.66
51.56
51.42
51.23
50.92
50.29
49.11
47.17
44.44
40.98
36.98
32.59
27.96
23.11
18.06
12.80
7.25
1.40
-4.74
-11.05
-17.29
-23.19
-28.56
-33.45
-38.22
-43.48
-49.78
-57.42
-66.11
-74.91
-82.40
-86.94
-87.07
-82.05
-72.00
-58.04
-41.90
-25.51
-10.43
2.40
12.75
20.88
27.38
32.79
37.55
41.84
45.72
49.08
51.85
53.87
55.13
55.61
55.34
54.42
52.99
51.25
49.45
47.83
46.46
45.21
43.71
41.52
38.31
34.08
29.14
24.03
19.26
15.11
11.46
7.90
3.93
-0.82
-6.44
-12.65
-18.99
-24.98
-30.29
-34.90
-39.07
-43.38
-48.49
-54.96
-62.95
-71.91
-80.61
-87.27
-90.14
-87.96
-80.48
-68.50
-53.61
-37.67
-22.27
-8.47
3.30
13.04
21.02
27.61
33.17
38.01
42.29
46.06
49.21
51.65
53.32
54.32
54.77
54.77
54.37
53.52
52.27
50.75
49.21
47.80
46.53
45.12
43.13
40.17
36.06
30.99
25.44
20.01
15.09
10.77
6.77
2.63
-2.00
-7.18
-12.67
-18.07
-23.07
-27.64
-32.00
-36.56
-41.74
-47.85
-55.02
-63.16
-71.88
-80.31
-87.17
-90.90
-90.15
-84.26
-73.65
-59.70
-44.34
-29.42
-16.13
-4.85
4.59
12.61
19.43
25.03
29.28
32.15
33.88
34.90
35.73
36.70
37.90
39.26
40.62
41.95
43.31
44.89
46.76
48.87
50.96
52.61
53.38
52.91
51.13
48.19
44.54
40.65
36.95
33.59
30.41
27.03
22.94
17.77
11.36
3.91
-4.04
-11.70
-18.23
-23.01
-25.86
-27.16
-27.78
-28.88
-31.39
-35.76
-41.63
-47.91
-53.03
-55.39
-53.90
-48.24
-39.03
-27.58
-15.53
-4.34
5.04
12.30
17.61
21.42
24.21
26.35
28.08
29.49
30.62
31.44
31.86
31.84
31.35
30.40
29.11
27.60
25.96
24.21
22.32
20.19
17.70
14.77
11.31
7.31
2.89
-1.73
-6.28
-10.52
-14.38
-17.95
-21.40
-24.86
-28.37
-31.86
-35.31
-38.83
-42.78
-47.56
-53.46
-60.34
-67.50
-73.66
-77.31
-77.04
-72.07
-62.58
-49.65
-35.00
-20.42
-7.29
3.65
12.29
18.80
23.50
26.65
28.54
29.55
30.17
30.84
31.76
32.88
33.88
34.45
34.39
33.81
32.93
32.02
31.22
30.49
29.65
28.52
26.89
24.58
21.43
17.25
12.02
5.89
-0.74
-7.28
-13.16
-18.03
-21.97
-25.44
-29.16
-33.80
-39.78
-47.12
-55.34
-63.58
-70.68
-75.37
-76.48
-73.22
-65.51
-54.03
-40.19
-25.75
-12.30
-0.88
8.29
15.54
21.49
26.61
31.06
34.69
37.22
38.56
38.85
38.52
38.10
38.00
38.33
38.89
39.28
39.10
38.18
36.64
34.80
32.95
31.20
29.35
26.98
23.69
19.26
13.83
7.82
1.72
-4.08
-9.43
-14.48
-19.51
-24.85
-30.73
-37.31
-44.67
-52.81
-61.53
-70.16
-77.51
-81.98
-82.03
-76.79
-66.45
-52.33
-36.45
-20.87
-7.10
4.17
12.95
19.65
24.77
28.66
31.61
33.81
35.51
36.92
38.19
39.41
40.58
41.64
42.50
43.00
43.02
42.43
41.24
39.51
37.33
34.75
31.70
28.04
23.63
18.47
12.69
6.55
0.36
-5.59
-11.09
-16.02
-20.39
-24.42
-28.53
-33.30
-39.27
-46.61
-54.96
-63.25
-69.93
-73.30
-72.06
-65.73
-54.80
-40.64
-25.05
-9.85
3.58
14.50
22.80
28.79
32.94
35.69
37.36
38.20
38.51
38.65
38.92
39.53
40.37
41.08
41.20
40.35
38.47
35.90
33.18
30.81
28.97
27.41
25.54
22.68
18.41
12.72
6.04
-0.96
-7.58
-13.37
-18.14
-22.05
-25.50
-29.04
-33.31
-38.85
-45.96
-54.42
-63.29
-71.00
-75.69
-75.71
-70.27
-59.73
-45.52
-29.71
-14.32
-0.76
10.40
19.32
26.50
32.39
37.16
40.78
43.16
44.42
44.82
44.74
44.53
44.37
44.29
44.22
44.06
43.71
43.07
42.01
40.41
38.23
35.55
32.53
29.30
25.86
22.02
17.52
12.13
5.90
-0.89
-7.71
-14.01
-19.43
-23.89
-27.68
-31.33
-35.49
-40.75
-47.47
-55.62
-64.61
-73.27
-79.96
-83.00
-81.08
-73.82
-61.89
-46.88
-30.82
-15.60
-2.52
7.97
16.09
22.48
27.83
32.63
37.02
40.91
44.05
46.26
47.55
48.08
48.10
47.81
47.31
46.64
45.85
45.07
44.40
43.88
43.24
42.04
39.75
36.09
31.19
25.56
19.88
14.65
9.97
5.53
0.88
-4.30
-9.98
-15.74
-21.09
-25.67
-29.54
-33.21
-37.49
-43.22
-50.87
-60.34
-70.72
-80.47
-87.64
-90.38
-87.50
-78.83
-65.32
-48.81
-31.49
-15.29
-1.48
9.46
17.72
23.90
28.64
32.49
35.85
38.94
41.83
44.44
46.60
48.11
48.79
48.60
47.71
46.40
45.01
43.81
42.88
42.10
41.20
39.80
37.58
34.34
30.12
25.24
20.20
15.50
11.43
7.93
4.67
1.16
-3.02
-8.02
-13.68
-19.55
-25.10
-29.91
-33.85
-37.19
-40.46
-44.44
-49.84
-56.96
-65.48
-74.32
-81.74
-85.73
-84.66
-77.79
-65.68
-49.97
-32.87
-16.45
-2.03
10.01
19.94
28.24
35.22
40.87
45.02
47.61
48.81
49.04
48.83
48.58
48.52
48.68
48.96
49.21
49.19
48.65
47.33
45.05
41.77
37.66
32.98
27.94
22.65
17.16
11.52
5.90
0.61
-4.10
-8.18
-11.94
-15.85
-20.35
-25.53
-31.02
-36.12
-40.19
-42.98
-44.80
-46.39
-48.59
-52.05
-56.94
-62.86
-68.87
-73.67
-75.87
-74.25
-68.17
-57.69
-43.69
-27.67
-11.36
3.67
16.39
26.33
33.66
38.84
42.43
44.90
46.55
47.59
48.18
48.51
48.76
49.07
49.47
49.90
50.27
50.49
50.56
50.48
50.19
49.56
48.47
46.77
44.43
41.52
38.15
34.46
30.47
26.17
21.48
16.33
10.74
4.81
-1.30
-7.39
-13.23
-18.68
-23.65
-28.29
-32.92
-38.07
-44.27
-51.74
-60.11
-68.29
-74.65
-77.46
-75.53
-68.63
-57.64
-44.13
-29.95
-16.59
-5.01
4.51
12.00
17.65
21.70
24.41
26.15
27.32
28.28
29.13
29.75
29.87
29.29
28.11
26.66
25.40
24.63
24.33
24.21
23.87
22.98
21.35
18.99
15.92
12.19
7.81
2.86
-2.46
-7.91
-13.21
-18.25
-22.98
-27.52
-31.96
-36.33
-40.59
-44.70
-48.83
-53.28
-58.45
-64.46
-71.00
-77.03
-81.11
-81.79
-78.11
-70.01
-58.37
-44.68
-30.63
-17.62
-6.52
2.32
9.02
13.96
17.61
20.43
22.74
24.66
26.16
27.16
27.63
27.65
27.38
26.96
26.48
25.93
25.29
24.57
23.79
22.96
21.96
20.66
18.89
16.63
13.97
11.08
8.13
5.22
2.38
-0.40
-3.10
-5.70
-8.19
-10.58
-12.91
-15.26
-17.77
-20.71
-24.48
-29.46
-35.85
-43.23
-50.56
-56.29
-58.78
-56.96
-50.65
-40.66
-28.47
-15.75
-3.90
6.23
14.41
20.91
26.21
30.81
35.12
39.25
43.09
46.37
48.73
49.88
49.67
48.17
45.58
42.24
38.49
34.69
31.04
27.68
24.57
21.55
18.44
15.09
11.49
7.82
4.42
1.64
-0.27
-1.46
-2.37
-3.65
-5.89
-9.28
-13.64
-18.51
-23.49
-28.36
-33.31
-38.72
-44.99
-52.30
-60.41
-68.63
-75.88
-80.84
-82.26
-79.30
-71.89
-60.77
-47.40
-33.40
-20.18
-8.54
1.41
9.94
17.47
24.31
30.61
36.36
41.50
45.92
49.47
52.01
53.50
54.02
53.86
53.37
52.84
52.41
51.99
51.36
50.27
48.59
46.29
43.48
40.28
36.76
32.91
28.69
24.03
18.94
13.49
7.82
2.08
-3.53
-8.91
-14.05
-19.03
-24.08
-29.55
-35.82
-43.12
-51.37
-59.89
-67.50
-72.68
-74.03
-70.69
-62.75
-51.24
-37.86
-24.44
-12.47
-2.73
4.72
10.36
14.85
18.78
22.49
26.09
29.49
32.54
35.12
37.18
38.71
39.73
40.32
40.56
40.53
40.26
39.71
38.76
37.30
35.24
32.59
29.40
25.71
21.60
17.08
12.15
6.84
1.28
-4.36
-9.87
-15.07
-19.88
-24.35
-28.67
-33.08
-37.90
-43.41
-49.78
-56.89
-64.22
-70.75
-75.06
-75.73
-71.80
-63.12
-50.58
-35.86
-20.84
-7.18
4.15
12.91
19.42
24.25
27.95
30.96
33.54
35.75
37.56
38.89
39.67
39.92
39.71
39.12
38.19
36.93
35.35
33.51
31.57
29.67
27.92
26.21
24.25
21.63
17.98
13.19
7.49
1.41
-4.44
-9.59
-13.93
-17.71
-21.46
-25.74
-31.00
-37.45
-45.02
-53.28
-61.40
-68.17
-72.16
-72.15
-67.52
-58.57
-46.51
-33.03
-19.81
-7.94
2.12
10.46
17.38
23.15
27.90
31.66
34.49
36.50
37.89
38.87
39.62
40.22
40.65
40.80
40.46
39.51
37.88
35.67
33.09
30.38
27.66
24.90
21.91
18.36
14.04
8.88
3.10
-2.87
-8.54
-13.61
-18.07
-22.32
-26.95
-32.51
-39.23
-46.87
-54.72
-61.72
-66.72
-68.67
-66.90
-61.18
-51.90
-40.05
-26.95
-14.01
-2.36
7.38
15.13
21.23
26.21
30.54
34.43
37.86
40.65
42.59
43.62
43.83
43.51
42.96
42.42
41.95
41.47
40.85
39.91
38.56
36.71
34.31
31.36
27.88
23.93
19.65
15.09
10.28
5.18
-0.20
-5.80
-11.39
-16.71
-21.59
-25.99
-30.11
-34.33
-39.04
-44.64
-51.29
-58.76
-66.37
-72.92
-76.96
-77.18
-72.85
-64.13
-52.03
-38.13
-24.05
-11.07
0.10
9.26
16.59
22.41
27.08
30.90
34.10
36.77
38.90
40.42
41.27
41.53
41.40
41.13
40.95
40.88
40.80
40.45
39.58
38.05
35.89
33.23
30.25
27.09
23.71
20.09
16.08
11.66
6.93
2.06
-2.70
-7.20
-11.39
-15.45
-19.56
-24.01
-29.00
-34.73
-41.27
-48.48
-55.83
-62.38
-66.85
-68.01
-65.03
-57.87
-47.30
-34.75
-21.74
-9.61
0.84
9.36
16.04
21.10
24.78
27.22
28.55
28.98
28.81
28.49
28.47
29.03
30.14
31.46
32.47
32.70
31.99
30.46
28.49
26.44
24.44
22.37
19.96
16.87
12.99
8.38
3.28
-1.95
-6.98
-11.58
-15.65
-19.26
-22.71
-26.37
-30.65
-35.83
-41.90
-48.52
-54.94
-60.15
-63.06
-62.75
-58.75
-51.23
-41.03
-29.41
-17.75
-7.17
1.65
8.47
13.36
16.43
17.82
17.70
16.41
14.49
12.61
11.30
10.84
11.13
11.82
12.52
13.01
13.26
13.37
13.45
13.46
13.26
12.64
11.44
9.55
6.98
3.85
0.33
-3.33
-6.88
-10.16
-13.17
-16.09
-19.28
-23.18
-28.20
-34.45
-41.69
-49.15
-55.56
-59.47
-59.60
-55.31
-46.82
-35.23
-22.14
-9.22
2.30
11.84
19.50
25.77
31.19
36.12
40.58
44.35
47.18
48.95
49.74
49.80
49.42
48.75
47.81
46.54
44.92
42.98
40.80
38.46
35.96
33.26
30.26
26.82
22.79
18.01
12.41
6.18
-0.29
-6.42
-11.80
-16.33
-20.38
-24.53
-29.41
-35.42
-42.64
-50.86
-59.58
-67.97
-74.84
-78.73
-78.29
-72.74
-62.28
-48.19
-32.40
-17.01
-3.53
7.37
15.86
22.64
28.54
34.16
39.71
45.09
49.93
53.91
56.78
58.52
59.22
59.03
58.11
56.66
54.91
53.15
51.56
50.17
48.77
46.89
44.06
40.00
34.77
28.74
22.46
16.42
10.86
5.80
1.01
-3.78
-8.78
-14.09
-19.60
-25.11
-30.30
-34.98
-39.12
-43.04
-47.37
-52.73
-59.50
-67.43
-75.45
-81.96
-85.19
-83.84
-77.52
-66.92
-53.52
-39.12
-25.30
-13.03
-2.69
5.89
13.11
19.42
25.15
30.54
35.63
40.39
44.61
48.13
50.79
52.52
53.36
53.47
53.12
52.53
51.91
51.34
50.74
49.92
48.61
46.58
43.66
39.88
35.35
30.31
25.03
19.81
14.89
10.42
6.38
2.60
-1.22
-5.44
-10.18
-15.33
-20.56
-25.45
-29.70
-33.34
-36.75
-40.52
-45.27
-51.36
-58.69
-66.63
-73.97
-79.28
-81.15
-78.66
-71.66
-60.89
-47.73
-33.80
-20.53
-8.71
1.43
10.17
17.89
24.92
31.33
37.07
41.98
45.97
49.03
51.27
52.80
53.68
53.95
53.62
52.78
51.61
50.28
48.99
47.75
46.45
44.88
42.82
40.12
36.69
32.61
28.03
23.25
18.52
14.10
10.05
6.22
2.38
-1.72
-6.17
-10.88
-15.61
-20.11
-24.21
-27.88
-31.23
-34.50
-38.06
-42.37
-47.76
-54.35
-61.65
-68.59
-73.70
-75.53
-73.20
-66.70
-56.91
-45.33
-33.51
-22.68
-13.43
-5.89
0.18
5.11
9.18
12.61
15.57
18.26
20.78
23.20
25.39
27.19
28.41
29.02
29.14
29.05
29.06
29.33
29.84
30.33
30.46
29.94
28.58
26.43
23.61
20.32
16.74
13.07
9.37
5.67
1.99
-1.75
-5.54
-9.29
-12.88
-16.17
-19.11
-21.90
-24.92
-28.63
-33.43
-39.40
-46.29
-53.36
-59.58
-63.71
-64.66
-61.75
-54.97
-45.09
-33.46
-21.59
-10.81
-1.90
4.95
9.99
13.62
16.23
18.11
19.45
20.43
21.24
21.99
22.77
23.56
24.31
24.98
25.56
26.05
26.42
26.62
26.55
26.10
25.19
23.73
21.72
19.20
16.24
12.92
9.30
5.44
1.39
-2.72
-6.73
-10.44
-13.75
-16.70
-19.48
-22.45
-26.04
-30.56
-36.03
-42.09
-47.86
-52.11
-53.62
-51.49
-45.56
-36.55
-25.87
-15.13
-5.61
2.03
7.90
12.48
16.29
19.55
22.25
24.14
25.15
25.46
25.44
25.51
25.86
26.48
27.09
27.48
27.49
27.19
26.72
26.14
25.38
24.23
22.45
19.88
16.53
12.54
8.13
3.54
-1.01
-5.32
-9.22
-12.61
-15.57
-18.28
-21.13
-24.53
-28.88
-34.36
-40.85
-47.88
-54.57
-59.75
-62.23
-61.13
-56.13
-47.73
-37.06
-25.62
-14.78
-5.50
1.90
7.59
12.07
15.81
19.11
22.03
24.51
26.44
27.83
28.84
29.65
30.44
31.31
32.22
33.04
33.64
33.85
33.53
32.52
30.68
28.01
24.63
20.83
16.97
13.34
9.97
6.71
3.31
-0.45
-4.59
-9.01
-13.56
-18.06
-22.50
-26.90
-31.36
-36.01
-41.05
-46.65
-52.83
-59.23
-64.95
-68.65
-69.00
-65.11
-57.04
-45.89
-33.33
-21.15
-10.61
-2.23
4.27
9.48
14.06
18.41
22.65
26.69
30.40
33.72
36.58
38.92
40.61
41.47
41.41
40.49
39.05
37.57
36.47
35.87
35.52
34.90
33.50
31.07
27.68
23.75
19.75
16.02
12.69
9.65
6.70
3.59
0.13
-3.83
-8.31
-13.24
-18.43
-23.62
-28.52
-33.01
-37.24
-41.58
-46.54
-52.51
-59.46
-66.72
-73.04
-76.87
-76.94
-72.60
-64.08
-52.45
-39.22
-25.88
-13.60
-2.97
5.91
13.32
19.67
25.33
30.55
35.36
39.67
43.33
46.26
48.43
49.89
50.71
51.03
50.93
50.54
49.99
49.40
48.86
48.37
47.78
46.81
45.18
42.62
39.06
34.73
30.05
25.48
21.36
17.66
14.06
10.07
5.32
-0.23
-6.30
-12.39
-18.08
-23.10
-27.41
-31.20
-34.84
-38.80
-43.60
-49.60
-56.73
-64.33
-71.18
-75.74
-76.67
-73.36
-66.09
-55.97
-44.52
-33.10
-22.70
-13.72
-6.19
0.11
5.42
9.97
13.93
17.42
20.51
23.13
25.16
26.48
26.97
26.61
25.38
23.32
20.50
17.10
13.41
9.73
6.24
2.74
-1.33
-6.69
-13.84
-22.77
-32.81
-42.85
-51.79
-58.99
-64.53
-69.06
-73.48
-78.58
-84.83
-92.30
-100.79
-109.88
-119.14
-128.19
-136.83
-145.17
-153.76
-163.44
-175.05
-188.93
-204.45
-219.84
-232.47
-239.47
-238.58
-228.81
-210.66
-185.85
-156.81
-125.90
-95.02
-65.37
-37.52
-11.66
12.19
34.10
54.22
72.78
90.05
106.18
121.16
134.68
146.35
155.82
163.00
168.15
171.77
174.44
176.48
177.85
178.15
176.73
173.02
166.66
157.61
146.16
132.76
118.00
102.57
87.18
72.53
59.12
47.16
36.34
26.02
15.39
3.82
-8.94
-22.66
-36.69
-49.97
-61.24
-69.16
-72.63
-71.15
-64.99
-55.26
-43.55
-31.45
-19.98
-9.51
0.17
9.37
18.10
25.90
32.08
36.00
37.43
36.64
34.31
31.28
28.26
25.64
23.54
21.89
20.48
19.04
17.21
14.48
10.28
4.13
-4.15
-14.28
-25.43
-36.39
-46.02
-53.59
-59.17
-63.69
-68.70
-75.82
-86.23
-100.19
-116.80
-134.21
-149.97
-161.64
-167.41
-166.38
-158.83
-145.96
-129.58
-111.63
-93.83
-77.27
-62.34
-48.79
-35.97
-23.39
-11.12
-0.07
8.15
11.78
9.78
2.50
-7.93
-18.04
-24.03
-23.00
-14.02
1.63
20.85
39.80
54.88
63.58
64.82
58.80
46.89
31.38
15.31
2.11
-4.99
-3.74
6.51
24.63
47.90
72.82
96.03
115.17
129.51
140.14
149.47
160.21
174.20
191.52
210.38
227.87
241.08
248.15
248.62
243.06
232.38
217.45
199.01
178.07
156.05
134.74
115.77
100.05
87.53
77.43
68.74
60.72
53.27
46.82
41.97
39.15
38.31
38.90
39.98
40.62
40.08
38.01
34.47
29.81
24.49
18.84
12.96
6.66
-0.42
-8.60
-17.88
-27.74
-37.14
-44.66
-48.88
-48.77
-44.06
-35.30
-23.73
-10.99
1.35
12.10
20.67
27.03
31.52
34.56
36.45
37.28
37.04
35.80
33.85
31.70
30.00
29.26
29.74
31.37
33.72
36.23
38.29
39.37
39.08
37.26
33.96
29.39
23.98
18.17
12.40
6.97
1.97
-2.71
-7.41
-12.58
-18.55
-25.34
-32.48
-39.07
-44.04
-46.53
-46.20
-43.37
-38.87
-33.65
-28.43
-23.53
-18.88
-14.15
-9.05
-3.45
2.52
8.60
14.44
19.77
24.46
28.47
31.84
34.54
36.48
37.57
37.83
37.38
36.49
35.41
34.29
33.08
31.61
29.67
27.14
24.03
20.45
16.54
12.43
8.20
3.83
-0.79
-5.88
-11.66
-18.24
-25.45
-32.68
-38.98
-43.24
-44.54
-42.40
-37.07
-29.34
-20.40
-11.44
-3.35
3.53
9.26
14.18
18.63
22.77
26.54
29.76
32.23
33.84
34.64
34.72
34.26
33.39
32.18
30.65
28.84
26.80
24.65
22.56
20.66
18.92
17.11
14.78
11.55
7.29
2.37
-2.41
-6.13
-8.10
-8.21
-7.03
-5.57
-5.03
-6.42
-10.41
-17.18
-26.37
-37.06
-47.80
-56.85
-62.59
-63.99
-60.84
-53.84
-44.25
-33.54
-22.92
-13.14
-4.53
2.86
8.99
13.81
17.20
19.18
19.97
20.01
19.90
20.10
20.80
21.90
23.06
23.92
24.27
24.10
23.51
22.58
21.26
19.37
16.72
13.21
8.90
4.07
-0.90
-5.58
-9.67
-13.09
-15.98
-18.66
-21.59
-25.14
-29.62
-35.03
-41.14
-47.33
-52.69
-56.12
-56.70
-53.94
-48.02
-39.76
-30.38
-21.08
-12.70
-5.61
0.24
5.12
9.29
12.86
15.81
18.04
19.51
20.30
20.60
20.68
20.76
20.89
21.01
20.94
20.52
19.69
18.58
17.38
16.29
15.31
14.23
12.71
10.46
7.39
3.68
-0.33
-4.30
-8.08
-11.71
-15.38
-19.28
-23.43
-27.82
-32.47
-37.50
-43.10
-49.22
-55.40
-60.67
-63.85
-63.93
-60.54
-54.08
-45.57
-36.27
-27.30
-19.33
-12.63
-7.08
-2.43
1.62
5.32
8.78
12.00
14.88
17.29
19.15
20.39
21.08
21.26
20.98
20.25
19.14
17.74
16.22
14.77
13.50
12.38
11.18
9.58
7.23
3.95
-0.21
-4.92
-9.69
-14.06
-17.70
-20.60
-22.97
-25.21
-27.76
-31.03
-35.32
-40.67
-46.81
-53.10
-58.53
-61.94
-62.39
-59.48
-53.52
-45.42
-36.40
-27.55
-19.57
-12.62
-6.54
-1.03
4.12
8.94
13.32
17.14
20.35
22.94
24.97
26.43
27.25
27.35
26.63
25.16
23.13
20.84
18.64
16.81
15.37
14.17
12.91
11.28
9.06
6.22
2.82
-1.01
-5.07
-9.15
-13.00
-16.44
-19.43
-22.12
-24.88
-28.20
-32.42
-37.61
-43.53
-49.51
-54.73
-58.26
-59.30
-57.33
-52.29
-44.67
-35.43
-25.79
-16.85
-9.37
-3.55
0.81
4.17
6.96
9.41
11.58
13.45
15.02
16.33
17.52
18.62
19.59
20.28
20.51
20.14
19.18
17.84
16.43
15.28
14.52
14.02
13.34
11.98
9.63
6.29
2.35
-1.62
-5.13
-7.93
-10.13
-12.05
-14.10
-16.66
-20.07
-24.56
-30.20
-36.74
-43.47
-49.30
-52.98
-53.56
-50.67
-44.74
-36.78
-28.09
-19.85
-12.78
-7.07
-2.56
1.11
4.22
6.90
9.17
10.99
12.40
13.58
14.74
16.03
17.43
18.73
19.65
20.05
19.97
19.67
19.42
19.35
19.38
19.19
18.41
16.77
14.18
10.78
6.81
2.56
-1.73
-5.89
-9.82
-13.49
-16.96
-20.36
-23.91
-27.82
-32.27
-37.27
-42.54
-47.49
-51.27
-52.98
-51.98
-48.10
-41.77
-33.83
-25.34
-17.22
-10.05
-4.01
1.03
5.32
9.04
12.26
14.95
17.04
18.58
19.68
20.55
21.37
22.22
23.06
23.82
24.43
24.92
25.31
25.58
25.59
25.13
24.04
22.25
19.86
16.99
13.76
10.18
6.25
2.07
-2.17
-6.19
-9.80
-12.98
-15.98
-19.16
-22.89
-27.35
-32.53
-38.16
-43.77
-48.67
-52.05
-53.12
-51.42
-46.94
-40.16
-31.93
-23.15
-14.54
-6.56
0.58
6.80
12.05
16.31
19.61
22.00
23.56
24.41
24.60
24.26
23.54
22.68
21.89
21.28
20.85
20.51
20.09
19.48
18.63
17.51
16.03
14.12
11.69
8.71
5.28
1.57
-2.21
-5.85
-9.22
-12.27
-15.01
-17.52
-19.94
-22.51
-25.49
-29.21
-33.81
-39.21
-44.90
-50.00
-53.42
-54.17
-51.72
-46.13
-38.06
-28.58
-18.80
-9.61
-1.53
5.28
10.96
15.77
19.97
23.67
26.90
29.52
31.46
32.71
33.38
33.71
33.87
33.94
33.87
33.59
33.05
32.30
31.45
30.57
29.65
28.55
27.05
24.96
22.13
18.50
14.15
9.27
4.17
-0.79
-5.31
-9.26
-12.71
-15.93
-19.26
-23.04
-27.52
-32.86
-39.04
-45.78
-52.37
-57.78
-60.79
-60.46
-56.44
-49.19
-39.84
-29.75
-20.08
-11.49
-4.16
2.06
7.38
11.99
16.00
19.48
22.47
24.93
26.80
27.98
28.42
28.21
27.58
26.78
26.07
25.61
25.46
25.61
25.92
26.19
26.13
25.43
23.87
21.41
18.25
14.71
11.07
7.47
3.89
0.16
-3.88
-8.23
-12.71
-17.02
-20.89
-24.24
-27.26
-30.37
-34.10
-38.86
-44.70
-51.23
-57.54
-62.45
-64.80
-63.78
-59.27
-51.80
-42.43
-32.37
-22.70
-14.07
-6.69
-0.41
5.09
10.14
14.87
19.28
23.23
26.57
29.21
31.23
32.82
34.17
35.40
36.50
37.36
37.83
37.93
37.76
37.45
37.01
36.25
34.87
32.66
29.62
26.01
22.29
18.87
15.92
13.29
10.65
7.63
4.03
-0.09
-4.51
-8.93
-13.10
-16.92
-20.42
-23.81
-27.37
-31.47
-36.42
-42.35
-49.14
-56.24
-62.73
-67.41
-69.10
-67.10
-61.36
-52.67
-42.33
-31.78
-22.14
-13.95
-7.13
-1.23
4.21
9.44
14.42
18.91
22.68
25.67
28.03
30.00
31.78
33.37
34.60
35.26
35.28
34.84
34.30
34.01
34.09
34.25
34.03
32.93
30.75
27.64
24.02
20.34
16.90
13.68
10.52
7.17
3.48
-0.54
-4.76
-8.99
-13.06
-16.86
-20.38
-23.70
-27.02
-30.66
-34.98
-40.24
-46.38
-52.86
-58.69
-62.61
-63.51
-60.81
-54.71
-46.13
-36.40
-26.72
-17.89
-10.15
-3.38
2.63
7.95
12.48
16.04
18.52
19.96
20.55
20.50
20.03
19.27
18.33
17.27
16.14
14.99
13.79
12.50
10.98
9.07
6.66
3.73
0.46
-2.80
-5.61
-7.61
-8.67
-8.96
-8.90
-9.00
-9.62
-10.92
-12.81
-15.09
-17.59
-20.28
-23.28
-26.88
-31.46
-37.32
-44.59
-52.94
-61.51
-68.97
-73.82
-74.81
-71.45
-64.12
-53.99
-42.59
-31.33
-21.15
-12.32
-4.72
2.00
8.16
13.89
19.15
23.89
28.09
31.82
35.19
38.30
41.15
43.69
45.85
47.64
49.15
50.58
52.05
53.58
55.03
56.21
56.97
57.26
57.13
56.57
55.55
53.87
51.34
47.81
43.35
38.21
32.74
27.29
22.07
17.10
12.22
7.12
1.42
-5.22
-12.98
-21.66
-30.58
-38.58
-44.30
-46.58
-44.88
-39.50
-31.50
-22.31
-13.27
-5.27
1.38
6.81
11.38
15.41
19.08
22.44
25.42
27.93
29.84
31.09
31.69
31.75
31.49
31.12
30.79
30.57
30.41
30.22
29.84
29.13
27.95
26.23
23.98
21.32
18.52
15.78
13.25
10.80
8.15
4.86
0.62
-4.65
-10.69
-17.03
-23.13
-28.59
-33.37
-37.79
-42.46
-47.94
-54.47
-61.71
-68.66
-73.96
-76.21
-74.52
-68.74
-59.57
-48.29
-36.36
-25.05
-15.14
-6.84
0.10
6.12
11.72
17.25
22.81
28.32
33.51
38.07
41.76
44.44
46.10
46.81
46.77
46.18
45.33
44.41
43.54
42.67
41.60
40.08
37.91
35.02
31.47
27.42
22.98
18.23
13.19
7.94
2.64
-2.46
-7.17
-11.37
-15.09
-18.48
-21.78
-25.28
-29.32
-34.19
-39.97
-46.37
-52.62
-57.53
-59.84
-58.67
-53.84
-46.00
-36.30
-26.06
-16.26
-7.38
0.52
7.58
13.90
19.48
24.23
28.09
31.15
33.52
35.32
36.65
37.51
37.94
38.04
38.01
38.06
38.28
38.59
38.75
38.39
37.18
35.04
32.07
28.58
24.89
21.25
17.74
14.25
10.63
6.77
2.71
-1.45
-5.56
-9.54
-13.37
-17.12
-20.93
-25.05
-29.83
-35.68
-42.86
-51.21
-59.96
-67.76
-73.00
-74.39
-71.30
-64.08
-53.86
-42.16
-30.40
-19.54
-10.02
-1.77
5.48
12.05
18.10
23.63
28.53
32.67
36.01
38.58
40.45
41.68
42.28
42.30
41.86
41.15
40.46
40.03
39.96
40.12
40.23
39.91
38.80
36.68
33.59
29.77
25.69
21.76
18.19
14.83
11.26
7.03
1.91
-3.91
-9.95
-15.63
-20.58
-24.78
-28.61
-32.64
-37.48
-43.57
-50.98
-59.35
-67.79
-75.02
-79.65
-80.53
-77.13
-69.74
-59.37
-47.45
-35.42
-24.39
-14.86
-6.83
0.10
6.41
12.48
18.36
23.90
28.84
32.97
36.29
38.93
41.04
42.77
44.14
45.13
45.79
46.20
46.45
46.61
46.66
46.48
45.94
44.89
43.26
40.96
37.98
34.37
30.29
25.99
21.76
17.84
14.32
11.05
7.80
4.27
0.28
-4.15
-8.84
-13.50
-17.89
-21.92
-25.74
-29.66
-34.13
-39.53
-46.10
-53.73
-61.81
-69.26
-74.74
-76.98
-75.14
-69.24
-60.04
-48.91
-37.33
-26.54
-17.20
-9.46
-3.00
2.68
7.98
13.17
18.29
23.28
28.00
32.40
36.44
40.09
43.23
45.67
47.25
47.92
47.86
47.40
46.92
46.62
46.48
46.21
45.45
43.94
41.61
38.67
35.39
31.99
28.56
25.09
21.53
17.87
14.16
10.46
6.69
2.70
-1.70
-6.58
-11.83
-17.19
-22.37
-27.24
-31.89
-36.62
-41.80
-47.76
-54.59
-62.17
-70.06
-77.48
-83.42
-86.74
-86.55
-82.44
-74.79
-64.63
-53.41
-42.50
-32.83
-24.64
-17.69
-11.48
-5.59
0.12
5.57
10.60
15.11
19.14
22.80
26.11
29.02
31.35
33.02
34.09
34.77
35.30
35.83
36.24
36.25
35.58
34.10
31.96
29.50
27.10
24.98
23.10
21.22
18.98
16.14
12.61
8.51
4.12
-0.21
-4.18
-7.59
-10.46
-12.98
-15.57
-18.72
-22.89
-28.29
-34.69
-41.33
-47.02
-50.43
-50.49
-46.76
-39.69
-30.38
-20.28
-10.67
-2.25
4.81
10.76
15.87
20.29
24.00
26.90
29.04
30.55
31.67
32.51
33.11
33.42
33.47
33.33
33.11
32.89
32.63
32.23
31.51
30.40
28.88
26.95
24.67
22.08
19.21
16.09
12.75
9.16
5.30
1.23
-2.90
-6.91
-10.67
-14.17
-17.54
-21.08
-25.05
-29.74
-35.30
-41.63
-48.32
-54.55
-59.15
-60.98
-59.23
-53.78
-45.31
-35.06
-24.44
-14.67
-6.45
0.04
5.07
9.06
12.43
15.45
18.19
20.56
22.52
24.11
25.53
27.00
28.62
30.34
31.91
33.10
33.78
34.04
34.02
33.82
33.42
32.60
31.14
28.89
25.89
22.31
18.43
14.44
10.41
6.27
1.91
-2.73
-7.54
-12.29
-16.72
-20.60
-23.99
-27.29
-31.12
-36.16
-42.76
-50.68
-58.96
-66.12
-70.60
-71.25
-67.70
-60.47
-50.74
-39.89
-29.16
-19.35
-10.82
-3.59
2.55
7.91
12.81
17.58
22.35
27.01
31.31
34.85
37.37
38.84
39.44
39.52
39.37
39.16
38.93
38.67
38.34
37.89
37.19
35.98
34.00
31.14
27.49
23.41
19.34
15.58
12.18
8.94
5.52
1.71
-2.53
-6.99
-11.41
-15.57
-19.42
-23.09
-26.89
-31.23
-36.47
-42.86
-50.25
-58.06
-65.25
-70.56
-72.80
-71.27
-66.05
-57.91
-48.15
-38.10
-28.75
-20.52
-13.32
-6.83
-0.68
5.26
10.96
16.23
20.94
25.02
28.51
31.54
34.17
36.48
38.47
40.14
41.47
42.45
43.13
43.55
43.84
44.10
44.32
44.36
43.94
42.74
40.60
37.56
33.93
30.12
26.53
23.27
20.25
17.17
13.68
9.56
4.76
-0.56
-6.17
-11.78
-17.18
-22.26
-27.01
-31.56
-36.20
-41.30
-47.21
-54.03
-61.47
-68.67
-74.42
-77.39
-76.67
-72.03
-64.09
-54.06
-43.30
-32.98
-23.74
-15.76
-8.84
-2.66
3.13
8.76
14.34
19.87
25.19
30.06
34.21
37.42
39.62
40.94
41.64
42.07
42.47
42.94
43.43
43.83
43.97
43.74
43.06
41.81
39.88
37.18
33.82
30.09
26.38
23.04
20.17
17.61
14.94
11.78
7.90
3.28
-1.87
-7.28
-12.69
-17.89
-22.68
-26.97
-30.76
-34.20
-37.66
-41.63
-46.56
-52.66
-59.66
-66.71
-72.55
-75.79
-75.40
-71.03
-63.18
-53.02
-41.98
-31.29
-21.75
-13.55
-6.51
-0.24
5.60
11.17
16.46
21.37
25.75
29.52
32.66
35.16
37.03
38.32
39.12
39.60
40.00
40.58
41.45
42.54
43.58
44.21
44.11
43.06
41.06
38.23
34.82
31.12
27.40
23.89
20.64
17.55
14.31
10.60
6.17
1.07
-4.41
-9.79
-14.64
-18.76
-22.28
-25.65
-29.47
-34.31
-40.52
-48.04
-56.31
-64.34
-70.90
-74.82
-75.26
-71.92
-65.15
-55.82
-45.12
-34.32
-24.44
-16.13
-9.49
-4.13
0.61
5.37
10.54
16.04
21.48
26.37
30.35
33.40
35.68
37.46
38.94
40.23
41.36
42.41
43.50
44.75
46.08
47.24
47.83
47.44
45.86
43.13
39.58
35.60
31.56
27.69
24.03
20.47
16.77
12.68
8.01
2.76
-2.87
-8.53
-13.82
-18.52
-22.64
-26.49
-30.50
-35.09
-40.61
-47.18
-54.68
-62.61
-70.09
-75.94
-78.95
-78.21
-73.52
-65.47
-55.25
-44.25
-33.60
-23.99
-15.55
-8.13
-1.43
4.84
10.85
16.71
22.36
27.65
32.38
36.34
39.47
41.86
43.72
45.29
46.74
48.06
49.17
49.95
50.31
50.22
49.71
48.71
47.19
45.06
42.29
38.97
35.26
31.38
27.49
23.68
19.93
16.22
12.58
9.03
5.57
2.08
-1.65
-5.79
-10.39
-15.30
-20.23
-24.90
-29.21
-33.35
-37.76
-42.95
-49.34
-57.03
-65.68
-74.50
-82.37
-88.02
-90.37
-88.79
-83.28
-74.50
-63.61
-52.03
-40.99
-31.33
-23.29
-16.59
-10.64
-4.87
1.09
7.27
13.38
19.03
23.88
27.75
30.68
32.83
34.46
35.83
37.16
38.61
40.29
42.21
44.26
46.20
47.71
48.47
48.22
46.90
44.62
41.62
38.24
34.80
31.52
28.51
25.71
22.93
19.90
16.38
12.19
7.35
2.06
-3.32
-8.40
-12.92
-16.82
-20.28
-23.71
-27.58
-32.32
-38.16
-45.01
-52.47
-59.74
-65.78
-69.49
-69.95
-66.74
-60.07
-50.80
-40.19
-29.56
-19.89
-11.67
-4.85
0.93
6.13
11.03
15.68
19.97
23.74
26.93
29.62
31.93
33.94
35.56
36.63
37.08
37.03
36.83
36.90
37.57
38.83
40.40
41.82
42.65
42.65
41.71
39.90
37.30
34.06
30.28
26.16
21.90
17.60
13.33
9.05
4.74
0.37
-4.04
-8.49
-12.97
-17.46
-21.94
-26.34
-30.70
-35.18
-40.12
-45.85
-52.55
-59.99
-67.42
-73.71
-77.53
-77.78
-73.98
-66.46
-56.30
-45.07
-34.28
-24.91
-17.15
-10.55
-4.42
1.72
7.96
13.97
19.36
23.91
27.68
30.88
33.70
36.17
38.23
39.84
41.05
42.04
42.96
43.89
44.76
45.39
45.60
45.25
44.26
42.61
40.32
37.46
34.16
30.60
26.95
23.28
19.59
15.76
11.64
7.12
2.19
-3.01
-8.24
-13.22
-17.72
-21.68
-25.32
-28.99
-33.15
-38.17
-44.24
-51.30
-59.03
-66.81
-73.76
-78.78
-80.72
-78.75
-72.68
-63.15
-51.55
-39.58
-28.71
-19.70
-12.49
-6.43
-0.76
5.03
10.97
16.73
21.86
26.09
29.40
32.01
34.19
36.08
37.68
38.91
39.69
40.11
40.32
40.53
40.87
41.23
41.37
40.91
39.56
37.20
33.92
29.98
25.77
21.66
17.92
14.65
11.72
8.87
5.76
2.11
-2.10
-6.72
-11.41
-15.87
-19.94
-23.71
-27.46
-31.59
-36.49
-42.48
-49.64
-57.69
-65.89
-73.01
-77.67
-78.67
-75.51
-68.49
-58.72
-47.61
-36.46
-26.11
-16.89
-8.69
-1.30
5.55
11.98
17.98
23.47
28.24
32.14
35.12
37.27
38.85
40.14
41.32
42.44
43.46
44.33
45.05
45.59
45.87
45.68
44.73
42.77
39.76
35.85
31.34
26.61
21.94
17.44
13.05
8.64
4.01
-0.95
-6.19
-11.47
-16.50
-20.99
-24.91
-28.52
-32.39
-37.14
-43.20
-50.57
-58.67
-66.45
-72.53
-75.60
-74.78
-69.88
-61.52
-50.96
-39.72
-29.15
-20.02
-12.48
-6.13
-0.39
5.23
10.84
16.29
21.23
25.37
28.55
30.81
32.35
33.38
34.20
35.02
35.95
36.97
37.89
38.39
38.22
37.25
35.52
33.28
30.78
28.13
25.33
22.20
18.60
14.47
9.94
5.24
0.61
-3.70
-7.60
-11.08
-14.25
-17.38
-20.84
-25.10
-30.62
-37.63
-45.90
-54.60
-62.36
-67.61
-69.04
-66.09
-59.18
-49.50
-38.60
-27.85
-18.09
-9.50
-1.84
5.27
12.13
18.77
25.09
30.80
35.64
39.40
42.05
43.72
44.70
45.30
45.75
46.15
46.39
46.25
45.57
44.26
42.32
39.86
36.94
33.58
29.77
25.43
20.59
15.33
9.85
4.36
-0.93
-5.89
-10.51
-14.87
-19.10
-23.37
-27.92
-33.04
-39.10
-46.24
-54.20
-62.18
-68.84
-72.75
-72.76
-68.52
-60.47
-49.77
-37.82
-25.83
-14.62
-4.57
4.24
11.92
18.68
24.75
30.34
35.53
40.27
44.32
47.43
49.47
50.55
50.97
51.13
51.30
51.54
51.69
51.49
50.74
49.36
47.40
44.95
42.08
38.76
34.92
30.52
25.60
20.26
14.69
9.08
3.59
-1.67
-6.63
-11.30
-15.75
-20.16
-24.82
-30.13
-36.47
-43.99
-52.33
-60.54
-67.22
-70.80
-70.20
-65.15
-56.32
-45.12
-33.09
-21.52
-11.10
-1.97
6.06
13.28
19.92
26.05
31.64
36.61
40.84
44.24
46.75
48.37
49.15
49.22
48.76
48.02
47.28
46.73
46.46
46.37
46.16
45.42
43.76
40.94
37.00
32.22
27.08
22.00
17.22
12.71
8.26
3.59
-1.46
-6.80
-12.21
-17.44
-22.34
-26.96
-31.54
-36.45
-42.11
-48.94
-57.09
-66.34
-75.86
-84.20
-89.61
-90.58
-86.38
-77.39
-65.00
-51.13
-37.62
-25.64
-15.54
-7.02
0.49
7.49
14.15
20.32
25.72
30.07
33.27
35.39
36.62
37.19
37.24
36.87
36.14
35.04
33.55
31.56
28.87
25.26
20.62
15.04
8.90
2.74
-2.89
-7.66
-11.49
-14.53
-17.06
-19.41
-21.97
-25.16
-29.42
-35.06
-42.14
-50.28
-58.73
-66.53
-72.76
-76.74
-78.18
-77.15
-74.08
-69.63
-64.56
-59.55
-54.91
-50.42
-45.37
-38.68
-29.40
-17.09
-2.07
14.62
31.57
47.42
61.18
72.36
80.92
87.13
91.35
94.05
95.67
96.58
97.01
96.96
96.36
95.23
93.81
92.55
91.83
91.71
91.75
91.22
89.34
85.74
80.50
74.01
66.67
58.62
49.77
40.00
29.49
18.77
8.58
-0.50
-8.25
-14.84
-20.71
-26.26
-31.64
-36.71
-41.19
-44.80
-47.49
-49.46
-51.13
-53.06
-55.75
-59.55
-64.44
-69.92
-75.05
-78.58
-79.41
-76.86
-70.98
-62.44
-52.36
-41.89
-31.92
-23.00
-15.42
-9.26
-4.54
-1.18
1.04
2.49
3.52
4.47
5.39
6.21
6.71
6.68
6.06
4.93
3.52
2.02
0.60
-0.77
-2.18
-3.79
-5.64
-7.70
-9.80
-11.78
-13.57
-15.21
-16.89
-18.75
-20.92
-23.37
-26.04
-28.81
-31.71
-34.90
-38.65
-43.35
-49.40
-57.07
-66.32
-76.64
-87.00
-95.98
-102.12
-104.36
-102.31
-96.37
-87.51
-76.95
-65.75
-54.58
-43.73
-33.17
-22.76
-12.39
-2.04
8.15
17.84
26.62
34.04
39.85
43.98
46.62
48.09
48.73
48.76
48.33
47.49
46.38
45.20
44.23
43.74
43.91
44.73
46.08
47.66
49.10
50.02
50.11
49.19
47.23
44.32
40.60
36.20
31.17
25.51
19.23
12.32
4.83
-3.10
-11.20
-18.96
-25.60
-30.19
-31.81
-29.98
-24.83
-17.16
-8.14
1.02
9.48
16.95
23.59
29.78
35.83
41.85
47.73
53.21
58.00
61.91
64.85
66.84
68.07
68.76
69.05
68.99
68.41
67.16
65.13
62.37
59.08
55.45
51.53
47.22
42.34
36.87
31.02
25.24
19.96
15.41
11.44
7.69
3.71
-0.81
-6.04
-12.06
-18.95
-26.73
-35.15
-43.52
-50.70
-55.31
-56.21
-52.92
-45.80
-36.01
-25.14
-14.65
-5.61
1.60
7.15
11.61
15.54
19.40
23.29
27.03
30.31
32.80
34.41
35.18
35.38
35.32
35.25
35.27
35.31
35.21
34.82
34.02
32.84
31.36
29.61
27.62
25.32
22.65
19.58
16.13
12.36
8.25
3.74
-1.21
-6.58
-12.12
-17.51
-22.38
-26.58
-30.34
-34.24
-39.02
-45.31
-53.20
-62.11
-70.79
-77.60
-81.08
-80.26
-75.08
-66.31
-55.36
-43.74
-32.73
-23.03
-14.77
-7.62
-1.14
4.99
10.83
16.20
20.90
24.82
28.03
30.73
33.11
35.24
37.04
38.32
38.99
39.05
38.67
38.08
37.39
36.56
35.41
33.72
31.40
28.50
25.24
21.90
18.62
15.43
12.15
8.52
4.35
-0.38
-5.47
-10.61
-15.45
-19.79
-23.70
-27.46
-31.44
-36.04
-41.49
-47.86
-55.02
-62.59
-69.81
-75.54
-78.50
-77.61
-72.39
-63.33
-51.70
-39.20
-27.35
-17.10
-8.63
-1.60
4.54
10.22
15.61
20.67
25.28
29.35
32.85
35.80
38.23
40.16
41.57
42.46
42.85
42.82
42.50
42.08
41.67
41.26
40.71
39.74
38.11
35.75
32.83
29.70
26.73
24.12
21.80
19.48
16.76
13.35
9.16
4.35
-0.76
-5.85
-10.71
-15.28
-19.66
-24.09
-28.89
-34.39
-40.84
-48.21
-56.04
-63.34
-68.75
-70.93
-69.04
-63.08
-53.99
-43.29
-32.54
-22.91
-14.82
-8.17
-2.53
2.50
7.05
11.13
14.61
17.46
19.75
21.61
23.16
24.45
25.47
26.18
26.58
26.79
26.96
27.22
27.59
27.85
27.67
26.70
24.76
22.02
18.89
15.89
13.40
11.52
10.02
8.47
6.43
3.63
0.12
-3.83
-7.82
-11.48
-14.66
-17.46
-20.25
-23.48
-27.62
-32.93
-39.42
-46.70
-53.98
-60.15
-63.99
-64.51
-61.27
-54.57
-45.36
-34.94
-24.60
-15.25
-7.32
-0.89
4.19
8.13
11.15
13.50
15.41
17.09
18.69
20.24
21.70
23.04
24.29
25.55
26.90
28.34
29.73
30.82
31.37
31.23
30.43
29.11
27.42
25.46
23.25
20.67
17.62
14.05
10.01
5.70
1.43
-2.53
-5.97
-8.87
-11.41
-13.93
-16.84
-20.54
-25.29
-31.16
-37.83
-44.58
-50.31
-53.80
-54.07
-50.76
-44.30
-35.73
-26.39
-17.44
-9.58
-3.00
2.47
7.11
11.12
14.61
17.57
19.99
21.87
23.28
24.31
25.12
25.89
26.78
27.82
28.89
29.77
30.16
29.87
28.86
27.26
25.28
23.12
20.86
18.49
15.96
13.25
10.36
7.30
4.05
0.56
-3.20
-7.17
-11.17
-14.96
-18.41
-21.64
-25.08
-29.38
-35.01
-42.02
-49.69
-56.72
-61.50
-62.67
-59.59
-52.57
-42.78
-31.78
-21.12
-11.82
-4.29
1.62
6.33
10.31
13.90
17.23
20.32
23.12
25.56
27.59
29.22
30.43
31.25
31.76
32.05
32.23
32.38
32.53
32.64
32.62
32.34
31.66
30.43
28.60
26.13
23.15
19.86
16.51
13.31
10.26
7.21
3.85
-0.04
-4.43
-9.04
-13.47
-17.37
-20.68
-23.66
-26.77
-30.49
-35.19
-41.02
-47.91
-55.49
-63.03
-69.47
-73.51
-74.05
-70.51
-63.19
-53.24
-42.24
-31.76
-22.80
-15.64
-9.88
-4.79
0.30
5.77
11.57
17.37
22.68
27.08
30.32
32.37
33.39
33.64
33.42
33.02
32.68
32.55
32.70
33.10
33.59
33.92
33.76
32.82
30.88
27.94
24.21
20.08
16.03
12.45
9.56
7.37
5.65
4.06
2.23
-0.07
-2.96
-6.33
-9.90
-13.35
-16.40
-18.94
-21.16
-23.47
-26.46
-30.69
-36.46
-43.59
-51.36
-58.52
-63.63
-65.40
-63.16
-57.05
-48.00
-37.44
-26.86
-17.41
-9.64
-3.58
1.13
4.97
8.38
11.68
15.02
18.38
21.63
24.56
27.00
28.88
30.23
31.20
31.93
32.57
33.18
33.74
34.15
34.23
33.81
32.75
31.00
28.62
25.78
22.70
19.62
16.75
14.21
12.03
10.09
8.18
6.01
3.31
-0.02
-3.93
-8.18
-12.50
-16.60
-20.29
-23.56
-26.48
-29.31
-32.38
-36.11
-40.84
-46.69
-53.46
-60.56
-67.04
-71.80
-73.85
-72.58
-67.96
-60.55
-51.38
-41.60
-32.26
-24.00
-17.01
-11.15
-6.14
-1.72
2.25
5.80
8.93
11.65
14.04
16.16
18.10
19.92
21.69
23.50
25.37
27.29
29.09
30.56
31.45
31.60
30.99
29.72
27.94
25.77
23.29
20.52
17.53
14.39
11.15
7.86
4.49
1.09
-2.24
-5.34
-8.11
-10.66
-13.38
-16.83
-21.49
-27.43
-34.04
-40.18
-44.40
-45.53
-43.03
-37.20
-29.04
-19.83
-10.81
-2.80
3.84
9.16
13.43
16.93
19.86
22.30
24.27
25.75
26.78
27.41
27.72
27.83
27.85
27.88
27.95
28.01
27.98
27.74
27.22
26.46
25.43
24.10
22.28
19.73
16.32
12.15
7.54
2.95
-1.33
-5.21
-8.85
-12.53
-16.48
-20.90
-25.91
-31.62
-38.04
-44.90
-51.55
-57.03
-60.25
-60.43
-57.38
-51.50
-43.72
-35.17
-26.81
-19.31
-12.85
-7.33
-2.43
2.15
6.52
10.54
13.90
16.33
17.73
18.29
18.44
18.59
18.98
19.55
20.04
20.14
19.69
18.74
17.54
16.39
15.44
14.72
14.10
13.36
12.27
10.72
8.68
6.24
3.52
0.63
-2.36
-5.43
-8.60
-11.94
-15.58
-19.71
-24.61
-30.41
-37.03
-43.87
-49.91
-53.86
-54.56
-51.37
-44.50
-34.93
-24.09
-13.48
-4.17
3.38
9.30
14.14
18.41
22.50
26.50
30.32
33.76
36.64
38.92
40.63
41.91
42.93
43.86
44.85
45.87
46.76
47.26
47.07
46.03
44.20
41.83
39.20
36.48
33.64
30.48
26.76
22.38
17.44
12.28
7.27
2.73
-1.26
-4.92
-8.59
-12.76
-17.82
-23.99
-31.27
-39.27
-47.31
-54.33
-59.17
-60.77
-58.49
-52.40
-43.31
-32.58
-21.76
-12.08
-4.11
2.20
7.35
11.95
16.36
20.67
24.69
28.23
31.15
33.47
35.27
36.65
37.67
38.40
38.91
39.30
39.66
40.01
40.27
40.28
39.85
38.87
37.28
35.11
32.46
29.47
26.34
23.31
20.57
18.21
16.11
13.92
11.15
7.42
2.64
-2.87
-8.49
-13.57
-17.77
-21.15
-24.20
-27.60
-31.97
-37.72
-44.85
-52.97
-61.24
-68.48
-73.35
-74.74
-72.07
-65.61
-56.31
-45.58
-34.80
-24.97
-16.52
-9.39
-3.18
2.61
8.26
13.83
19.09
23.70
27.35
29.95
31.67
32.84
33.81
34.82
35.92
37.04
38.09
38.96
39.59
39.88
39.73
39.02
37.76
35.99
33.86
31.50
29.01
26.45
23.88
21.26
18.57
15.75
12.72
9.46
6.00
2.44
-1.06
-4.41
-7.65
-10.87
-14.17
-17.64
-21.30
-25.21
-29.50
-34.44
-40.25
-46.86
-53.69
-59.63
-63.31
-63.55
-59.85
-52.62
-43.03
-32.59
-22.64
-13.94
-6.63
-0.46
4.98
9.96
14.60
18.85
22.65
25.91
28.58
30.64
32.06
32.93
33.44
33.81
34.27
34.91
35.68
36.39
36.80
36.75
36.19
35.16
33.77
32.07
30.06
27.63
24.70
21.31
17.63
14.00
10.73
7.98
5.61
3.28
0.60
-2.66
-6.43
-10.41
-14.21
-17.60
-20.54
-23.31
-26.29
-29.93
-34.61
-40.51
-47.51
-55.06
-62.14
-67.44
-69.72
-68.20
-62.89
-54.60
-44.61
-34.29
-24.69
-16.37
-9.42
-3.63
1.43
6.18
10.92
15.79
20.66
25.22
29.13
32.15
34.29
35.79
36.97
38.05
39.08
39.98
40.59
40.83
40.71
40.25
39.47
38.24
36.48
34.12
31.29
28.28
25.44
23.00
20.94
19.05
17.02
14.64
11.95
9.12
6.36
3.70
0.98
-2.16
-5.94
-10.35
-15.09
-19.71
-23.81
-27.27
-30.34
-33.52
-37.42
-42.52
-48.95
-56.37
-63.92
-70.39
-74.47
-75.20
-72.18
-65.78
-56.95
-47.02
-37.21
-28.35
-20.79
-14.39
-8.79
-3.57
1.53
6.57
11.44
15.90
19.70
22.67
24.74
26.04
26.78
27.20
27.55
27.96
28.46
29.08
29.78
30.54
31.27
31.84
32.08
31.81
30.99
29.69
28.12
26.46
24.84
23.23
21.51
19.56
17.33
14.90
12.39
9.90
7.40
4.75
1.78
-1.59
-5.31
-9.20
-13.04
-16.69
-20.14
-23.60
-27.28
-31.43
-36.20
-41.59
-47.49
-53.60
-59.32
-63.78
-65.97
-64.94
-60.25
-52.18
-41.71
-30.28
-19.31
-9.79
-2.06
4.16
9.50
14.61
19.94
25.67
31.70
37.74
43.51
48.76
53.30
57.03
59.88
61.76
62.70
62.80
62.33
61.51
60.48
59.10
56.99
53.67
48.85
42.63
35.52
28.30
21.65
16.03
11.47
7.75
4.48
1.31
-2.04
-5.73
-9.83
-14.32
-19.17
-24.30
-29.67
-35.22
-40.91
-46.67
-52.40
-57.99
-63.27
-68.00
-71.65
-73.41
-72.32
-67.56
-58.93
-47.08
-33.48
-19.96
-8.15
1.01
7.45
11.79
14.93
17.64
20.34
23.03
25.39
26.93
27.12
25.55
22.02
16.60
9.62
1.65
-6.70
-14.86
-22.39
-28.96
-34.36
-38.43
-41.14
-42.64
-43.33
-43.72
-44.35
-45.64
-47.70
-50.44
-53.65
-57.07
-60.44
-63.46
-65.74
-66.79
-66.17
-63.64
-59.36
-53.87
-47.95
-42.42
-37.93
-34.76
-32.75
-31.33
-29.64
-26.74
-21.89
-14.78
-5.69
4.61
15.05
24.63
32.67
39.00
43.84
47.69
51.09
54.42
57.89
61.42
64.73
67.35
68.71
68.31
65.89
61.52
55.61
48.84
41.90
35.34
29.39
23.93
18.53
12.62
5.73
-2.35
-11.44
-21.06
-30.59
-39.52
-47.60
-54.73
-60.84
-65.66
-68.70
-69.48
-67.76
-63.85
-58.49
-52.72
-47.43
-43.14
-39.93
-37.48
-35.27
-32.67
-29.05
-23.91
-17.00
-8.52
0.80
9.94
17.90
24.12
28.64
32.01
35.00
38.22
41.87
45.75
49.46
52.64
55.08
56.79
57.83
58.23
57.86
56.53
54.06
50.46
46.00
41.23
36.84
33.46
31.49
30.85
31.11
31.56
31.54
30.59
28.59
25.71
22.15
18.01
13.11
7.13
-0.24
-9.01
-18.65
-28.11
-35.98
-40.85
-41.69
-38.24
-31.06
-21.43
-10.91
-0.94
7.56
14.32
19.59
23.88
27.68
31.28
34.70
37.76
40.07
41.18
40.64
38.12
33.50
27.02
19.27
11.08
3.35
-3.21
-8.08
-10.93
-11.55
-9.79
-5.77
-0.14
5.70
9.69
9.55
3.56
-8.69
-25.89
-45.21
-62.94
-75.55
-80.39
-76.36
-63.97
-45.25
-23.44
-2.36
14.21
23.42
24.14
17.27
5.59
-6.99
-16.52
-20.06
-16.36
-5.94
9.23
26.39
42.67
55.81
64.55
68.79
69.43
68.03
66.21
65.22
65.55
66.90
68.37
68.82
67.25
63.15
56.63
48.30
39.18
30.34
22.70
16.83
12.89
10.56
9.04
7.15
3.56
-2.88
-12.75
-25.68
-40.26
-54.21
-64.99
-70.43
-69.44
-62.30
-50.50
-36.22
-21.55
-7.94
3.96
14.13
22.72
29.73
34.83
37.45
37.09
33.53
26.98
18.09
7.81
-2.68
-12.15
-19.53
-24.07
-25.61
-24.85
-23.34
-23.37
-27.44
-37.52
-54.38
-77.09
-102.99
-128.39
-149.45
-163.18
-168.23
-165.07
-155.72
-143.20
-130.65
-120.55
-114.17
-111.36
-110.76
-110.41
-108.47
-103.76
-95.98
-85.44
-72.71
-58.25
-42.34
-25.23
-7.46
10.00
25.85
38.69
47.46
51.65
51.44
47.59
41.37
34.24
27.67
22.91
20.79
21.63
25.23
30.90
37.58
43.99
48.84
51.08
50.15
46.14
39.71
32.00
24.26
17.67
13.10
11.09
11.70
14.51
18.58
22.50
24.76
24.10
19.92
12.46
2.67
-7.99
-17.94
-25.58
-29.47
-28.33
-21.24
-7.95
10.86
33.42
57.09
78.87
96.07
106.82
110.41
107.23
98.51
85.96
71.37
56.31
41.91
28.80
17.14
6.81
-2.45
-10.81
-18.36
-25.15
-31.31
-37.20
-43.39
-50.64
-59.63
-70.75
-83.93
-98.61
-113.88
-128.73
-142.32
-154.09
-163.78
-171.40
-176.98
-180.37
-181.07
-178.12
-170.19
-155.90
-134.39
-105.86
-71.99
-35.79
-1.07
28.55
50.58
64.19
70.23
70.68
67.83
63.55
59.07
55.12
52.45
52.34
56.67
67.39
85.54
110.41
139.13
167.23
189.83
203.00
204.75
195.26
176.36
150.76
121.25
90.39
60.34
32.91
9.66
-8.25
-20.17
-26.22
-27.25
-24.79
-20.73
-16.85
-14.41
-13.92
-15.32
-18.40
-23.35
-30.97
-42.50
-58.97
-80.44
-105.44
-131.06
-153.59
-169.58
-176.82
-174.96
-165.42
-150.84
-134.26
-118.34
-105.05
-95.55
-90.17
-88.51
-89.36
-90.83
-90.62
-86.63
-77.68
-63.84
-46.48
-27.68
-9.48
6.78
20.78
33.10
44.86
57.34
71.48
87.60
105.19
122.95
138.99
151.39
158.76
160.64
157.55
150.71
141.51
131.15
120.41
109.72
99.40
89.80
81.28
74.16
68.63
64.65
62.05
60.57
59.86
59.62
59.57
59.48
59.13
58.40
57.18
55.45
53.35
51.10
48.99
47.17
45.57
43.76
41.15
37.21
31.84
25.49
19.23
14.39
12.10
12.91
16.57
22.17
28.47
34.30
38.80
41.43
41.92
40.06
35.80
29.31
21.17
12.38
4.19
-2.24
-6.27
-7.97
-8.05
-7.64
-7.76
-9.09
-11.77
-15.47
-19.57
-23.26
-25.75
-26.27
-24.28
-19.61
-12.65
-4.46
3.45
9.46
12.41
11.97
8.84
4.51
0.77
-0.82
0.64
5.27
12.65
22.14
33.24
45.73
59.49
74.34
89.83
105.26
119.90
133.16
144.77
154.65
162.82
169.24
173.81
176.52
177.48
177.05
175.65
173.65
171.22
168.31
164.72
160.18
154.56
147.87
140.23
131.66
122.04
110.91
97.70
81.95
63.62
43.25
21.91
0.92
-18.54
-35.58
-49.69
-60.64
-68.40
-73.12
-75.14
-75.09
-73.74
-71.94
-70.38
-69.53
-69.60
-70.55
-72.23
-74.48
-77.24
-80.49
-84.25
-88.38
-92.52
-96.07
-98.35
-98.80
-97.21
-93.79
-89.07
-83.68
-78.14
-72.82
-67.95
-63.77
-60.57
-58.66
-58.26
-59.48
-62.29
-66.60
-72.34
-79.43
-87.74
-96.93
-106.34
-114.97
-121.60
-124.91
-123.74
-117.34
-105.56
-88.81
-68.08
-44.62
-19.74
5.38
29.80
52.70
73.31
90.84
104.54
113.89
118.82
119.77
117.53
112.98
106.70
98.78
88.88
76.54
61.64
44.50
25.95
6.96
-11.69
-29.73
-47.30
-64.81
-82.57
-100.63
-118.74
-136.39
-153.05
-168.23
-181.64
-193.20
-203.08
-211.68
-219.54
-227.25
-235.26
-243.72
-252.45
-260.98
-268.59
-274.39
-277.39
-276.56
-271.07
-260.61
-245.73
-227.78
-208.61
-189.98
-172.84
-156.98
-141.11
-123.25
-101.36
-73.71
-39.43
1.09
45.76
90.78
131.30
162.71
182.24
189.92
188.53
182.30
175.12
169.16
164.57
160.09
154.28
146.37
136.49
125.32
113.67
102.26
91.83
83.24
77.52
75.46
77.33
82.52
89.51
96.29
