1520266953.00
64.000000
-0.00
-0.00
-0.00
-0.00
-0.00
-0.00
-0.00
-0.00
-0.00
-0.00
0.00
0.01
0.01
-0.00
-0.03
-0.05
-0.05
0.00
0.13
0.36
0.66
1.01
1.37
1.72
2.06
2.40
2.79
3.24
3.80
4.42
5.06
5.66
6.20
6.68
7.15
7.68
8.31
9.14
10.09
11.04
11.88
12.56
13.14
13.76
14.65
15.96
17.91
20.32
22.90
25.38
27.58
29.57
31.68
34.32
37.81
42.54
48.15
54.10
59.83
64.97
69.58
74.14
79.34
85.71
93.76
103.00
112.62
121.73
129.77
136.75
143.30
150.75
157.77
166.64
177.95
191.79
206.97
220.57
228.25
225.36
208.53
176.87
132.76
80.05
23.07
-34.94
-92.44
-149.16
-205.23
-260.37
-313.74
-363.87
-409.83
-450.91
-486.50
-515.74
-537.23
-549.22
-549.96
-538.37
-514.21
-478.67
-433.88
-382.45
-327.02
-269.84
-212.63
-156.66
-102.95
-52.37
-5.90
35.58
71.43
101.35
125.50
144.38
158.69
169.15
176.37
180.75
182.57
182.07
179.51
175.23
169.65
163.18
156.15
148.81
141.30
133.69
126.02
118.33
110.69
103.16
95.80
88.68
81.83
75.25
68.95
62.95
57.25
51.86
46.78
42.03
37.59
33.45
29.61
26.07
22.81
19.83
17.11
14.67
12.48
10.54
8.83
7.35
6.07
4.97
4.05
3.27
2.62
2.09
1.65
1.30
1.01
0.79
0.61
0.48
0.37
0.29
0.22
0.18
0.14
0.11
0.09
0.08
0.07
0.06
0.06
0.06
0.06
0.07
0.09
0.11
0.13
0.16
0.19
0.23
0.27
0.31
0.36
0.40
0.45
0.50
0.55
0.60
0.66
0.72
0.79
0.86
0.94
1.03
1.12
1.23
1.34
1.47
1.61
1.77
1.94
2.13
2.36
2.61
2.90
3.20
3.50
3.80
4.10
4.41
4.76
5.17
5.66
6.22
6.83
7.47
8.12
8.77
9.46
10.21
11.05
11.99
13.01
14.08
15.16
16.22
17.23
18.25
19.32
20.48
21.69
22.79
23.58
23.79
23.19
21.69
19.32
16.25
12.68
8.75
4.53
-0.05
-5.04
-10.43
-16.03
-21.43
-26.16
-29.79
-32.20
-33.57
-34.43
-35.36
-36.83
-38.95
-41.43
-43.76
-45.45
-46.21
-46.11
-45.53
-44.93
-44.78
-45.54
-47.53
-50.75
-54.57
-57.50
-57.55
-52.86
-42.58
-27.51
-9.88
7.37
21.76
32.15
38.82
42.89
45.45
46.98
47.25
45.85
42.76
38.56
34.25
30.72
28.40
27.07
26.11
24.83
22.93
20.56
18.16
16.22
14.95
14.25
13.80
13.28
12.46
11.31
9.82
8.01
5.81
3.20
0.28
-2.82
-5.96
-9.12
-12.41
-16.08
-20.32
-25.12
-30.18
-35.02
-39.31
-43.01
-46.46
-50.27
-55.03
-61.04
-68.24
-76.08
-83.67
-89.83
-93.30
-92.92
-87.95
-78.22
-64.34
-47.51
-29.29
-11.16
5.85
21.27
35.11
47.58
58.88
69.02
77.75
84.67
89.33
91.27
90.19
86.01
78.95
69.67
59.21
48.81
39.68
32.77
28.55
27.01
27.68
29.78
32.46
35.08
37.41
39.70
42.41
45.92
50.11
54.28
57.23
57.75
55.01
48.79
39.50
27.95
15.17
2.21
-9.91
-20.29
-28.32
-33.76
-36.81
-37.99
-37.93
-37.15
-35.98
-34.65
-33.32
-32.24
-31.70
-31.97
-33.26
-35.75
-39.49
-44.50
-50.69
-57.91
-65.90
-74.29
-82.48
-89.58
-94.49
-95.98
-93.09
-85.45
-73.44
-58.16
-41.22
-24.31
-8.84
4.30
14.84
23.10
29.77
35.66
41.38
47.03
52.25
56.41
59.01
59.94
59.56
58.57
57.70
57.44
57.92
59.01
60.36
61.58
62.31
62.26
61.33
59.57
57.21
54.57
51.97
49.66
47.84
46.62
46.04
46.02
46.25
46.30
45.71
44.14
41.46
37.70
32.96
27.31
20.75
13.34
5.28
-3.02
-11.05
-18.20
-23.96
-28.02
-30.45
-31.80
-33.08
-35.46
-39.84
-46.43
-54.68
-63.56
-72.05
-79.55
-86.02
-91.72
-96.93
-101.49
-104.88
-106.30
-104.95
-100.24
-91.93
-80.18
-65.58
-49.15
-32.22
-16.10
-1.83
10.06
19.55
26.96
32.73
37.24
40.78
43.64
46.18
48.78
51.67
54.86
57.98
60.49
61.86
61.82
60.42
58.02
55.06
51.91
48.83
45.98
43.43
41.26
39.46
37.94
36.57
35.20
33.72
32.06
30.26
28.32
26.37
24.53
22.89
21.47
20.11
18.54
16.48
13.84
10.73
7.43
4.19
1.06
-2.20
-5.95
-10.48
-15.83
-21.71
-27.61
-32.86
-36.84
-39.12
-39.62
-38.76
-37.44
-36.89
-38.20
-41.90
-47.55
-53.87
-59.14
-61.82
-61.15
-57.40
-51.63
-45.25
-39.42
-34.72
-31.15
-28.32
-25.75
-23.16
-20.42
-17.51
-14.29
-10.60
-6.26
-1.28
4.08
9.44
14.38
18.65
22.18
25.11
27.63
30.02
32.53
35.30
38.25
40.98
42.93
43.54
42.66
40.60
38.11
35.94
34.48
33.56
32.55
30.78
27.83
23.85
19.39
15.10
11.46
8.52
5.99
3.37
0.21
-3.70
-8.16
-12.66
-16.52
-19.30
-21.00
-22.20
-23.83
-26.76
-31.37
-37.28
-43.55
-48.99
-52.69
-54.21
-53.66
-51.60
-49.11
-47.73
-49.27
-55.27
-66.20
-80.73
-95.85
-107.62
-112.59
-109.03
-97.60
-80.90
-62.26
-44.47
-29.01
-16.03
-4.96
4.82
13.62
21.41
28.15
34.01
39.33
44.44
49.32
53.46
56.08
56.59
54.93
51.64
47.66
43.86
40.69
38.20
36.21
34.52
32.98
31.34
29.16
25.89
21.10
14.89
8.04
1.86
-2.19
-2.94
0.23
7.31
17.83
30.98
45.79
61.23
76.40
90.65
103.59
115.14
125.20
133.36
138.68
139.78
135.35
124.71
108.43
88.37
67.20
47.57
31.16
18.25
7.81
-1.86
-12.35
-24.53
-38.27
-52.61
-66.09
-77.22
-84.77
-88.06
-86.98
-81.94
-73.65
-62.99
-50.88
-38.22
-25.86
-14.42
-4.26
4.77
13.22
21.95
31.74
42.91
55.15
67.43
78.26
86.10
89.75
88.74
83.40
74.69
63.79
51.77
39.29
26.66
14.06
1.73
-9.97
-20.57
-29.64
-36.94
-42.38
-46.02
-48.00
-48.56
-48.08
-47.04
-45.96
-45.16
-44.77
-44.65
-44.52
-44.14
-43.37
-42.12
-40.34
-38.03
-35.31
-32.47
-30.04
-28.57
-28.40
-29.44
-31.24
-33.13
-34.63
-35.61
-36.43
-37.71
-40.12
-44.15
-49.86
-56.81
-64.03
-70.18
-73.79
-73.59
-68.99
-60.20
-48.24
-34.62
-20.90
-8.33
2.34
10.90
17.48
22.39
25.97
28.39
29.73
29.90
28.76
26.24
22.38
17.38
11.57
5.28
-1.14
-7.32
-12.91
-17.47
-20.60
-21.96
-21.37
-18.89
-14.80
-9.57
-3.80
1.92
7.14
11.63
15.30
18.13
19.92
20.32
18.93
15.55
10.44
4.27
-2.05
-7.87
-13.02
-17.90
-23.11
-29.13
-36.00
-43.34
-50.54
-57.15
-63.00
-68.32
-73.52
-79.12
-85.53
-93.03
-101.61
-110.84
-119.74
-126.83
-130.46
-129.32
-122.85
-111.51
-96.48
-79.21
-60.96
-42.48
-24.19
-6.38
10.58
26.18
39.94
51.56
61.06
68.70
74.84
79.87
84.02
87.34
89.77
91.18
91.50
90.82
89.33
87.25
84.73
81.78
78.38
74.58
70.51
66.40
62.43
58.65
54.98
51.24
47.26
42.96
38.36
33.52
28.57
23.64
18.87
14.34
9.97
5.56
0.89
-4.21
-9.71
-15.37
-20.86
-26.00
-30.77
-35.41
-40.32
-45.90
-52.42
-59.79
-67.46
-74.33
-79.03
-80.26
-77.28
-70.24
-60.09
-48.30
-36.33
-25.26
-15.58
-7.32
-0.26
5.91
11.42
16.41
20.98
25.17
28.96
32.29
35.13
37.46
39.32
40.78
41.89
42.73
43.37
43.89
44.29
44.47
44.20
43.26
41.53
39.08
36.23
33.36
30.81
28.70
26.92
25.20
23.25
20.84
17.91
14.55
10.96
7.41
4.17
1.37
-1.04
-3.33
-5.87
-9.03
-12.97
-17.58
-22.54
-27.38
-31.72
-35.46
-38.78
-42.12
-46.00
-50.79
-56.47
-62.54
-67.99
-71.61
-72.27
-69.29
-62.63
-52.99
-41.53
-29.61
-18.48
-8.89
-1.07
5.28
10.69
15.70
20.60
25.41
29.97
34.05
37.54
40.40
42.66
44.36
45.51
46.13
46.33
46.25
46.05
45.81
45.51
45.01
44.13
42.72
40.68
38.03
34.86
31.37
27.79
24.30
20.90
17.54
14.00
10.14
5.93
1.50
-2.93
-7.14
-11.12
-15.05
-19.26
-24.13
-29.92
-36.62
-43.96
-51.49
-58.78
-65.53
-71.70
-77.45
-83.10
-88.95
-95.09
-101.36
-107.10
-111.22
-112.28
-108.82
-99.82
-85.15
-65.72
-43.32
-20.20
1.62
20.74
36.59
49.32
59.51
67.77
74.55
80.05
84.22
86.96
88.21
88.07
86.82
84.87
82.64
80.45
78.46
76.64
74.89
73.07
71.12
69.07
66.93
64.70
62.29
59.56
56.40
52.83
48.98
45.07
41.32
37.90
34.84
32.10
29.57
27.12
24.62
21.96
19.09
16.01
12.80
9.54
6.37
3.28
0.22
-2.93
-6.30
-10.01
-14.08
-18.47
-23.07
-27.69
-32.15
-36.21
-39.75
-42.77
-45.48
-48.32
-51.86
-56.52
-62.31
-68.61
-74.17
-77.51
-77.38
-73.25
-65.49
-55.20
-43.83
-32.72
-22.79
-14.48
-7.77
-2.37
2.17
6.34
10.57
15.09
19.87
24.66
29.08
32.81
35.69
37.74
39.08
39.87
40.20
40.17
39.89
39.52
39.24
39.10
39.04
38.82
38.18
36.98
35.28
33.34
31.47
29.88
28.58
27.39
26.06
24.43
22.50
20.43
18.39
16.48
14.68
12.90
10.98
8.88
6.63
4.25
1.79
-0.76
-3.50
-6.52
-9.88
-13.57
-17.50
-21.49
-25.37
-29.01
-32.35
-35.42
-38.40
-41.59
-45.41
-50.22
-56.07
-62.50
-68.48
-72.67
-73.84
-71.31
-65.21
-56.42
-46.20
-35.82
-26.20
-17.77
-10.68
-4.84
-0.11
3.75
7.03
10.04
13.00
15.88
18.45
20.42
21.59
22.00
21.89
21.61
21.42
21.42
21.52
21.54
21.35
20.82
19.94
18.73
17.27
15.71
14.21
12.92
11.95
11.28
10.85
10.58
10.41
10.36
10.44
10.73
11.29
12.12
13.15
14.25
15.23
15.87
16.02
15.58
14.53
12.89
10.68
7.96
4.77
1.19
-2.61
-6.45
-10.14
-13.54
-16.65
-19.62
-22.72
-26.26
-30.50
-35.46
-40.87
-46.08
-50.24
-52.40
-51.86
-48.27
-41.85
-33.25
-23.48
-13.63
-4.61
3.04
9.23
14.23
18.49
22.46
26.32
30.05
33.43
36.31
38.67
40.71
42.66
44.66
46.68
48.54
50.03
51.09
51.78
52.25
52.54
52.52
52.02
50.87
49.13
46.96
44.61
42.19
39.62
36.72
33.36
29.57
25.53
21.51
17.69
14.14
10.85
7.76
4.84
2.07
-0.59
-3.22
-5.89
-8.62
-11.35
-14.02
-16.55
-18.96
-21.29
-23.62
-26.04
-28.54
-31.10
-33.68
-36.26
-38.85
-41.50
-44.35
-47.53
-51.05
-54.68
-57.83
-59.64
-59.27
-56.16
-50.32
-42.43
-33.51
-24.73
-16.99
-10.70
-5.79
-1.89
1.50
4.72
7.85
10.77
13.30
15.37
17.05
18.60
20.24
22.06
23.92
25.60
26.91
27.78
28.30
28.65
28.96
29.30
29.63
29.82
29.68
29.08
27.94
26.27
24.19
21.88
19.52
17.24
15.12
13.19
11.41
9.67
7.75
5.43
2.54
-0.96
-4.88
-8.91
-12.74
-16.15
-19.17
-22.04
-25.17
-29.02
-33.91
-39.88
-46.52
-52.93
-57.87
-60.07
-58.64
-53.46
-45.18
-35.09
-24.65
-15.06
-7.04
-0.71
4.20
8.10
11.36
14.21
16.77
19.13
21.33
23.43
25.41
27.18
28.61
29.64
30.29
30.64
30.82
30.84
30.63
30.06
28.99
27.42
25.45
23.25
20.99
18.82
16.81
14.96
13.19
11.36
9.32
7.03
4.56
2.10
-0.11
-1.95
-3.49
-5.02
-6.86
-9.29
-12.42
-16.12
-20.11
-24.10
-27.92
-31.56
-35.22
-39.22
-43.88
-49.34
-55.34
-61.22
-66.00
-68.61
-68.25
-64.55
-57.77
-48.68
-38.37
-28.01
-18.50
-10.39
-3.73
1.74
6.42
10.70
14.79
18.68
22.22
25.21
27.47
28.90
29.50
29.32
28.38
26.79
24.64
22.09
19.31
16.45
13.61
10.79
7.97
5.17
2.56
0.48
-0.66
-0.51
1.01
3.66
6.88
9.99
12.37
13.69
13.92
13.34
12.35
11.30
10.33
9.39
8.27
6.74
4.65
1.99
-1.11
-4.43
-7.78
-11.04
-14.22
-17.47
-21.00
-25.05
-29.71
-34.77
-39.67
-43.56
-45.50
-44.78
-41.12
-34.84
-26.71
-17.67
-8.62
-0.19
7.28
13.69
19.10
23.68
27.62
31.13
34.31
37.17
39.59
41.42
42.55
43.00
42.87
42.35
41.59
40.72
39.77
38.73
37.59
36.29
34.80
33.09
31.18
29.13
26.97
24.76
22.54
20.41
18.50
16.92
15.68
14.62
13.51
12.08
10.22
8.00
5.61
3.26
1.04
-1.14
-3.43
-5.95
-8.73
-11.67
-14.60
-17.36
-19.85
-22.10
-24.28
-26.66
-29.56
-33.23
-37.68
-42.58
-47.23
-50.74
-52.25
-51.23
-47.69
-42.08
-35.26
-28.13
-21.44
-15.60
-10.71
-6.63
-3.12
0.01
2.90
5.57
8.06
10.40
12.61
14.68
16.54
18.11
19.37
20.42
21.42
22.51
23.63
24.56
25.01
24.80
24.00
22.87
21.73
20.74
19.81
18.66
17.10
15.11
12.91
10.75
8.81
7.06
5.30
3.37
1.24
-0.95
-3.02
-4.83
-6.38
-7.88
-9.55
-11.58
-13.99
-16.66
-19.34
-21.79
-23.90
-25.78
-27.70
-30.04
-33.07
-36.88
-41.27
-45.78
-49.74
-52.41
-53.09
-51.33
-47.12
-40.90
-33.53
-26.03
-19.21
-13.51
-8.83
-4.78
-0.84
3.29
7.62
11.92
15.85
19.13
21.65
23.45
24.64
25.39
25.84
26.15
26.49
26.97
27.64
28.40
29.05
29.31
28.99
28.02
26.48
24.52
22.30
20.02
17.86
16.01
14.65
13.78
13.29
12.86
12.20
11.16
9.80
8.32
6.94
5.76
4.70
3.61
2.39
1.01
-0.50
-2.09
-3.78
-5.59
-7.61
-9.86
-12.34
-15.05
-17.95
-20.98
-24.05
-27.06
-29.92
-32.67
-35.46
-38.54
-42.16
-46.42
-51.11
-55.74
-59.51
-61.56
-61.17
-58.07
-52.54
-45.44
-37.84
-30.74
-24.74
-19.90
-15.94
-12.43
-9.08
-5.85
-2.88
-0.35
1.66
3.18
4.35
5.31
6.09
6.73
7.23
7.63
7.97
8.33
8.75
9.22
9.76
10.37
11.13
12.16
13.57
15.41
17.66
20.27
23.21
26.56
30.40
34.82
39.67
44.55
48.85
51.94
53.37
52.98
50.92
47.42
42.76
37.16
30.84
24.12
17.37
11.03
5.39
0.64
-3.22
-6.35
-8.91
-11.10
-13.10
-15.01
-16.86
-18.59
-20.18
-21.75
-23.58
-26.05
-29.34
-33.27
-37.10
-39.80
-40.38
-38.36
-33.94
-27.92
-21.32
-14.98
-9.30
-4.16
0.79
5.88
11.19
16.55
21.64
26.20
30.12
33.40
36.13
38.23
39.62
40.16
39.81
38.72
37.16
35.46
33.87
32.49
31.25
30.03
28.64
26.92
24.79
22.27
19.51
16.75
14.24
12.16
10.57
9.32
8.20
6.94
5.39
3.49
1.31
-1.04
-3.44
-5.75
-7.89
-9.82
-11.51
-12.97
-14.21
-15.25
-16.10
-16.82
-17.47
-18.16
-18.99
-20.06
-21.45
-23.16
-25.12
-27.23
-29.34
-31.37
-33.34
-35.44
-38.01
-41.35
-45.59
-50.46
-55.24
-58.94
-60.59
-59.55
-55.82
-50.05
-43.27
-36.63
-30.92
-26.47
-23.14
-20.53
-18.23
-16.03
-13.90
-12.01
-10.46
-9.27
-8.37
-7.58
-6.84
-6.16
-5.62
-5.31
-5.20
-5.22
-5.17
-4.89
-4.21
-3.00
-1.17
1.38
4.72
8.90
13.94
19.76
26.18
32.96
39.74
46.11
51.62
55.86
58.42
58.93
57.20
53.31
47.74
41.36
35.26
30.37
27.13
25.37
24.38
23.34
21.70
19.29
16.33
13.18
10.09
7.13
4.20
1.09
-2.37
-6.38
-11.14
-16.75
-23.17
-30.02
-36.64
-42.10
-45.51
-46.23
-44.12
-39.57
-33.43
-26.73
-20.48
-15.34
-11.58
-9.04
-7.31
-5.84
-4.20
-2.09
0.51
3.44
6.42
9.13
11.40
13.18
14.63
16.03
17.63
19.63
22.04
24.71
27.36
29.69
31.44
32.47
32.68
32.06
30.66
28.63
26.22
23.69
21.30
19.21
17.43
15.81
14.15
12.24
9.98
7.37
4.55
1.68
-1.09
-3.66
-6.07
-8.47
-11.08
-14.11
-17.55
-21.15
-24.43
-26.77
-27.65
-26.86
-24.59
-21.44
-18.29
-16.10
-15.60
-17.08
-20.24
-24.15
-27.55
-29.18
-28.26
-24.79
-19.52
-13.77
-8.96
-6.26
-6.25
-8.88
-13.57
-19.34
-25.20
-30.31
-34.25
-37.11
-39.27
-41.13
-42.80
-44.00
-44.12
-42.59
-39.12
-33.85
-27.28
-20.03
-12.68
-5.66
0.70
6.10
10.29
13.12
14.62
15.14
15.24
15.58
16.71
18.95
22.26
26.34
30.70
34.81
38.30
40.97
42.87
44.16
45.05
45.76
46.37
46.87
47.21
47.28
47.04
46.52
45.83
45.09
44.39
43.69
42.80
41.41
39.18
35.84
31.35
26.06
20.66
16.14
13.43
13.17
15.40
19.50
24.33
28.52
30.92
30.86
28.34
23.87
18.29
12.43
6.97
2.32
-1.41
-4.27
-6.40
-7.99
-9.18
-10.10
-10.84
-11.42
-11.75
-11.74
-11.25
-10.27
-8.86
-7.20
-5.51
-4.02
-2.92
-2.27
-2.03
-2.03
-2.02
-1.71
-0.97
0.18
1.53
2.79
3.67
4.01
3.82
3.15
2.10
0.66
-1.26
-3.76
-6.88
-10.49
-14.32
-18.02
-21.29
-23.99
-26.19
-28.12
-30.15
-32.56
-35.54
-38.98
-42.45
-45.22
-46.47
-45.50
-42.06
-36.48
-29.55
-22.29
-15.60
-10.00
-5.65
-2.34
0.24
2.41
4.36
6.20
7.86
9.29
10.43
11.30
12.00
12.62
13.24
13.80
14.24
14.53
14.69
14.82
15.00
15.17
15.15
14.73
13.78
12.30
10.41
8.33
6.22
4.25
2.50
1.01
-0.26
-1.49
-2.95
-4.88
-7.37
-10.34
-13.52
-16.61
-19.41
-21.85
-24.07
-26.25
-28.61
-31.31
-34.48
-38.21
-42.49
-47.17
-51.88
-56.02
-58.87
-59.79
-58.39
-54.67
-49.12
-42.52
-35.82
-29.87
-25.26
-22.22
-20.61
-20.00
-19.83
-19.51
-18.53
-16.56
-13.46
-9.39
-4.81
-0.50
2.69
4.22
4.12
3.12
2.40
3.08
5.81
10.52
16.55
23.08
29.50
35.60
41.51
47.39
53.24
58.83
63.78
67.73
70.46
72.03
72.77
73.36
74.70
77.73
83.03
90.58
99.70
109.17
117.57
123.63
126.46
125.55
120.70
111.91
99.26
83.09
64.05
43.12
21.52
0.53
-18.83
-35.96
-50.67
-63.05
-73.27
-81.44
-87.54
-91.57
-93.59
-93.82
-92.60
-90.23
-86.98
-82.96
-78.28
-73.08
-67.62
-62.18
-56.96
-52.05
-47.36
-42.73
-38.04
-33.23
-28.37
-23.61
-19.03
-14.68
-10.50
-6.46
-2.61
0.87
3.69
5.63
6.65
6.89
6.73
6.49
6.41
6.46
6.46
6.18
5.53
4.57
3.49
2.49
1.67
0.93
0.05
-1.23
-3.03
-5.32
-7.89
-10.51
-13.01
-15.37
-17.71
-20.18
-22.99
-26.29
-30.14
-34.46
-38.90
-42.83
-45.44
-45.96
-43.86
-39.13
-32.18
-23.75
-14.71
-5.79
2.43
9.57
15.47
20.16
23.83
26.73
29.13
31.16
32.90
34.40
35.72
36.97
38.21
39.37
40.27
40.67
40.42
39.59
38.42
37.17
36.02
34.94
33.70
32.08
29.91
27.24
24.27
21.27
18.49
16.03
13.89
11.97
10.13
8.26
6.26
4.10
1.78
-0.63
-3.05
-5.46
-7.89
-10.48
-13.35
-16.55
-20.02
-23.60
-27.08
-30.33
-33.33
-36.17
-39.00
-42.00
-45.42
-49.47
-54.28
-59.71
-65.24
-69.95
-72.73
-72.66
-69.34
-63.05
-54.66
-45.34
-36.14
-27.81
-20.67
-14.70
-9.69
-5.29
-1.07
3.44
8.76
15.28
23.21
32.40
42.39
52.39
61.52
68.95
74.11
76.74
76.91
74.99
71.57
67.33
62.94
58.91
55.48
52.63
50.14
47.74
45.22
42.51
39.58
36.40
32.96
29.26
25.48
21.88
18.73
16.14
13.93
11.74
9.19
6.09
2.56
-1.03
-4.31
-7.04
-9.23
-11.10
-12.89
-14.80
-16.89
-19.09
-21.19
-23.01
-24.41
-25.41
-26.21
-27.12
-28.45
-30.36
-32.74
-35.16
-37.00
-37.63
-36.63
-33.96
-29.98
-25.31
-20.59
-16.24
-12.40
-8.98
-5.83
-2.87
-0.19
2.05
3.75
4.93
5.77
6.52
7.41
8.53
9.91
11.46
13.09
14.65
15.97
16.92
17.41
17.45
17.09
16.39
15.40
14.16
12.76
11.37
10.20
9.47
9.25
9.41
9.68
9.75
9.40
8.60
7.49
6.34
5.44
5.00
5.06
5.36
5.43
4.65
2.52
-1.17
-6.22
-12.12
-18.22
-23.98
-29.03
-33.29
-36.86
-40.04
-43.22
-46.76
-50.88
-55.44
-59.90
-63.38
-64.88
-63.65
-59.45
-52.61
-43.94
-34.46
-25.13
-16.69
-9.55
-3.86
0.50
3.86
6.61
9.15
11.72
14.37
16.93
19.20
21.06
22.55
23.90
25.42
27.35
29.80
32.75
35.99
39.27
42.22
44.41
45.44
45.03
43.12
39.93
35.96
31.75
27.84
24.56
22.07
20.36
19.31
18.69
18.16
17.39
16.15
14.40
12.37
10.37
8.64
7.21
5.83
4.22
2.16
-0.39
-3.25
-6.27
-9.35
-12.51
-15.85
-19.43
-23.25
-27.27
-31.46
-35.73
-39.88
-43.52
-46.08
-46.95
-45.62
-41.91
-36.04
-28.58
-20.31
-12.07
-4.60
1.65
6.54
10.22
13.01
15.26
17.23
19.07
20.84
22.55
24.18
25.68
26.96
27.93
28.54
28.82
28.84
28.68
28.38
27.89
27.16
26.12
24.78
23.16
21.31
19.30
17.22
15.17
13.27
11.63
10.28
9.14
8.08
6.92
5.57
4.04
2.40
0.84
-0.46
-1.35
-1.87
-2.17
-2.57
-3.43
-5.02
-7.47
-10.61
-14.14
-17.67
-20.85
-23.53
-25.81
-28.03
-30.68
-34.22
-38.84
-44.31
-49.90
-54.51
-56.95
-56.32
-52.33
-45.38
-36.47
-26.89
-17.80
-10.02
-3.84
0.85
4.38
7.20
9.64
11.93
14.22
16.56
18.99
21.42
23.71
25.69
27.20
28.17
28.66
28.85
29.01
29.33
29.94
30.79
31.62
32.11
31.91
30.79
28.81
26.23
23.46
20.86
18.65
16.76
15.06
13.34
11.49
9.47
7.35
5.16
2.95
0.76
-1.40
-3.50
-5.58
-7.78
-10.23
-13.02
-16.11
-19.31
-22.37
-25.09
-27.47
-29.76
-32.39
-35.80
-40.25
-45.57
-51.17
-56.08
-59.25
-59.82
-57.45
-52.36
-45.24
-37.01
-28.59
-20.62
-13.52
-7.38
-2.11
2.48
6.64
10.53
14.19
17.54
20.46
22.85
24.73
26.24
27.55
28.78
29.96
31.03
31.89
32.49
32.82
32.94
32.85
32.54
31.92
30.86
29.30
27.30
25.04
22.74
20.63
18.81
17.24
15.83
14.43
12.98
11.40
9.71
7.89
5.98
4.07
2.27
0.64
-0.86
-2.46
-4.44
-7.02
-10.19
-13.69
-17.11
-20.09
-22.54
-24.68
-26.93
-29.76
-33.47
-38.12
-43.52
-49.20
-54.52
-58.63
-60.67
-59.89
-56.03
-49.34
-40.71
-31.28
-22.23
-14.29
-7.71
-2.30
2.28
6.36
10.09
13.54
16.76
19.81
22.70
25.36
27.60
29.30
30.45
31.21
31.83
32.53
33.36
34.15
34.69
34.80
34.45
33.72
32.72
31.49
29.98
28.16
26.01
23.67
21.29
19.05
17.03
15.26
13.68
12.16
10.58
8.86
7.02
5.13
3.36
1.76
0.33
-1.09
-2.71
-4.68
-7.06
-9.74
-12.56
-15.36
-18.06
-20.67
-23.19
-25.70
-28.22
-30.90
-33.88
-37.31
-41.26
-45.59
-49.90
-53.52
-55.59
-55.32
-52.23
-46.37
-38.38
-29.33
-20.36
-12.33
-5.55
0.12
5.09
9.69
14.07
18.11
21.64
24.57
26.95
28.94
30.63
32.06
33.20
34.01
34.49
34.71
34.71
34.55
34.19
33.57
32.60
31.21
29.41
27.32
25.19
23.30
21.84
20.83
20.08
19.31
18.28
16.91
15.25
13.45
11.64
9.90
8.21
6.56
4.86
3.05
1.10
-0.95
-2.94
-4.73
-6.22
-7.42
-8.53
-9.74
-11.24
-13.07
-15.21
-17.56
-20.06
-22.63
-25.20
-27.68
-30.03
-32.41
-35.10
-38.48
-42.70
-47.56
-52.35
-56.07
-57.74
-56.73
-52.93
-46.77
-39.02
-30.52
-22.04
-14.14
-7.14
-1.15
3.89
8.17
11.88
15.19
18.16
20.81
23.17
25.27
27.14
28.80
30.13
30.99
31.30
31.19
30.90
30.79
31.04
31.60
32.17
32.37
31.88
30.62
28.70
26.41
24.03
21.78
19.80
18.12
16.72
15.53
14.52
13.68
13.06
12.66
12.46
12.31
12.03
11.36
10.14
8.32
5.98
3.34
0.66
-1.79
-3.87
-5.58
-7.12
-8.77
-10.85
-13.48
-16.60
-19.90
-23.03
-25.72
-27.89
-29.73
-31.52
-33.65
-36.40
-39.94
-44.23
-48.96
-53.51
-57.01
-58.52
-57.32
-53.20
-46.53
-38.21
-29.39
-21.08
-13.93
-8.13
-3.44
0.52
4.14
7.60
10.95
14.08
16.90
19.40
21.63
23.66
25.55
27.29
28.82
30.04
30.90
31.44
31.73
31.87
31.90
31.79
31.42
30.67
29.50
28.03
26.45
24.99
23.76
22.77
21.88
20.98
20.02
19.06
18.13
17.23
16.22
14.96
13.42
11.67
9.91
8.26
6.72
5.17
3.41
1.39
-0.86
-3.16
-5.39
-7.54
-9.73
-12.15
-14.93
-18.04
-21.38
-24.78
-28.06
-31.11
-33.85
-36.31
-38.60
-40.91
-43.55
-46.79
-50.79
-55.43
-60.19
-64.26
-66.68
-66.72
-64.02
-58.84
-51.88
-44.10
-36.40
-29.39
-23.34
-18.22
-13.84
-9.96
-6.39
-3.00
0.33
3.68
7.08
10.54
13.94
17.07
19.65
21.47
22.49
22.95
23.25
23.81
24.96
26.72
28.97
31.40
33.74
35.81
37.47
38.69
39.44
39.73
39.56
38.97
37.96
36.56
34.75
32.50
29.89
27.07
24.32
21.94
20.18
19.10
18.53
18.08
17.29
15.81
13.63
10.99
8.36
6.18
4.69
3.79
3.15
2.37
1.18
-0.54
-2.70
-5.21
-8.06
-11.35
-15.22
-19.74
-24.85
-30.33
-35.90
-41.17
-45.69
-48.94
-50.36
-49.48
-46.05
-40.28
-32.80
-24.55
-16.47
-9.28
-3.27
1.61
5.63
9.03
11.97
14.47
16.54
18.26
19.82
21.41
23.17
25.06
26.93
28.58
29.92
31.00
31.93
32.78
33.48
33.79
33.45
32.32
30.49
28.23
25.89
23.74
21.86
20.23
18.76
17.35
15.96
14.57
13.16
11.72
10.25
8.80
7.31
5.70
3.80
1.50
-1.21
-4.17
-7.15
-9.96
-12.58
-15.22
-18.13
-21.46
-25.19
-29.06
-32.71
-35.88
-38.48
-40.63
-42.58
-44.67
-47.17
-50.24
-53.82
-57.56
-60.82
-62.77
-62.59
-59.70
-53.97
-45.87
-36.29
-26.33
-16.99
-8.97
-2.50
2.56
6.57
9.92
12.96
15.90
18.81
21.71
24.57
27.32
29.87
32.14
34.10
35.72
37.03
38.09
38.93
39.58
39.99
40.07
39.68
38.74
37.24
35.30
33.16
31.06
29.19
27.50
25.83
23.85
21.32
18.17
14.56
10.82
7.31
4.30
1.84
-0.25
-2.28
-4.56
-7.26
-10.36
-13.66
-16.91
-19.96
-22.79
-25.62
-28.66
-32.17
-36.32
-41.14
-46.50
-52.04
-57.07
-60.75
-62.18
-60.72
-56.24
-49.23
-40.60
-31.45
-22.71
-14.97
-8.40
-2.93
1.70
5.72
9.35
12.72
15.90
18.85
21.51
23.73
25.48
26.75
27.67
28.46
29.32
30.40
31.72
33.14
34.46
35.44
35.93
35.87
35.30
34.35
33.18
31.90
30.66
29.52
28.51
27.54
26.46
25.08
23.32
21.23
19.00
16.84
14.86
12.93
10.71
7.88
4.23
-0.14
-4.92
-9.67
-14.01
-17.76
-20.94
-23.77
-26.66
-30.09
-34.47
-40.02
-46.48
-53.15
-58.91
-62.55
-63.19
-60.47
-54.74
-46.83
-37.81
-28.68
-20.20
-12.82
-6.70
-1.71
2.41
6.06
9.58
13.21
16.95
20.61
23.88
26.52
28.45
29.82
30.89
31.93
33.00
34.02
34.76
35.03
34.71
33.86
32.61
31.10
29.41
27.65
25.87
24.19
22.67
21.35
20.21
19.19
18.21
17.19
16.08
14.84
13.43
11.85
10.10
8.26
6.35
4.34
2.14
-0.38
-3.28
-6.53
-10.02
-13.58
-17.06
-20.39
-23.54
-26.57
-29.54
-32.58
-35.84
-39.46
-43.56
-48.10
-52.82
-57.16
-60.37
-61.62
-60.25
-56.01
-49.14
-40.41
-30.87
-21.57
-13.29
-6.44
-0.95
3.47
7.17
10.45
13.43
16.16
18.61
20.80
22.81
24.75
26.68
28.55
30.29
31.80
33.05
34.09
35.00
35.81
36.46
36.77
36.55
35.67
34.15
32.16
29.98
27.92
26.16
24.75
23.54
22.32
20.86
19.05
16.97
14.85
12.92
11.30
9.97
8.75
7.44
5.94
4.27
2.53
0.85
-0.74
-2.30
-3.96
-5.83
-7.99
-10.44
-13.12
-15.94
-18.78
-21.50
-24.02
-26.31
-28.49
-30.82
-33.70
-37.53
-42.50
-48.44
-54.65
-60.03
-63.35
-63.64
-60.54
-54.44
-46.33
-37.46
-28.91
-21.31
-14.80
-9.18
-4.12
0.67
5.34
9.94
14.43
18.70
22.63
26.15
29.18
31.70
33.76
35.41
36.71
37.71
38.48
39.06
39.49
39.75
39.72
39.21
37.99
35.98
33.33
30.35
27.48
25.05
23.16
21.65
20.26
18.68
16.73
14.38
11.74
8.93
6.14
3.51
1.18
-0.74
-2.28
-3.55
-4.73
-6.03
-7.48
-9.05
-10.59
-11.98
-13.13
-14.10
-14.92
-15.70
-16.47
-17.26
-18.10
-19.06
-20.25
-21.79
-23.81
-26.36
-29.42
-32.91
-36.62
-40.22
-43.20
-44.92
-44.74
-42.29
-37.61
-31.24
-24.11
-17.20
-11.20
-6.37
-2.55
0.67
3.67
6.67
9.71
12.68
15.43
17.87
19.93
21.60
22.91
23.89
24.59
25.08
25.40
25.57
25.65
25.62
25.51
25.27
24.81
24.04
22.92
21.48
19.85
18.26
16.88
15.82
15.10
14.60
14.18
13.71
13.16
12.56
12.04
11.68
11.51
11.46
11.38
11.07
10.44
9.44
8.20
6.90
5.70
4.69
3.84
2.98
1.96
0.67
-0.92
-2.79
-4.95
-7.38
-10.10
-13.14
-16.48
-20.14
-24.17
-28.65
-33.63
-38.98
-44.29
-48.90
-52.00
-52.96
-51.54
-47.98
-42.94
-37.24
-31.60
-26.47
-21.98
-18.01
-14.34
-10.79
-7.28
-3.88
-0.75
1.93
4.02
5.52
6.60
7.48
8.35
9.24
10.03
10.55
10.67
10.40
9.84
9.08
8.05
6.51
4.23
1.11
-2.60
-6.35
-9.51
-11.67
-12.75
-13.07
-13.16
-13.50
-14.27
-15.29
-16.17
-16.47
-15.89
-14.37
-12.11
-9.41
-6.58
-3.87
-1.34
0.98
3.12
5.10
6.90
8.56
10.17
11.90
13.94
16.47
19.55
23.18
27.26
31.55
35.73
39.35
41.92
43.04
42.63
41.05
39.09
37.83
38.28
41.10
46.31
53.28
60.77
67.24
71.04
70.85
65.94
56.40
43.22
27.95
12.28
-2.64
-16.37
-29.20
-41.62
-53.73
-64.98
-74.23
-80.37
-82.85
-81.97
-78.74
-74.34
-69.57
-64.65
-59.40
-53.67
-47.68
-42.00
-37.26
-33.75
-31.26
-29.18
-26.89
-24.08
-20.88
-17.77
-15.19
-13.36
-12.10
-11.01
-9.74
-8.13
-6.41
-5.07
-4.72
-5.79
-8.44
-12.37
-16.88
-21.01
-23.75
-24.37
-22.58
-18.58
-13.01
-6.66
-0.29
5.58
10.74
15.19
19.07
22.48
25.48
28.04
30.08
31.55
32.42
32.73
32.57
32.10
31.52
30.98
30.54
30.14
29.64
28.94
28.03
27.01
26.01
25.06
24.03
22.70
20.95
18.85
16.67
14.67
12.96
11.39
9.65
7.54
5.07
2.51
0.19
-1.72
-3.28
-4.68
-6.20
-8.01
-10.17
-12.65
-15.43
-18.36
-21.23
-23.79
-25.81
-27.26
-28.43
-29.82
-32.05
-35.53
-40.33
-46.05
-51.92
-56.89
-59.93
-60.26
-57.53
-51.99
-44.39
-35.79
-27.22
-19.45
-12.79
-7.09
-1.97
2.97
7.96
12.99
17.87
22.32
26.11
29.14
31.40
32.98
33.99
34.52
34.65
34.48
34.12
33.71
33.36
33.14
32.99
32.73
32.10
30.93
29.23
27.25
25.39
23.92
22.84
21.82
20.34
18.03
14.85
11.18
7.64
4.76
2.73
1.33
0.03
-1.75
-4.36
-7.86
-12.00
-16.31
-20.39
-23.92
-26.84
-29.33
-31.71
-34.37
-37.57
-41.36
-45.48
-49.38
-52.28
-53.39
-52.08
-48.06
-41.55
-33.22
-24.05
-15.09
-7.14
-0.63
4.49
8.63
12.32
16.02
19.91
23.95
27.84
31.24
33.88
35.63
36.59
36.94
36.93
36.79
36.61
36.39
36.09
35.72
35.40
35.25
35.27
35.29
35.00
34.10
32.50
30.38
28.18
26.35
25.15
24.55
24.22
23.76
22.84
21.33
19.33
17.05
14.77
12.71
10.94
9.41
7.91
6.19
4.03
1.33
-1.87
-5.38
-8.91
-12.20
-15.12
-17.68
-20.06
-22.51
-25.30
-28.55
-32.25
-36.11
-39.66
-42.26
-43.35
-42.48
-39.58
-34.92
-29.06
-22.70
-16.45
-10.78
-5.87
-1.68
1.95
5.28
8.56
11.95
15.44
18.83
21.80
24.06
25.46
26.15
26.44
26.70
27.15
27.75
28.31
28.62
28.59
28.28
27.83
27.31
26.69
25.83
24.64
23.14
21.48
19.88
18.46
17.25
16.18
15.17
14.14
13.07
11.92
10.65
9.22
7.61
5.90
4.20
2.67
1.39
0.34
-0.59
-1.54
-2.67
-4.03
-5.55
-7.11
-8.54
-9.76
-10.82
-11.95
-13.38
-15.31
-17.72
-20.42
-23.13
-25.66
-27.98
-30.25
-32.74
-35.67
-39.10
-42.88
-46.68
-50.12
-52.73
-54.12
-53.97
-52.14
-48.71
-44.04
-38.67
-33.20
-28.10
-23.61
-19.67
-16.00
-12.30
-8.37
-4.14
0.26
4.70
9.08
13.31
17.33
20.99
24.01
26.11
27.11
27.08
26.38
25.62
25.33
25.85
27.09
28.61
29.80
30.14
29.40
27.75
25.57
23.31
21.25
19.43
17.75
16.06
14.34
12.67
11.16
9.83
8.56
7.17
5.46
3.32
0.69
-2.37
-5.79
-9.43
-12.99
-16.12
-18.44
-19.72
-19.94
-19.33
-18.17
-16.70
-14.96
-12.90
-10.47
-7.84
-5.35
-3.47
-2.48
-2.38
-2.88
-3.60
-4.24
-4.81
-5.49
-6.55
-8.16
-10.27
-12.61
-14.83
-16.57
-17.48
-17.32
-15.91
-13.25
-9.52
-5.13
-0.57
3.61
7.04
9.50
10.95
11.47
11.21
10.35
9.08
7.66
6.31
5.24
4.58
4.33
4.44
4.83
5.41
6.14
6.98
7.86
8.74
9.56
10.24
10.68
10.79
10.44
9.59
8.25
6.52
4.57
2.56
0.61
-1.20
-2.85
-4.34
-5.60
-6.56
-7.13
-7.26
-6.90
-6.05
-4.72
-3.00
-1.07
0.85
2.55
3.83
4.63
4.94
4.83
4.33
3.44
2.16
0.54
-1.24
-2.95
-4.38
-5.44
-6.26
-7.10
-8.28
-9.92
-11.94
-13.96
-15.52
-16.17
-15.68
-14.07
-11.59
-8.61
-5.46
-2.43
0.36
2.76
4.69
6.09
6.98
7.47
7.79
8.14
8.69
9.42
10.18
10.74
10.88
10.50
9.64
8.48
7.26
6.27
5.66
5.42
5.38
5.24
4.75
3.83
2.59
1.34
0.41
-0.01
-0.00
0.15
0.08
-0.50
-1.67
-3.23
-4.89
-6.36
-7.45
-8.15
-8.56
-8.83
-9.07
-9.30
-9.46
-9.43
-9.11
-8.51
-7.68
-6.74
-5.83
-5.08
-4.64
-4.62
-5.15
-6.22
-7.71
-9.33
-10.74
-11.66
-11.94
-11.62
-10.86
-9.82
-8.64
-7.37
-6.08
-4.78
-3.51
-2.29
-1.12
0.05
1.20
2.24
3.01
3.33
3.09
2.29
1.03
-0.48
-2.03
-3.36
-4.19
-4.35
-3.82
-2.78
-1.62
-0.76
-0.48
-0.78
-1.36
-1.79
-1.68
-0.90
0.43
2.04
3.63
4.98
6.04
6.79
7.25
7.38
7.12
6.52
5.64
4.62
3.63
2.71
1.84
0.90
-0.24
-1.67
-3.37
-5.28
-7.29
-9.29
-11.22
-12.99
-14.55
-15.86
-16.94
-17.89
-18.93
-20.31
-22.30
-24.99
-28.20
-31.49
-34.19
-35.65
-35.39
-33.32
-29.74
-25.20
-20.36
-15.70
-11.47
-7.73
-4.35
-1.21
1.72
4.43
6.88
9.05
11.00
12.75
14.29
15.54
16.44
17.02
17.50
18.16
19.24
20.79
22.62
24.41
25.86
26.84
27.44
27.86
28.25
28.59
28.73
28.45
27.55
25.99
23.89
21.45
18.91
16.48
14.22
12.15
10.20
8.35
6.55
4.84
3.19
1.51
-0.30
-2.35
-4.63
-6.97
-9.10
-10.76
-11.84
-12.40
-12.68
-12.96
-13.47
-14.28
-15.31
-16.42
-17.49
-18.46
-19.40
-20.39
-21.59
-23.13
-25.17
-27.74
-30.71
-33.70
-36.10
-37.16
-36.31
-33.34
-28.55
-22.62
-16.44
-10.74
-5.91
-2.00
1.21
4.02
6.69
9.35
12.02
14.55
16.75
18.43
19.48
19.95
20.06
20.07
20.24
20.70
21.49
22.56
23.81
25.08
26.16
26.85
26.94
26.35
25.15
23.56
21.82
20.16
18.68
17.36
16.11
14.81
13.41
11.84
10.15
8.44
6.86
5.54
4.57
3.92
3.53
3.25
2.97
2.57
1.92
0.98
-0.27
-1.76
-3.38
-5.01
-6.60
-8.20
-9.89
-11.70
-13.55
-15.29
-16.77
-17.98
-19.08
-20.36
-22.15
-24.58
-27.60
-30.87
-33.85
-35.91
-36.50
-35.29
-32.24
-27.67
-22.13
-16.29
-10.70
-5.73
-1.51
2.03
5.05
7.76
10.28
12.64
14.77
16.59
18.00
19.02
19.76
20.40
21.06
21.76
22.47
23.13
23.76
24.41
25.10
25.79
26.35
26.62
26.55
26.21
25.76
25.40
25.30
25.50
25.91
26.37
26.60
26.34
25.38
23.62
21.18
18.34
15.43
12.76
10.44
8.42
6.57
4.71
2.77
0.73
-1.39
-3.55
-5.77
-8.14
-10.67
-13.35
-16.00
-18.38
-20.27
-21.63
-22.60
-23.46
-24.51
-25.84
-27.36
-28.88
-30.34
-31.88
-33.77
-36.21
-39.05
-41.73
-43.40
-43.27
-40.94
-36.51
-30.59
-23.97
-17.42
-11.47
-6.36
-2.11
1.38
4.27
6.67
8.67
10.35
11.80
13.14
14.47
15.95
17.63
19.49
21.42
23.22
24.75
25.91
26.76
27.40
27.95
28.43
28.73
28.71
28.18
27.14
25.81
24.53
23.63
23.25
23.26
23.36
23.19
22.54
21.41
19.99
18.53
17.28
16.38
15.84
15.63
15.65
15.68
15.46
14.71
13.21
10.90
7.87
4.39
0.78
-2.67
-5.84
-8.68
-11.29
-13.77
-16.26
-18.81
-21.44
-24.18
-26.99
-29.87
-32.84
-35.92
-39.16
-42.65
-46.39
-50.22
-53.73
-56.26
-57.08
-55.63
-51.78
-45.89
-38.70
-31.06
-23.67
-16.96
-11.06
-5.91
-1.45
2.39
5.66
8.41
10.81
13.04
15.37
17.91
20.66
23.44
25.93
27.85
29.04
29.58
29.69
29.64
29.53
29.34
28.94
28.26
27.31
26.15
24.88
23.45
21.81
19.92
17.80
15.61
13.56
11.80
10.43
9.40
8.61
7.95
7.37
6.84
6.35
5.84
5.20
4.32
3.11
1.55
-0.26
-2.18
-4.11
-6.00
-7.87
-9.82
-11.92
-14.16
-16.50
-18.78
-20.92
-22.85
-24.60
-26.29
-28.14
-30.38
-33.11
-36.30
-39.62
-42.50
-44.22
-44.08
-41.64
-36.92
-30.35
-22.73
-14.96
-7.86
-1.95
2.56
5.76
7.90
9.33
10.45
11.59
13.08
15.13
17.73
20.67
23.56
25.92
27.41
27.88
27.41
26.21
24.59
22.78
20.96
19.28
17.86
16.78
16.03
15.48
14.93
14.19
13.21
12.11
11.09
10.34
9.97
9.92
10.06
10.20
10.20
9.92
9.33
8.44
7.34
6.12
4.84
3.51
2.14
0.68
-0.83
-2.37
-3.90
-5.45
-7.06
-8.76
-10.52
-12.26
-13.85
-15.27
-16.60
-18.03
-19.78
-22.08
-25.06
-28.82
-33.41
-38.78
-44.78
-51.00
-56.81
-61.39
-63.93
-63.84
-60.94
-55.53
-48.33
-40.26
-32.19
-24.73
-18.11
-12.35
-7.32
-2.89
1.03
4.48
7.55
10.27
12.65
14.59
15.93
16.59
16.60
16.14
15.58
15.24
15.38
16.09
17.40
19.29
21.72
24.62
27.91
31.48
35.33
39.61
44.66
50.82
58.22
66.55
75.04
82.60
88.21
91.31
91.95
90.78
88.67
86.40
84.41
82.72
81.10
79.24
76.91
74.07
70.71
66.87
62.56
57.85
52.82
47.59
42.23
36.69
30.74
24.05
16.35
7.58
-2.01
-11.93
-21.63
-30.75
-39.23
-47.31
-55.30
-63.34
-71.12
-77.80
-82.24
-83.35
-80.57
-74.21
-65.60
-56.88
-50.43
-48.30
-51.50
-59.53
-70.45
-81.28
-89.09
-92.02
-90.06
-84.99
-79.45
-75.64
-74.23
-74.19
-73.34
-69.31
-60.48
-46.34
-27.66
-6.52
13.79
29.11
35.40
30.19
13.80
-10.13
-35.69
-56.61
-68.45
-69.78
-61.97
-47.82
-30.00
-10.22
10.66
32.00
52.71
71.23
85.95
96.06
101.87
104.74
106.27
107.42
108.06
107.07
103.07
95.27
84.05
70.88
57.80
46.80
39.36
36.36
38.21
45.05
56.71
72.36
90.17
107.40
120.80
127.54
126.13
116.92
102.01
84.57
67.82
54.20
44.85
39.70
37.65
37.22
37.07
36.16
33.96
30.29
25.38
19.66
13.58
7.43
1.32
-4.57
-10.05
-14.92
-19.09
-22.75
-26.45
-30.92
-37.01
-44.97
-54.17
-63.25
-70.61
-75.12
-76.38
-74.79
-71.26
-67.55
-64.97
-63.87
-63.81
-64.32
-65.52
-68.05
-72.73
-79.90
-90.49
-103.97
-118.40
-131.27
-140.95
-147.21
-150.53
-151.09
-148.43
-144.19
-139.75
-136.15
-134.05
-134.33
-137.98
-145.14
-154.63
-164.27
-174.78
-186.31
-197.75
-206.78
-211.53
-211.74
-208.67
-204.33
-181.51
-133.23
-65.88
4.11
63.02
106.36
136.36
157.21
172.39
183.98
189.23
187.44
179.75
169.24
159.27
151.63
146.00
140.72
133.81
121.56
102.65
78.75
54.11
33.81
21.74
19.80
27.86
44.09
63.86
82.22
95.05
99.25
93.40
79.80
63.76
49.98
40.31
33.84
29.66
28.12
29.87
36.47
47.88
61.88
75.19
85.11
90.51
91.91
90.69
86.88
80.95
73.00
63.04
51.41
39.02
27.16
16.85
8.39
1.31
-4.83
-10.51
-15.97
-21.34
-26.61
-31.77
-36.98
-42.55
-48.75
-55.44
-62.28
-68.77
-74.33
-78.37
-80.38
-80.00
-77.22
-72.40
-66.23
-59.65
-53.62
-48.76
-45.13
-42.35
-39.94
-37.66
-35.59
-33.94
-32.69
-31.23
-28.52
-23.44
-15.43
-4.87
6.97
18.49
28.41
36.22
42.22
47.13
51.50
55.42
58.42
59.79
59.09
56.37
52.23
47.62
43.49
40.49
38.89
38.53
38.95
39.52
39.56
38.51
36.07
32.35
27.86
23.42
19.80
17.46
16.27
15.48
13.98
10.69
4.92
-3.28
-13.06
-23.04
-31.80
-38.48
-43.26
-47.53
-53.50
-63.35
-78.31
-98.00
-120.48
-142.82
-161.99
-175.72
-182.86
-183.31
-177.73
-167.03
-152.10
-133.70
-112.39
-88.66
-63.10
-36.66
-10.94
11.85
29.28
39.51
42.13
38.54
31.67
25.03
21.57
22.90
29.04
38.90
50.85
63.30
74.96
84.82
92.17
96.64
98.25
97.46
95.06
92.02
89.33
87.93
88.61
91.84
97.57
105.08
113.10
120.21
125.29
127.88
128.17
126.68
123.79
119.42
113.10
104.39
93.27
80.48
67.38
55.49
45.80
38.36
32.33
26.40
19.46
11.10
1.72
-7.71
-16.16
-22.96
-28.11
-32.21
-36.24
-41.18
-47.60
-55.36
-63.56
-70.75
-75.50
-76.93
-75.14
-71.22
-66.76
-63.09
-60.65
-58.72
-55.68
-49.76
-39.88
-26.31
-10.78
4.06
15.46
21.43
21.30
15.71
6.30
-4.91
-15.95
-25.25
-31.74
-34.93
-34.95
-32.50
-28.69
-24.69
-21.41
-19.29
-18.30
-18.14
-18.53
-19.27
-20.25
-21.38
-22.55
-23.72
-24.99
-26.66
-29.05
-32.28
-36.09
-39.83
-42.78
-44.47
-45.09
-45.27
-45.89
-47.50
-50.16
-53.46
-56.89
-60.27
-63.79
-67.78
-72.27
-76.70
-80.08
-81.38
-79.99
-75.99
-70.07
-63.10
-55.81
-48.64
-41.89
-35.92
-31.36
-28.87
-28.86
-31.14
-34.70
-37.96
-39.33
-37.75
-33.27
-26.92
-20.21
-14.41
-9.95
-6.30
-2.41
2.69
9.37
17.32
25.77
33.99
41.50
48.23
54.22
59.49
63.93
67.48
70.13
72.09
73.71
75.29
76.92
78.43
79.49
79.68
78.80
76.91
74.31
71.46
68.67
66.14
63.91
61.95
60.18
58.60
57.11
55.52
53.61
51.18
48.17
44.70
40.95
37.09
33.20
29.28
25.36
21.55
18.03
14.98
12.48
10.37
8.37
6.15
3.43
0.05
-3.91
-8.19
-12.50
-16.52
-20.08
-23.24
-26.19
-29.28
-32.83
-37.09
-42.19
-48.03
-54.13
-59.65
-63.48
-64.51
-62.11
-56.43
-48.41
-39.60
-31.54
-25.26
-21.11
-18.63
-16.87
-14.69
-11.21
-5.99
0.83
8.52
16.10
22.63
27.43
30.29
31.17
30.09
26.99
21.87
14.85
6.33
-3.21
-13.46
-24.42
-36.30
-49.08
-62.12
-74.09
-83.30
-88.29
-88.30
-83.59
-75.15
-64.31
-52.27
-39.97
-28.08
-17.23
-8.04
-1.17
2.81
3.66
1.48
-3.22
-9.75
-17.51
-26.11
-35.48
-45.75
-57.03
-69.21
-81.93
-94.40
-105.47
-113.65
-117.31
-115.08
-106.30
-91.37
-71.79
-49.84
-28.07
-8.79
6.29
16.10
20.19
18.83
13.09
4.95
-2.89
-7.64
-7.18
-0.74
11.01
26.30
42.87
58.83
72.95
84.81
94.48
102.33
108.71
113.99
118.45
122.26
125.48
127.98
129.51
129.76
128.58
126.05
122.55
118.59
114.67
111.16
108.22
105.76
103.56
101.34
98.80
95.76
92.23
88.42
84.69
81.40
78.72
76.50
74.38
71.86
68.54
64.18
58.74
52.26
44.89
36.86
28.60
20.65
13.59
7.71
2.88
-1.50
-6.20
-11.74
-18.08
-24.52
-30.13
-34.20
-36.62
-37.94
-39.06
-40.71
-43.09
-45.83
-48.27
-49.98
-50.98
-51.71
-52.72
-54.32
-56.49
-59.10
-62.14
-65.86
-70.47
-75.81
-81.01
-84.61
-85.21
-82.10
-75.74
-67.60
-59.57
-53.14
-49.01
-47.04
-46.55
-46.74
-46.79
-45.86
-43.09
-37.89
-30.26
-21.03
-11.55
-3.03
4.06
10.29
16.63
23.74
31.20
37.53
40.85
39.93
34.78
26.84
18.21
10.68
4.81
-0.31
-6.65
-16.37
-30.62
-48.79
-68.37
-85.54
-96.29
-97.77
-89.07
-71.36
-47.18
-19.51
8.97
36.25
60.72
81.08
96.32
106.03
110.60
111.04
108.21
102.13
91.72
75.31
51.81
21.77
-12.33
-46.69
-77.64
-102.71
-121.23
-133.87
-141.90
-146.53
-148.86
-149.98
-151.21
-153.94
-159.07
-166.55
-175.03
-182.26
-185.78
-183.84
-176.19
-164.09
-149.92
-136.14
-124.35
-114.73
-106.19
-97.03
-85.84
-72.06
-56.10
-38.93
-21.70
-5.28
9.79
23.23
34.98
45.15
54.10
62.43
70.73
79.41
88.53
97.82
106.80
114.96
121.94
127.48
131.43
133.75
134.52
133.94
132.38
130.25
127.92
125.56
123.19
120.64
117.73
114.38
110.61
106.55
102.31
97.96
93.37
88.31
82.44
75.58
67.83
59.60
51.58
44.43
38.53
33.80
29.66
25.26
19.84
13.00
4.89
-3.96
-12.85
-21.23
-28.89
-36.00
-43.06
-50.71
-59.48
-69.51
-80.24
-90.39
-98.17
-101.77
-99.98
-92.67
-80.91
-66.62
-51.92
-38.45
-27.06
-17.78
-10.03
-3.06
3.81
11.02
18.73
26.81
34.97
42.84
50.07
56.41
61.70
65.90
69.10
71.51
73.40
75.01
76.50
77.86
78.91
79.40
79.11
77.94
76.01
73.55
70.87
68.19
65.63
63.16
60.67
57.99
54.97
51.41
47.20
42.28
36.73
30.85
25.01
19.59
14.75
10.33
5.83
0.65
-5.61
-12.93
-20.81
-28.47
-35.20
-40.61
-44.69
-47.71
-49.99
-51.68
-52.70
-52.84
-51.92
-50.04
-47.61
-45.30
-43.91
-44.22
-46.82
-51.93
-59.17
-67.43
-74.90
-79.40
-78.99
-72.61
-60.49
-44.13
-25.79
-7.69
8.65
22.79
35.35
47.50
60.53
75.35
92.32
111.20
131.37
152.02
172.35
191.69
209.52
225.42
238.97
249.83
257.81
263.11
266.33
268.46
270.44
272.90
275.80
278.52
279.93
278.73
273.61
263.54
247.85
226.42
199.77
168.83
134.72
98.43
60.97
23.44
-12.47
-44.50
-70.39
-88.84
-100.32
-107.34
-113.80
-123.76
-140.22
-164.38
-195.38
-230.67
-266.60
-299.24
-325.26
-342.86
-352.25
-355.17
-353.88
-349.89
-343.38
-333.65
-320.22
-303.84
-286.55
-270.74
-257.89
-248.11
-240.58
-234.57
-229.80
-226.30
-223.32
-218.63
-209.06
-191.93
-166.70
-135.57
-102.70
-72.24
-46.70
-26.27
-9.56
5.08
18.45
30.32
40.07
47.47
53.00
57.71
62.69
68.58
75.49
83.07
90.95
98.85
106.63
114.24
121.47
127.88
132.77
135.24
134.50
130.07
122.07
111.22
98.64
85.55
72.87
61.12
50.52
41.14
33.12
26.69
22.05
19.25
18.13
18.27
19.09
19.93
20.12
19.15
16.68
12.72
7.53
1.60
-4.47
-10.29
-15.66
-20.65
-25.53
-30.53
-35.80
-41.28
-46.88
-52.52
-58.29
-64.44
-71.30
-79.16
-87.90
-96.82
-104.48
-108.93
-108.25
-101.34
-88.47
-71.37
-52.58
-34.47
-18.34
-4.28
8.28
19.84
30.34
39.51
47.43
54.77
62.46
70.84
79.09
85.45
88.23
86.92
82.62
77.50
73.60
71.77
71.53
71.54
70.58
68.11
64.23
59.27
53.37
46.54
38.86
30.88
23.73
18.78
17.14
19.08
23.87
29.92
35.49
39.35
41.16
41.49
41.27
41.20
41.44
41.62
41.28
40.15
38.33
36.05
33.43
30.37
26.52
21.54
15.24
7.68
-0.83
-9.81
-18.75
-27.24
-35.17
-42.91
-51.17
-60.77
-72.18
-85.06
-98.05
-109.07
-115.84
-116.65
-111.02
-99.78
-84.88
-68.67
-53.22
-39.76
-28.58
-19.23
-10.99
-3.25
4.31
11.72
18.92
25.85
32.40
38.51
44.06
48.98
53.20
56.77
59.74
62.14
63.93
65.05
65.43
65.05
63.95
62.17
59.73
56.70
53.20
49.45
45.77
42.41
39.52
37.01
34.63
32.09
29.11
25.53
21.31
16.60
11.63
6.74
2.21
-1.83
-5.45
-8.97
-12.78
-17.26
-22.57
-28.59
-34.95
-41.15
-46.77
-51.54
-55.56
-59.20
-63.11
-68.04
-74.65
-83.25
-93.50
-104.38
-114.17
-120.91
-122.89
-119.20
-110.06
-96.75
-81.21
-65.49
-51.17
-39.09
-29.29
-21.24
-14.14
-7.23
-0.00
7.64
15.44
22.95
29.71
35.44
40.17
44.03
47.22
49.89
52.18
54.28
56.48
59.04
62.10
65.54
68.98
71.94
74.07
75.26
75.63
75.42
74.79
73.76
72.23
70.06
67.22
63.79
60.05
56.38
53.14
50.51
48.49
46.73
44.74
41.99
38.11
33.07
27.08
20.65
14.26
8.25
2.71
-2.59
-7.97
-13.72
-19.90
-26.32
-32.65
-38.59
-44.02
-49.08
-54.11
-59.56
-65.92
-73.56
-82.59
-92.66
-102.82
-111.49
-116.80
-117.12
-111.65
-100.80
-86.08
-69.59
-53.38
-38.88
-26.76
-16.98
-9.08
-2.40
3.73
9.89
16.45
23.49
30.73
37.72
43.94
49.11
53.20
56.35
58.71
60.32
61.09
61.03
60.32
59.27
58.15
57.07
55.91
54.41
52.47
50.23
48.04
46.31
45.21
44.57
43.88
42.61
40.43
37.36
33.70
29.81
25.94
22.17
18.45
14.76
11.21
7.95
5.16
2.84
0.82
-1.23
-3.66
-6.77
-10.71
-15.40
-20.56
-25.70
-30.21
-33.50
-35.37
-36.21
-37.07
-39.39
-44.51
-53.10
-64.83
-78.28
-91.37
-101.83
-107.88
-108.58
-103.97
-94.93
-82.81
-69.13
-55.29
-42.35
-30.96
-21.30
-13.18
-6.18
0.23
6.55
13.11
19.98
26.99
33.88
40.38
46.33
51.59
55.91
58.71
59.10
56.17
49.48
39.54
27.99
17.34
10.13
8.07
11.39
18.79
27.97
36.43
42.30
44.57
43.10
38.24
30.64
21.08
10.47
-0.16
-9.91
-18.23
-25.13
-31.24
-37.59
-45.30
-55.02
-66.78
-79.81
-92.83
-104.45
-113.48
-119.21
-121.43
-120.39
-116.56
-110.54
-102.88
-94.03
-84.37
-74.21
-63.93
-54.05
-45.25
-38.32
-33.89
-32.18
-32.70
-34.26
-35.19
-33.83
-29.08
-20.64
-9.14
4.19
17.91
30.99
43.16
54.87
66.98
80.21
94.61
109.41
123.24
134.56
142.18
145.63
145.21
141.74
136.38
130.27
124.32
119.19
115.13
112.06
109.70
107.73
105.98
104.44
103.17
102.10
101.01
99.40
96.66
92.15
85.43
76.51
65.93
54.80
44.62
36.82
32.30
31.00
31.88
33.34
33.81
32.38
28.99
24.22
18.85
13.46
8.23
3.12
-2.02
-7.33
-13.02
-19.58
-27.86
-38.85
-53.25
-71.02
-91.22
-112.39
-133.05
-152.35
-170.02
-186.04
-200.06
-210.96
-217.10
-216.83
-209.28
-194.65
-174.23
-149.84
-123.47
-96.95
-71.85
-49.48
-30.64
-15.48
-3.40
6.72
15.99
25.12
34.18
42.74
50.22
56.28
60.87
64.20
66.54
68.09
69.01
69.51
69.94
70.66
71.93
73.70
75.57
76.85
76.82
74.92
70.92
64.95
57.46
49.12
40.70
32.87
26.12
20.58
16.14
12.51
9.47
7.05
5.57
5.51
7.22
10.79
16.02
22.61
30.23
38.58
47.10
54.77
60.15
61.70
58.43
50.26
38.17
23.77
8.79
-5.36
-17.79
-27.95
-35.67
-41.29
-45.80
-50.85
-58.42
-70.00
-85.96
-105.24
-125.68
-145.03
-161.87
-175.94
-187.80
-198.02
-206.53
-212.55
-214.91
-212.63
-205.48
-193.95
-178.91
-161.08
-140.71
-117.51
-91.18
-61.89
-30.81
-0.27
26.91
48.40
63.25
72.14
76.77
78.80
79.38
78.92
77.27
74.34
70.55
66.65
63.21
60.25
57.03
53.17
48.87
44.49
40.11
35.55
30.51
24.78
18.24
10.47
1.91
-6.44
-13.86
-20.22
-25.71
-30.56
-35.15
-40.06
-46.29
-53.25
-58.77
-60.19
-55.07
-41.38
-17.63
16.62
62.40
111.84
152.49
175.76
180.46
169.76
148.14
120.44
91.41
65.10
43.57
27.94
18.38
13.06
10.06
8.09
7.03
7.28
8.67
9.53
8.17
3.61
-4.36
-15.06
-27.07
-37.77
-44.16
-43.66
-34.78
-16.74
10.10
43.55
79.58
113.14
139.61
155.89
161.08
156.26
144.09
127.76
109.95
92.41
76.11
61.64
49.21
38.72
29.59
21.08
12.46
3.30
-6.32
-15.84
-24.42
-31.41
-36.72
-41.01
-45.41
-51.08
-58.65
-67.98
-78.19
-87.90
-95.65
-100.20
-100.77
-97.20
-90.01
-80.33
-69.61
-59.21
-50.09
-42.53
-36.22
-30.52
-24.80
-18.67
-12.08
-5.26
1.34
7.26
12.11
15.66
17.95
19.27
20.05
20.74
21.58
22.60
23.68
24.63
25.30
25.65
25.63
25.23
24.42
23.19
21.63
19.88
18.07
16.28
14.44
12.40
10.11
7.61
5.12
2.86
0.93
-0.80
-2.69
-5.14
-8.38
-12.39
-16.91
-21.64
-26.32
-30.89
-35.43
-40.03
-44.76
-49.67
-54.82
-60.22
-65.77
-71.07
-75.40
-77.81
-77.42
-73.77
-67.04
-58.11
-48.27
-38.85
-30.70
-24.05
-18.53
-13.46
-8.21
-2.48
3.66
9.82
15.61
20.75
25.11
28.68
31.48
33.47
34.66
35.20
35.39
35.67
36.35
37.55
39.03
40.32
40.87
40.30
38.57
35.98
33.10
30.52
28.63
27.47
26.73
25.83
24.20
21.50
17.83
13.85
10.70
9.74
12.14
18.54
28.79
42.07
57.05
72.21
86.07
97.33
104.90
107.95
106.07
99.32
88.26
73.83
57.09
39.15
21.09
4.05
-10.82
-22.66
-31.25
-37.15
-41.52
-45.50
-49.57
-53.29
-55.56
-55.25
-51.91
-46.07
-38.94
-31.83
-25.61
-20.53
-16.34
-12.68
-9.27
-6.02
-2.93
0.02
2.91
5.80
8.71
11.57
14.14
15.97
16.48
15.05
11.30
5.30
-2.31
-10.45
-17.83
-23.35
-26.24
-26.24
-23.59
-18.91
-13.22
-7.66
-3.40
-1.27
-1.69
-4.54
-9.31
-15.36
-22.11
-29.15
-36.35
-43.72
-51.34
-59.32
-67.79
-76.81
-86.48
-96.81
-107.69
-118.78
-129.56
-139.46
-147.95
-154.74
-159.72
-162.78
-163.71
-162.07
-157.33
-149.27
-138.20
-125.15
-111.72
-99.61
-90.17
-84.02
-80.94
-80.06
-80.00
-79.28
-76.58
-70.87
-61.58
-48.73
-32.94
-15.48
1.97
17.58
29.87
38.34
43.70
47.77
52.89
60.86
72.28
86.40
101.68
116.68
130.67
143.69
155.98
167.35
176.97
183.81
187.16
187.17
184.79
181.27
177.50
173.58
168.92
162.61
154.06
143.43
131.88
121.21
113.07
108.14
105.49
102.85
97.66
88.45
75.61
61.14
47.31
35.28
24.44
12.96
-0.94
-17.97
-37.51
-58.43
-79.98
-102.24
-125.58
-149.51
-171.84
-188.80
-196.49
-192.89
-179.40
-160.73
-143.08
-131.53
-127.91
-130.45
-135.31
-138.87
-139.62
-138.29
-136.46
-134.60
-130.92
-121.97
-104.38
-76.84
-41.08
-1.14
38.35
73.86
103.95
129.05
150.42
169.02
184.79
196.60
202.97
202.82
196.05
183.38
166.01
144.91
120.59
93.26
63.30
31.78
0.67
-27.33
-49.41
-63.30
-67.86
-63.36
-51.39
-34.41
-15.14
4.12
21.93
37.86
52.13
65.04
76.59
86.26
93.33
97.35
98.44
97.26
94.70
91.30
87.14
81.80
74.87
66.33
56.79
47.24
38.63
31.38
25.21
19.30
12.74
4.95
-4.01
-13.51
-22.57
-30.32
-36.38
-41.07
-45.27
-50.08
-56.19
-63.45
-70.67
-75.98
-77.60
-74.53
-67.01
-56.37
-44.48
-33.18
-24.03
-18.25
-16.63
-19.33
-25.58
-33.70
-41.41
-46.69
-48.50
-47.12
-43.86
-40.26
-37.40
-35.58
-34.49
-33.66
-32.84
-32.05
-31.46
-31.19
-31.22
-31.50
-31.94
-32.49
-33.07
-33.59
-34.01
-34.35
-34.61
-34.71
-34.47
-33.63
-31.98
-29.51
-26.43
-23.12
-19.97
-17.15
-14.56
-11.81
-8.37
-3.68
2.57
10.39
19.47
29.26
39.09
48.39
56.74
63.88
69.72
74.22
77.37
79.16
