1520266253.00
64.000000
-0.00
-0.00
-0.00
-0.00
-0.00
-0.00
-0.00
-0.00
-0.00
-0.00
0.00
0.01
0.01
-0.00
-0.03
-0.05
-0.05
0.00
0.13
0.36
0.66
1.01
1.37
1.72
2.06
2.40
2.79
3.24
3.80
4.42
5.06
5.66
6.20
6.68
7.15
7.68
8.31
9.14
10.09
11.04
11.88
12.56
13.14
13.76
14.65
15.96
17.91
20.32
22.90
25.38
27.58
29.57
31.68
34.32
37.81
42.54
48.15
54.10
59.83
64.97
69.58
74.14
79.34
85.71
93.76
103.00
112.62
121.73
129.77
136.75
143.30
150.75
157.77
166.64
177.95
191.79
206.97
220.57
228.25
225.36
208.53
176.87
132.76
80.05
23.07
-34.94
-92.44
-149.16
-205.23
-260.37
-313.74
-363.87
-409.83
-450.91
-486.50
-515.74
-537.23
-549.22
-549.96
-538.37
-514.21
-478.67
-433.88
-382.45
-327.02
-269.84
-212.63
-156.66
-102.95
-52.37
-5.90
35.58
71.43
101.35
125.50
144.38
158.69
169.15
176.37
180.75
182.57
182.07
179.51
175.23
169.65
163.18
156.15
148.81
141.30
133.69
126.02
118.33
110.69
103.16
95.80
88.68
81.83
75.25
68.95
62.95
57.25
51.86
46.78
42.03
37.59
33.45
29.61
26.07
22.81
19.83
17.11
14.67
12.48
10.54
8.83
7.35
6.07
4.97
4.05
3.27
2.62
2.09
1.65
1.30
1.01
0.79
0.61
0.48
0.37
0.29
0.24
0.20
0.18
0.17
0.18
0.19
0.21
0.24
0.27
0.31
0.35
0.39
0.44
0.48
0.53
0.58
0.63
0.68
0.74
0.81
0.87
0.95
1.03
1.12
1.22
1.34
1.47
1.61
1.77
1.95
2.15
2.37
2.61
2.88
3.18
3.51
3.87
4.26
4.69
5.15
5.66
6.20
6.78
7.40
8.06
8.77
9.52
10.32
11.17
12.06
12.99
13.98
15.03
16.14
17.31
18.55
19.82
21.10
22.34
23.45
24.33
24.88
24.95
24.45
23.27
21.39
18.77
15.51
11.65
7.38
2.88
-1.62
-5.91
-9.81
-13.13
-15.77
-17.68
-18.83
-19.25
-19.05
-18.32
-17.16
-15.70
-14.05
-12.28
-10.48
-8.70
-6.95
-5.25
-3.59
-1.95
-0.28
1.46
3.27
5.15
7.11
9.19
11.30
13.43
15.60
17.85
20.20
22.64
25.19
27.86
30.76
33.73
36.77
39.96
43.36
47.00
50.81
54.70
58.61
62.65
66.54
70.33
74.18
78.25
82.56
86.93
91.04
94.64
97.68
99.72
100.78
101.05
100.59
99.10
95.71
88.96
76.69
61.36
43.71
24.53
4.65
-15.31
-35.05
-54.62
-74.31
-94.51
-115.62
-138.71
-164.45
-192.66
-221.83
-249.03
-270.38
-282.31
-282.84
-272.32
-253.86
-231.60
-209.36
-189.65
-173.48
-160.73
-150.81
-143.02
-136.45
-130.12
-122.54
-112.09
-97.67
-79.29
-58.18
-36.45
-16.35
0.64
13.97
24.31
33.00
41.34
50.02
58.92
67.27
74.13
78.89
81.52
82.51
82.64
82.53
82.41
82.20
81.61
80.45
78.80
76.93
75.06
73.27
71.34
68.99
66.04
62.52
58.72
54.98
51.55
48.49
45.66
42.86
39.95
36.87
33.72
30.62
27.65
24.81
21.98
19.02
15.84
12.45
8.98
5.58
2.27
-1.04
-4.56
-8.45
-12.69
-17.10
-21.37
-25.23
-28.63
-31.70
-34.76
-38.23
-42.46
-47.71
-54.00
-60.94
-67.67
-72.94
-75.33
-73.65
-67.36
-56.78
-43.12
-28.10
-13.48
-0.56
10.23
19.26
27.51
35.93
45.03
54.53
63.51
70.83
75.62
77.73
77.69
76.40
74.63
72.72
70.44
67.32
62.96
57.18
49.87
40.86
29.78
16.16
-0.06
-18.31
-37.43
-56.26
-74.36
-92.37
-111.60
-133.12
-156.72
-180.44
-201.09
-215.45
-221.67
-219.95
-212.45
-202.35
-192.77
-185.75
-181.76
-179.61
-176.76
-170.10
-156.92
-135.88
-107.56
-74.37
-39.57
-6.07
24.73
53.51
82.89
116.45
156.80
203.74
252.87
295.74
321.72
321.13
288.47
224.48
136.23
35.29
-64.94
-152.13
-217.31
-256.22
-269.70
-262.92
-243.58
-219.38
-195.73
-174.43
-153.97
-131.21
-103.64
-70.89
-35.09
0.08
30.94
55.08
71.81
81.91
86.63
87.14
84.26
78.99
73.05
69.09
70.02
77.69
91.77
109.49
126.69
139.64
146.55
148.21
147.15
146.03
146.26
147.40
147.75
145.55
140.01
131.79
122.47
113.84
106.98
102.10
98.59
95.45
91.79
87.09
81.17
74.21
66.57
58.62
50.54
42.14
33.17
23.59
14.04
5.77
0.15
-2.12
-1.61
0.13
1.12
0.08
-2.99
-6.91
-9.94
-10.71
-8.57
-4.06
1.31
4.75
2.37
-10.36
-37.31
-79.83
-135.00
-195.54
-251.72
-294.39
-318.13
-322.43
-310.58
-286.97
-254.65
-214.63
-167.17
-113.69
-57.73
-4.29
42.21
79.97
110.15
135.79
159.75
183.13
205.02
223.41
236.51
243.56
245.27
243.29
239.63
235.89
232.76
229.78
225.50
218.02
205.70
187.93
165.28
139.33
112.31
86.60
64.34
47.22
36.33
31.88
32.86
36.84
40.49
40.27
33.50
19.22
-1.72
-27.18
-54.69
-82.12
-107.94
-130.94
-149.73
-162.79
-168.83
-167.46
-159.55
-147.02
-132.18
-117.17
-103.65
-92.76
-84.95
-79.86
-76.14
-71.95
-65.93
-58.02
-49.73
-43.60
-42.05
-46.22
-55.62
-68.38
-81.98
-93.97
-102.02
-104.02
-98.17
-83.44
-60.29
-30.84
1.52
32.91
60.00
80.55
93.23
97.28
92.16
77.71
54.77
26.09
-3.35
-26.96
-38.22
-33.12
-11.79
21.60
60.41
98.52
132.63
162.91
191.63
220.76
250.09
277.00
297.88
310.18
313.82
310.89
304.15
295.33
284.20
269.01
247.88
220.41
188.44
155.78
126.88
105.09
91.25
83.32
77.05
67.72
52.06
29.43
1.76
-27.71
-56.13
-82.58
-108.25
-135.56
-166.40
-200.73
-235.93
-267.51
-290.58
-301.55
-299.15
-284.53
-260.40
-229.76
-195.08
-158.18
-120.78
-85.04
-53.50
-28.50
-11.15
-0.82
4.51
7.31
9.41
11.52
13.54
15.28
17.20
20.42
26.13
34.92
46.24
58.61
70.17
79.39
85.48
88.29
88.13
85.44
80.70
74.44
67.43
60.52
54.52
49.91
46.65
44.25
41.97
39.17
35.52
31.06
26.11
20.96
15.72
10.23
4.06
-3.25
-12.07
-22.58
-34.66
-47.94
-61.75
-75.21
-87.38
-97.29
-104.20
-107.68
-107.70
-104.57
-98.92
-91.51
-83.14
-74.50
-66.05
-57.96
-50.26
-42.94
-36.08
-29.76
-23.93
-18.30
-12.30
-5.39
2.68
11.62
20.72
29.10
36.12
41.70
46.30
50.72
55.72
61.73
68.68
76.07
83.16
89.26
93.87
96.69
97.45
95.72
90.81
82.09
69.24
52.49
32.34
9.21
-17.02
-46.70
-79.86
-115.35
-150.63
-182.44
-208.02
-226.23
-237.93
-245.39
-251.11
-256.96
-263.99
-272.71
-283.61
-297.02
-312.52
-328.21
-340.63
-345.46
-338.71
-318.06
-283.65
-237.99
-185.20
-129.71
-75.24
-24.06
22.96
65.86
104.84
139.82
170.42
196.46
218.34
237.19
254.29
270.21
284.08
293.61
295.82
288.25
270.05
242.38
208.04
170.56
133.23
98.39
67.25
40.08
16.64
-3.54
-21.11
-36.86
-51.70
-66.41
-81.49
-96.95
-112.42
-127.45
-141.82
-155.72
-169.65
-184.18
-199.65
-216.02
-232.68
-248.24
-260.46
-266.30
-262.46
-246.28
-216.66
-174.58
-122.85
-65.31
-5.92
51.78
104.63
149.62
183.91
205.37
213.35
209.29
196.52
179.32
161.60
145.86
132.90
122.27
113.06
104.71
97.24
91.08
86.62
83.89
82.37
81.20
79.51
76.90
73.61
70.57
68.95
69.75
73.35
79.29
86.52
93.52
98.58
99.99
96.03
85.18
66.36
39.47
5.69
-32.39
-71.32
-107.81
-139.60
-166.06
-187.86
-206.20
-221.86
-234.77
-244.17
-249.29
-249.93
-246.53
-239.72
-229.63
-215.48
-196.06
-170.66
-140.01
-106.61
-73.91
-45.08
-21.63
-2.97
13.14
29.36
47.56
68.14
90.12
111.79
131.29
147.06
158.06
164.00
165.44
164.02
162.15
162.25
165.69
172.15
179.62
185.27
186.66
182.68
173.79
161.47
147.48
133.16
119.32
106.43
94.86
84.94
76.79
70.21
64.70
59.73
55.03
50.64
46.69
43.09
39.43
35.19
30.19
24.90
20.36
17.62
17.10
18.09
18.89
17.49
12.35
2.95
-10.21
-26.09
-43.77
-62.88
-83.56
-106.03
-129.85
-153.68
-175.21
-191.76
-200.95
-201.42
-193.14
-177.41
-156.39
-132.50
-107.87
-83.82
-60.83
-38.72
-17.09
4.24
25.13
45.15
64.00
81.66
98.41
114.46
129.52
142.62
152.33
157.30
156.83
151.25
141.78
130.20
118.38
107.76
99.17
92.76
88.10
84.45
81.05
77.35
73.17
68.65
64.09
59.67
55.35
50.84
45.74
39.72
32.62
24.50
15.56
6.01
-4.03
-14.50
-25.28
-36.12
-46.51
-55.91
-63.81
-70.04
-74.77
-78.45
-81.64
-84.78
-88.04
-91.35
-94.44
-97.05
-99.14
-100.93
-102.91
-105.63
-109.49
-114.41
-119.71
-124.20
-126.36
-124.81
-118.63
-107.69
-92.62
-74.67
-55.31
-35.91
-17.45
-0.61
14.14
26.42
36.01
43.00
47.91
51.60
55.07
58.96
63.34
67.75
71.36
73.48
73.82
72.50
70.01
66.85
63.43
60.03
56.77
53.75
51.03
48.72
46.84
45.35
44.05
42.64
40.83
38.37
35.27
31.66
27.76
23.79
19.87
16.04
12.39
9.04
6.22
4.12
2.75
1.84
0.85
-0.90
-3.93
-8.44
-14.12
-20.35
-26.38
-31.70
-36.17
-40.08
-43.89
-48.11
-53.10
-59.08
-66.05
-73.71
-81.37
-87.85
-91.73
-91.84
-87.85
-80.44
-71.15
-61.64
-53.00
-45.50
-38.60
-31.54
-23.86
-15.71
-7.65
-0.30
6.02
11.26
15.42
18.57
20.86
22.41
23.43
24.19
24.99
26.09
27.54
28.69
28.92
27.78
25.07
20.74
14.98
8.30
1.47
-4.91
-11.42
-18.57
-26.56
-35.29
-44.48
-53.73
-62.41
-69.74
-75.41
-80.92
-87.41
-95.18
-103.85
-112.87
-121.66
-129.51
-135.59
-139.58
-142.66
-144.23
-141.74
-132.04
-113.68
-88.16
-59.45
-32.50
-0.08
39.40
83.34
126.83
165.90
198.21
221.87
235.79
239.82
234.44
219.50
195.80
164.97
128.73
87.63
41.01
-12.32
-64.78
-110.38
-146.60
-173.10
-190.90
-201.41
-206.50
-208.02
-206.85
-204.20
-202.32
-204.09
-211.02
-222.14
-233.54
-239.31
-237.50
-221.54
-190.05
-147.96
-104.03
-66.88
-41.84
-29.75
-28.00
-32.13
-37.71
-42.88
-47.70
-52.59
-57.04
-59.41
-57.35
-52.28
-44.99
-35.84
-25.76
-15.40
-4.67
6.91
19.89
34.33
49.71
65.55
81.48
96.96
111.97
127.22
143.85
162.46
182.27
200.57
213.67
218.09
212.00
196.77
176.86
158.32
146.55
144.49
151.85
166.13
183.59
200.41
213.36
219.97
218.61
208.79
191.47
169.16
145.46
123.86
106.81
95.12
88.14
84.48
82.68
81.68
80.88
80.01
78.89
77.45
75.56
72.98
69.17
63.29
54.51
42.50
27.92
12.52
-1.33
-11.45
-16.54
-16.57
-12.48
-5.43
3.75
14.65
26.83
39.04
48.71
52.23
46.11
28.34
-0.34
-36.35
-74.20
-108.17
-133.96
-149.55
-155.05
-151.96
-142.34
-128.29
-111.97
-95.52
-80.88
-69.23
-60.57
-53.73
-47.04
-39.42
-31.21
-24.21
-20.94
-23.31
-31.51
-43.78
-56.98
-67.71
-73.47
-73.25
-67.54
-58.03
-47.01
-36.93
-29.78
-26.51
-26.68
-28.38
-28.91
-25.76
-17.53
-4.39
12.09
29.75
46.61
61.32
73.25
82.24
88.33
91.64
92.49
91.35
88.94
86.01
83.14
80.64
78.49
76.37
73.87
70.65
66.66
62.19
57.74
53.76
50.41
47.46
44.49
41.04
36.90
32.18
27.22
22.44
18.10
14.26
10.74
7.27
3.60
-0.39
-4.68
-9.20
-13.87
-18.59
-23.24
-27.73
-31.96
-35.98
-40.02
-44.43
-49.56
-55.52
-62.04
-68.46
-73.87
-77.33
-78.17
-76.06
-71.15
-63.99
-55.42
-46.39
-37.78
-30.14
-23.65
-18.05
-12.86
-7.58
-1.96
3.93
9.70
14.80
18.81
21.53
23.13
24.07
24.88
25.96
27.46
29.24
30.98
32.40
33.35
33.88
34.08
34.04
33.73
33.05
31.92
30.45
28.85
27.42
26.41
25.81
25.40
24.81
23.70
21.85
19.26
16.13
12.72
9.33
6.13
3.22
0.54
-2.01
-4.56
-7.24
-10.15
-13.43
-17.11
-21.16
-25.35
-29.33
-32.77
-35.53
-37.84
-40.27
-43.56
-48.22
-54.30
-61.15
-67.65
-72.46
-74.41
-72.81
-67.58
-59.30
-49.06
-38.22
-28.03
-19.35
-12.44
-7.01
-2.44
1.85
6.13
10.27
13.83
16.39
17.70
17.78
16.84
15.23
13.36
11.77
11.09
11.89
14.50
18.80
24.13
29.57
34.26
37.80
40.37
42.61
45.21
48.54
52.56
56.84
60.89
64.34
67.08
69.13
70.60
71.56
72.06
72.21
72.19
72.16
72.10
71.72
70.48
67.86
63.74
58.80
54.73
53.97
58.93
70.84
88.94
110.16
129.79
142.89
145.76
136.95
117.25
88.89
54.30
15.26
-27.14
-71.82
-116.87
-159.37
-195.91
-223.78
-241.81
-250.69
-252.15
-247.80
-238.19
-223.03
-201.96
-175.54
-145.66
-115.11
-86.61
-61.87
-41.40
-24.87
-11.83
-2.20
3.72
5.67
4.01
0.01
-4.40
-7.18
-6.97
-3.56
2.01
7.80
11.87
13.11
11.80
9.29
7.09
5.84
4.75
1.75
-5.55
-18.54
-36.54
-56.82
-75.48
-88.94
-95.38
-95.34
-91.24
-86.19
-82.54
-81.17
-81.43
-81.95
-81.67
-80.61
-79.95
-81.33
-85.66
-92.23
-98.67
-101.83
-99.25
-90.43
-77.20
-63.05
-51.60
-45.12
-43.59
-44.91
-45.86
-43.40
-35.81
-23.27
-7.47
9.19
24.86
39.09
52.95
68.21
85.94
105.41
123.81
137.35
142.80
138.71
125.71
105.87
81.84
56.47
32.91
14.97
6.72
11.00
27.56
52.04
76.75
93.43
96.80
87.06
69.98
54.43
48.59
56.61
77.32
105.34
133.77
157.20
173.54
184.04
191.71
199.21
207.32
214.84
219.39
218.90
212.57
200.86
184.64
164.30
139.38
109.02
72.98
32.35
-10.47
-52.59
-92.00
-128.21
-162.37
-196.22
-230.84
-265.62
-298.09
-324.79
-342.61
-349.96
-347.14
-335.85
-318.36
-296.85
-273.15
-248.73
-224.62
-201.04
-177.05
-150.71
-120.06
-84.48
-45.65
-7.22
26.77
54.03
75.20
93.41
112.46
134.62
159.35
183.58
203.30
215.41
218.99
215.32
207.06
197.01
187.13
178.18
170.00
161.94
153.41
144.11
133.96
122.78
110.09
95.14
77.28
56.54
34.09
12.24
-6.08
-18.05
-21.84
-16.73
-3.17
17.49
43.05
70.17
94.23
109.57
110.50
92.70
54.47
-2.49
-73.13
-149.80
-223.53
-285.73
-329.85
-352.91
-356.08
-344.16
-323.98
-302.24
-283.67
-270.34
-262.01
-257.29
-254.69
-253.11
-251.62
-249.12
-244.25
-235.74
-222.92
-206.01
-185.97
-164.07
-141.19
-117.62
-93.24
-67.90
-41.82
-15.63
10.14
35.43
60.76
86.66
112.84
137.83
159.40
175.65
186.06
191.56
193.73
193.41
190.03
182.01
168.29
149.54
128.39
108.28
91.78
79.67
71.32
66.03
64.41
68.61
81.30
104.21
137.06
177.31
220.87
263.04
299.43
326.42
341.58
343.95
334.14
314.31
287.71
258.06
228.91
203.15
182.63
167.57
156.15
144.59
128.13
102.98
68.25
26.82
-15.57
-52.77
-80.88
-99.44
-110.61
-117.10
-120.16
-119.04
-112.29
-99.61
-83.03
-66.50
-54.00
-47.45
-45.73
-45.23
-41.60
-31.91
-15.98
3.51
22.14
35.67
41.78
40.97
36.28
31.86
31.10
35.37
43.97
54.95
66.49
77.63
88.24
98.40
107.85
115.80
121.41
124.20
124.34
122.44
119.22
115.14
110.35
104.74
97.93
89.17
77.13
59.74
34.31
-1.86
-50.14
-108.98
-172.63
-231.29
-273.03
-287.56
-270.16
-223.94
-159.25
-90.25
-30.24
12.18
34.44
38.92
30.56
14.87
-3.05
-18.55
-27.56
-27.46
-18.14
-2.40
15.04
29.48
37.90
39.73
36.14
28.64
18.16
5.26
-9.10
-22.97
-33.72
-39.20
-38.97
-34.83
-30.04
-27.61
-28.37
-30.23
-28.62
-18.45
3.51
36.72
76.29
114.45
143.42
158.59
160.19
152.58
141.51
130.92
121.33
110.46
95.66
76.31
54.39
33.16
14.60
-2.59
-23.24
-53.87
-99.40
-159.88
-228.96
-294.65
-342.44
-359.66
-339.84
-285.39
-207.51
-123.16
-50.13
-2.04
14.95
2.80
-30.26
-72.77
-113.34
-143.04
-156.80
-153.83
-137.07
-112.09
-85.21
-61.78
-44.71
-34.20
-28.48
-25.25
-23.08
-21.70
-21.43
-22.08
-22.43
-20.46
-14.59
-4.89
6.40
15.58
18.72
12.78
-3.92
-31.58
-68.76
-112.19
-156.60
-195.28
-221.61
-231.03
-222.48
-198.47
-163.71
-123.04
-79.97
-36.31
7.02
49.05
88.86
126.41
163.56
203.98
251.39
307.05
367.72
425.68
470.90
494.40
491.26
461.89
411.43
348.06
281.15
219.71
171.20
139.98
126.07
124.58
126.74
122.53
104.06
68.33
18.13
-39.54
-96.17
-144.76
-181.53
-205.97
-219.70
-224.81
-222.73
-213.85
-198.10
-175.92
-149.26
-121.88
-98.58
-83.66
-79.05
-83.33
-92.20
-100.40
-104.01
-102.14
-96.81
-91.47
-88.61
-88.37
-88.58
-86.38
-80.11
-70.53
-60.36
-52.65
-49.06
-48.98
-50.03
-49.45
-45.55
-38.52
-30.26
-23.48
-20.50
-22.20
-27.75
-35.00
-41.50
-45.58
-47.06
-47.11
-47.45
-49.32
-52.81
-56.81
-59.64
-59.93
-57.25
-52.02
-45.07
-37.00
-28.01
-18.16
-7.85
1.81
9.32
13.39
13.66
11.07
7.59
5.52
6.65
11.74
20.38
31.25
42.60
52.77
60.41
64.75
65.69
63.67
59.55
54.26
48.62
43.21
38.31
34.01
30.30
27.17
24.60
22.53
20.81
19.18
17.30
14.89
11.79
8.01
3.68
-1.01
-5.90
-10.91
-15.98
-21.07
-26.17
-31.42
-37.02
-43.17
-49.79
-56.35
-61.85
-65.07
-64.98
-61.15
-53.92
-44.26
-33.50
-22.89
-13.33
-5.26
1.29
6.61
11.13
15.26
19.27
23.22
26.96
30.30
33.03
35.10
36.53
37.44
37.99
38.37
38.70
39.12
39.66
40.29
40.86
41.16
40.96
40.09
38.45
36.08
33.18
30.10
27.30
25.14
23.78
23.04
22.51
21.68
20.22
18.09
15.51
12.78
10.09
7.39
4.42
0.88
-3.40
-8.33
-13.63
-18.95
-24.01
-28.66
-32.95
-37.09
-41.36
-46.10
-51.58
-57.85
-64.63
-71.18
-76.35
-78.85
-77.67
-72.40
-63.50
-52.16
-40.01
-28.52
-18.65
-10.65
-4.14
1.52
6.87
12.17
17.33
22.09
26.19
29.54
32.17
34.19
35.67
36.64
37.11
37.19
37.13
37.22
37.63
38.36
39.14
39.58
39.36
38.36
36.68
34.58
32.33
30.14
28.13
26.39
24.97
23.87
23.04
22.35
21.68
20.90
19.96
18.83
17.49
15.93
14.06
11.81
9.04
5.65
1.56
-3.23
-8.64
-14.43
-20.27
-25.76
-30.56
-34.54
-37.84
-40.81
-44.00
-47.89
-52.72
-58.26
-63.85
-68.42
-70.82
-70.15
-66.11
-59.07
-49.95
-39.90
-29.99
-20.93
-12.99
-6.08
0.03
5.55
10.52
14.84
18.34
20.93
22.73
23.99
25.03
26.10
27.26
28.46
29.64
30.80
32.08
33.58
35.25
36.83
37.93
38.25
37.72
36.53
35.01
33.43
31.91
30.41
28.84
27.17
25.41
23.59
21.69
19.60
17.20
14.50
11.64
8.87
6.38
4.23
2.22
0.04
-2.64
-6.02
-10.07
-14.57
-19.15
-23.49
-27.32
-30.59
-33.39
-35.97
-38.67
-41.90
-46.00
-51.09
-56.97
-62.93
-67.88
-70.61
-70.13
-66.09
-58.86
-49.48
-39.26
-29.36
-20.54
-12.99
-6.53
-0.77
4.59
9.71
14.60
19.12
23.15
26.62
29.52
31.87
33.76
35.21
36.26
36.96
37.39
37.70
37.95
38.19
38.32
38.21
37.69
36.72
35.36
33.69
31.90
30.06
28.27
26.60
25.11
23.81
22.66
21.52
20.23
18.63
16.67
14.38
11.86
9.24
6.55
3.78
0.90
-2.12
-5.28
-8.54
-11.89
-15.33
-18.95
-22.77
-26.78
-30.88
-34.92
-38.76
-42.43
-46.19
-50.44
-55.51
-61.40
-67.55
-72.91
-76.22
-76.35
-72.80
-65.79
-56.21
-45.33
-34.42
-24.43
-15.83
-8.59
-2.36
3.32
8.80
14.24
19.53
24.42
28.65
32.04
34.59
36.39
37.61
38.43
38.98
39.36
39.63
39.81
39.90
39.86
39.65
39.19
38.44
37.31
35.75
33.86
31.80
29.78
28.01
26.54
25.31
24.15
22.86
21.32
19.49
17.41
15.14
12.75
10.24
7.59
4.84
2.02
-0.74
-3.40
-5.97
-8.61
-11.53
-14.95
-18.89
-23.17
-27.43
-31.29
-34.58
-37.42
-40.29
-43.78
-48.35
-54.07
-60.40
-66.35
-70.64
-72.16
-70.27
-64.95
-56.80
-46.82
-36.13
-25.72
-16.24
-7.97
-0.91
5.18
10.57
15.50
20.05
24.20
27.88
30.99
33.50
35.45
36.90
37.96
38.76
39.45
40.17
41.04
42.09
43.24
44.29
44.96
45.00
44.26
42.74
40.63
38.22
35.81
33.64
31.82
30.32
28.98
27.56
25.80
23.52
20.63
17.17
13.36
9.48
5.86
2.69
-0.04
-2.55
-5.18
-8.24
-11.87
-15.99
-20.30
-24.45
-28.14
-31.36
-34.31
-37.44
-41.21
-45.99
-51.83
-58.36
-64.82
-70.11
-73.07
-72.71
-68.59
-60.95
-50.74
-39.36
-28.23
-18.44
-10.39
-3.85
1.79
7.15
12.59
18.05
23.20
27.65
31.11
33.59
35.30
36.58
37.74
38.99
40.35
41.69
42.84
43.66
44.14
44.35
44.32
44.01
43.22
41.72
39.41
36.43
33.20
30.23
27.89
26.28
25.22
24.37
23.42
22.26
20.89
19.37
17.73
15.94
13.94
11.73
9.39
7.01
4.60
2.12
-0.63
-3.79
-7.46
-11.59
-16.01
-20.48
-24.76
-28.70
-32.24
-35.48
-38.68
-42.23
-46.58
-52.00
-58.42
-65.20
-71.18
-74.93
-75.19
-71.38
-63.80
-53.56
-42.22
-31.23
-21.53
-13.45
-6.82
-1.18
3.81
8.39
12.64
16.58
20.26
23.75
27.07
30.12
32.72
34.64
35.80
36.30
36.45
36.63
37.08
37.83
38.67
39.27
39.33
38.73
37.48
35.74
33.71
31.57
29.53
27.70
26.15
24.84
23.66
22.43
21.02
19.36
17.50
15.47
13.32
11.04
8.69
6.33
4.09
2.08
0.27
-1.52
-3.54
-5.97
-8.82
-11.83
-14.68
-17.09
-19.10
-20.93
-23.05
-25.87
-29.69
-34.54
-40.17
-46.04
-51.32
-55.00
-56.11
-53.99
-48.58
-40.46
-30.78
-20.84
-11.74
-4.08
2.08
7.08
11.40
15.41
19.28
22.96
26.32
29.23
31.67
33.63
35.14
36.19
36.70
36.62
35.97
34.94
33.81
32.87
32.31
32.06
31.87
31.38
30.31
28.59
26.41
24.06
21.86
20.00
18.51
17.26
16.07
14.78
13.29
11.57
9.61
7.42
5.02
2.44
-0.24
-2.93
-5.57
-8.20
-10.97
-14.11
-17.82
-22.17
-27.01
-31.97
-36.59
-40.50
-43.63
-46.34
-49.30
-53.26
-58.73
-65.69
-73.47
-80.85
-86.47
-89.17
-88.44
-84.51
-78.18
-70.49
-62.32
-54.12
-45.96
-37.73
-29.52
-21.77
-15.23
-10.63
-8.27
-7.75
-8.06
-8.05
-6.80
-4.01
0.05
4.67
9.04
12.34
13.82
12.97
10.10
6.97
6.96
14.15
31.54
59.25
93.83
129.34
159.74
181.50
194.68
202.21
207.62
212.88
217.57
219.52
216.58
208.05
195.15
180.07
164.87
150.50
136.67
122.46
107.08
90.55
73.60
57.13
41.47
25.88
8.76
-11.46
-35.24
-61.17
-86.29
-107.29
-122.02
-130.60
-135.21
-138.90
-143.88
-150.39
-156.69
-160.09
-158.45
-151.14
-139.21
-124.70
-109.69
-95.55
-82.64
-70.72
-59.41
-48.59
-38.53
-29.88
-23.32
-19.22
-17.47
-17.38
-17.96
-18.21
-17.51
-15.75
-13.27
-10.54
-7.82
-5.09
-2.09
1.37
5.19
8.91
11.91
13.70
14.22
13.92
13.56
13.91
15.37
17.75
20.34
22.26
22.73
21.53
18.97
15.77
12.71
10.32
8.74
7.74
6.88
5.74
4.05
1.70
-1.27
-4.74
-8.56
-12.49
-16.29
-19.73
-22.71
-25.33
-27.91
-30.97
-35.09
-40.71
-47.87
-55.96
-63.78
-69.69
-72.19
-70.47
-64.67
-55.93
-45.86
-35.99
-27.33
-20.13
-14.11
-8.75
-3.59
1.58
6.74
11.73
16.30
20.22
23.34
25.62
27.18
28.19
28.90
29.47
30.01
30.60
31.27
32.10
33.07
34.07
34.90
35.32
35.13
34.25
32.82
31.03
29.11
27.16
25.16
22.98
20.49
17.67
14.63
11.55
8.61
5.91
3.41
1.02
-1.31
-3.58
-5.76
-7.83
-9.84
-12.00
-14.50
-17.51
-21.02
-24.84
-28.68
-32.24
-35.35
-38.01
-40.40
-42.81
-45.57
-48.91
-52.81
-56.95
-60.61
-62.86
-62.85
-60.05
-54.57
-47.11
-38.67
-30.32
-22.77
-16.35
-10.96
-6.31
-2.03
2.19
6.60
11.28
16.20
21.11
25.62
29.28
31.79
33.10
33.40
33.13
32.77
32.70
33.12
34.05
35.31
36.62
37.64
38.07
37.72
36.57
34.83
32.79
30.76
28.95
27.42
26.07
24.80
23.52
22.19
20.85
19.50
18.11
16.64
15.05
13.32
11.46
9.44
7.19
4.64
1.71
-1.56
-5.06
-8.58
-11.88
-14.75
-17.09
-18.93
-20.46
-21.98
-23.84
-26.33
-29.63
-33.66
-38.08
-42.28
-45.46
-46.85
-45.92
-42.64
-37.42
-31.10
-24.58
-18.57
-13.42
-9.05
-5.14
-1.35
2.47
6.26
9.79
12.77
15.07
16.71
17.84
18.75
19.66
20.71
21.94
23.31
24.74
26.17
27.52
28.63
29.31
29.33
28.59
27.14
25.25
23.27
21.54
20.22
19.32
18.71
18.23
17.79
17.37
16.97
16.55
15.99
15.13
13.80
11.97
9.65
6.98
4.12
1.26
-1.49
-4.03
-6.33
-8.41
-10.39
-12.44
-14.76
-17.43
-20.41
-23.47
-26.32
-28.74
-30.71
-32.52
-34.68
-37.70
-41.84
-46.86
-52.04
-56.26
-58.41
-57.76
-54.17
-48.19
-40.82
-33.20
-26.21
-20.27
-15.36
-11.13
-7.17
-3.16
0.95
5.00
8.72
11.90
14.44
16.42
17.94
19.14
20.04
20.62
20.87
20.87
20.74
20.62
20.56
20.45
20.11
19.33
18.06
16.41
14.65
13.12
12.06
11.55
11.45
11.56
11.62
11.55
11.35
11.09
10.81
10.50
10.02
9.20
7.92
6.16
4.04
1.78
-0.34
-2.12
-3.47
-4.56
-5.69
-7.17
-9.15
-11.50
-13.86
-15.83
-17.18
-18.00
-18.65
-19.62
-21.32
-23.97
-27.52
-31.63
-35.68
-38.87
-40.31
-39.33
-35.70
-29.86
-22.79
-15.68
-9.55
-4.88
-1.49
1.28
4.15
7.60
11.61
15.72
19.31
21.85
23.16
23.47
23.24
22.97
22.96
23.29
23.82
24.40
24.90
25.30
25.60
25.77
25.75
25.44
24.84
23.99
23.06
22.18
21.44
20.83
20.23
19.51
18.50
17.08
15.20
12.93
10.47
8.06
5.90
4.07
2.55
1.21
-0.07
-1.42
-3.00
-4.93
-7.35
-10.28
-13.59
-16.96
-20.05
-22.59
-24.61
-26.41
-28.46
-31.17
-34.81
-39.27
-44.15
-48.75
-52.22
-53.78
-52.89
-49.43
-43.77
-36.68
-29.07
-21.75
-15.23
-9.68
-5.03
-1.09
2.38
5.54
8.54
11.44
14.26
16.90
19.22
21.11
22.51
23.52
24.30
25.03
25.83
26.68
27.47
28.02
28.13
27.65
26.51
24.78
22.62
20.27
18.01
16.05
14.52
13.46
12.83
12.58
12.59
12.69
12.66
12.26
11.32
9.81
7.86
5.70
3.58
1.66
-0.04
-1.56
-3.04
-4.60
-6.35
-8.36
-10.65
-13.19
-15.87
-18.61
-21.35
-24.07
-26.80
-29.64
-32.68
-36.05
-39.70
-43.37
-46.55
-48.52
-48.61
-46.47
-42.27
-36.73
-30.79
-25.28
-20.66
-16.85
-13.43
-9.91
-6.00
-1.62
3.04
7.69
12.08
15.99
19.26
21.82
23.61
24.68
25.15
25.18
25.02
24.90
24.99
25.34
25.90
26.49
26.83
26.70
26.02
24.91
23.66
22.60
21.96
21.70
21.56
21.10
19.98
18.09
15.62
12.95
10.47
8.35
6.52
4.72
2.74
0.54
-1.77
-3.96
-5.90
-7.62
-9.28
-11.10
-13.18
-15.46
-17.75
-19.83
-21.54
-22.89
-24.01
-25.18
-26.68
-28.73
-31.44
-34.69
-38.13
-41.27
-43.46
-44.07
-42.67
-39.18
-33.96
-27.83
-21.80
-16.74
-13.06
-10.56
-8.54
-6.18
-2.95
1.18
5.72
9.96
13.36
15.76
17.48
19.05
20.99
23.53
26.52
29.46
31.70
32.68
32.19
30.50
28.31
26.52
25.83
26.48
28.10
29.82
30.67
29.95
27.59
24.36
21.76
21.67
25.81
35.13
49.19
65.87
81.54
91.82
92.98
83.22
63.62
37.90
11.33
-11.12
-26.28
-33.50
-34.30
-31.26
-26.91
-23.09
-20.91
-21.10
-23.95
-29.32
-36.28
-43.12
-47.83
-48.86
-45.70
-38.97
-30.12
-20.72
-11.88
-3.95
3.36
10.61
18.22
26.22
34.20
41.40
47.06
50.79
52.85
54.07
55.60
58.33
62.42
67.10
70.96
72.60
71.37
67.87
63.78
61.20
61.47
64.34
67.60
67.68
60.30
41.70
9.77
-34.76
-87.41
-139.92
-181.51
-201.72
-193.99
-158.54
-102.99
-40.01
17.08
58.85
82.12
89.46
86.43
78.41
68.84
59.28
50.55
43.79
40.48
41.51
46.22
52.09
55.61
53.84
45.91
33.33
19.21
6.86
-1.68
-6.18
-7.72
-7.69
-6.83
-5.13
-2.32
1.43
5.24
7.97
9.02
8.89
8.95
10.58
14.12
18.58
22.12
23.14
21.19
17.15
12.65
9.10
6.95
5.68
4.16
1.38
-2.96
-8.24
-13.24
-16.60
-17.50
-16.00
-13.07
-10.09
-8.14
-7.41
-7.16
-6.15
-3.51
0.73
5.68
10.23
13.83
16.74
19.66
22.90
25.96
27.58
26.71
23.35
18.97
15.88
16.29
21.22
30.20
41.55
53.10
62.88
69.60
72.73
72.43
69.31
64.25
58.03
51.23
44.05
36.52
28.64
20.55
12.48
4.65
-2.78
-9.79
-16.37
-22.45
-27.94
-32.62
-36.30
-38.84
-40.32
-41.15
-42.01
-43.73
-46.98
-51.97
-58.38
-65.44
-72.19
-77.88
-82.15
-85.08
-87.07
-88.50
-89.40
-89.26
-87.17
-82.24
-74.28
-64.18
-53.89
-45.67
-41.05
-40.12
-41.29
-42.09
-40.37
-35.24
-27.41
-18.57
-10.32
-3.29
3.15
10.34
19.50
31.11
44.96
60.59
77.75
96.19
114.86
131.02
140.23
137.50
119.56
86.62
43.04
-4.17
-47.97
-83.60
-109.75
-127.72
-139.69
-147.06
-149.97
-147.89
-140.65
-129.16
-115.29
-101.28
-89.07
-80.00
-74.69
-73.24
-75.23
-79.89
-86.20
-93.11
-99.62
-104.71
-107.20
-105.94
-100.37
-91.15
-80.60
-72.21
-69.33
-73.70
-84.30
-97.52
-108.52
-113.20
-109.98
-100.44
-88.39
-78.01
-71.88
-69.82
-69.23
-66.65
-59.65
-47.86
-32.84
-16.91
-1.89
11.44
22.85
31.81
37.26
38.15
34.58
28.33
22.40
19.66
21.53
27.38
35.02
41.89
45.82
45.52
40.47
30.93
18.04
3.97
-8.38
-16.10
-17.38
-12.12
-1.92
10.63
23.04
33.64
41.77
47.55
51.41
53.90
55.71
57.80
61.45
67.88
77.73
90.54
104.67
117.84
127.86
133.49
134.76
132.61
128.25
122.45
115.51
107.49
98.81
90.39
83.54
79.34
78.13
79.45
82.15
84.92
86.73
87.04
85.80
83.35
80.17
76.75
73.40
70.30
67.58
65.32
63.62
62.55
62.14
62.22
62.55
62.78
62.56
61.62
59.79
57.01
53.29
48.71
43.36
37.46
31.31
25.36
20.05
15.68
12.25
9.37
6.40
2.71
-2.08
-7.95
-14.54
-21.34
-27.86
-33.71
-38.62
-42.41
-44.93
-46.18
-46.33
-45.85
-45.32
-45.26
-45.96
-47.33
-48.98
-50.38
-51.12
-51.04
-50.26
-49.06
-47.76
-46.57
-45.56
-44.77
-44.16
-43.75
-43.54
-43.43
-43.22
-42.66
-41.51
-39.69
-37.39
-34.98
-32.96
-31.67
-31.11
-30.92
-30.48
-29.18
-26.68
-23.08
-18.81
-14.48
-10.64
-7.62
-5.54
-4.37
-4.01
-4.30
-5.07
-6.10
-7.11
-7.86
-8.17
-7.99
-7.45
-6.74
-6.13
-5.79
-5.75
-5.76
-5.39
-4.17
-1.85
1.37
4.81
7.53
8.75
8.24
6.35
3.79
1.11
-1.58
-4.57
-8.21
-12.56
-17.33
-22.22
-27.22
-32.59
-38.36
-43.72
-46.91
-45.69
-38.50
-25.36
-8.22
9.72
25.31
36.52
42.94
45.51
45.79
45.37
45.50
47.03
50.32
55.25
61.04
66.25
69.01
67.51
60.43
47.53
29.73
