1520262760.00
64.000000
-0.00
-0.00
-0.00
-0.00
-0.00
-0.00
-0.00
-0.00
-0.00
-0.00
0.00
0.01
0.01
-0.00
-0.03
-0.05
-0.05
0.00
0.13
0.36
0.66
1.01
1.37
1.72
2.06
2.40
2.79
3.24
3.80
4.42
5.06
5.66
6.20
6.68
7.15
7.68
8.31
9.14
10.09
11.04
11.88
12.56
13.14
13.76
14.65
15.96
17.91
20.32
22.90
25.38
27.58
29.57
31.68
34.32
37.81
42.54
48.15
54.10
59.83
64.97
69.58
74.14
79.34
85.71
93.76
103.00
112.62
121.73
129.77
136.75
143.30
150.75
157.77
166.64
177.95
191.79
206.97
220.57
228.25
225.36
208.53
176.87
132.76
80.05
23.07
-34.94
-92.44
-149.16
-205.23
-260.37
-313.74
-363.87
-409.83
-450.91
-486.50
-515.74
-537.23
-549.22
-549.96
-538.37
-514.21
-478.67
-433.88
-382.45
-327.02
-269.84
-212.63
-156.66
-102.95
-52.37
-5.90
35.58
71.43
101.35
125.50
144.38
158.69
169.15
176.37
180.75
182.57
182.07
179.51
175.23
169.65
163.18
156.15
148.81
141.30
133.69
126.02
118.33
110.69
103.16
95.80
88.68
81.83
75.25
68.95
62.95
57.25
51.86
46.78
42.03
37.59
33.45
29.61
26.07
22.81
19.83
17.11
14.67
12.48
10.54
8.83
7.35
6.07
4.97
4.05
3.27
2.62
2.09
1.65
1.30
1.01
0.79
0.61
0.47
0.37
0.28
0.22
0.18
0.15
0.13
0.12
0.12
0.13
0.14
0.16
0.18
0.21
0.24
0.27
0.31
0.34
0.38
0.42
0.46
0.51
0.55
0.61
0.66
0.72
0.78
0.85
0.93
1.03
1.15
1.29
1.42
1.54
1.63
1.69
1.74
1.81
1.94
2.15
2.42
2.73
3.04
3.33
3.61
3.91
4.27
4.75
5.34
6.01
6.70
7.34
7.86
8.29
8.69
9.18
9.88
10.82
11.94
13.09
14.07
14.76
15.15
15.40
15.72
16.29
17.10
17.86
18.11
17.32
15.20
11.75
7.40
2.79
-1.52
-5.19
-8.34
-11.44
-15.04
-19.43
-24.44
-29.40
-33.43
-35.96
-36.89
-36.76
-36.50
-36.95
-38.64
-41.75
-46.23
-51.80
-57.69
-62.36
-63.52
-58.99
-47.76
-30.80
-11.05
7.78
22.71
32.64
38.33
41.44
43.12
43.24
40.61
33.92
22.93
8.97
-5.46
-17.67
-25.83
-29.47
-29.28
-26.59
-22.65
-18.23
-13.61
-8.79
-3.85
0.81
4.48
6.31
5.77
2.88
-1.56
-6.33
-10.11
-12.01
-11.82
-10.12
-7.92
-6.04
-4.67
-3.29
-1.11
2.57
7.33
12.43
16.88
20.00
21.61
21.98
21.63
20.99
20.22
19.25
18.03
16.65
15.39
14.75
15.21
17.13
20.48
24.89
29.72
34.31
38.22
41.32
43.89
46.40
49.29
52.69
56.24
59.05
59.97
57.84
51.93
42.07
28.71
12.64
-5.25
-24.09
-43.03
-61.14
-77.40
-90.94
-101.31
-108.69
-113.86
-117.85
-121.48
-125.02
-128.07
-129.85
-129.57
-126.77
-121.50
-114.25
-105.75
-96.75
-87.84
-79.36
-71.42
-63.94
-56.63
-49.13
-41.15
-32.72
-24.22
-16.32
-9.60
-4.23
0.12
4.16
8.59
13.75
19.53
25.52
31.38
37.04
42.89
49.79
59.06
72.51
92.21
119.87
155.88
198.44
243.40
284.99
317.42
336.49
340.59
330.69
309.49
280.25
245.96
209.02
171.40
134.95
101.36
71.94
47.38
27.50
11.45
-1.89
-13.58
-24.19
-33.77
-42.06
-48.65
-53.40
-56.46
-58.34
-59.69
-60.98
-62.42
-63.87
-65.05
-65.68
-65.69
-65.21
-64.45
-63.54
-62.48
-61.17
-59.54
-57.64
-55.66
-53.89
-52.58
-51.80
-51.51
-51.55
-51.74
-51.99
-52.25
-52.56
-53.05
-53.85
-55.12
-56.94
-59.30
-61.98
-64.56
-66.50
-67.18
-66.07
-62.84
-57.46
-50.32
-42.14
-33.89
-26.55
-20.82
-16.95
-14.67
-13.34
-12.25
-10.88
-9.07
-7.01
-5.05
-3.53
-2.65
-2.39
-2.63
-3.18
-3.80
-4.28
-4.51
-4.49
-4.39
-4.49
-5.01
-6.04
-7.53
-9.28
-11.16
-13.12
-15.17
-17.37
-19.66
-21.98
-24.26
-26.55
-28.88
-31.22
-33.25
-34.41
-34.05
-31.63
-27.04
-20.64
-13.18
-5.53
1.50
7.37
11.81
14.86
16.73
17.71
18.08
18.04
17.69
17.11
16.38
15.65
15.10
14.90
15.12
15.68
16.37
16.93
17.09
16.74
15.83
14.43
12.63
10.55
8.30
5.98
3.64
1.32
-1.04
-3.48
-6.07
-8.85
-11.78
-14.67
-17.16
-18.76
-18.97
-17.51
-14.38
-9.96
-4.84
0.37
5.22
9.45
13.03
16.01
18.44
20.32
21.58
22.18
22.07
21.29
19.89
18.00
15.85
13.65
11.66
10.12
9.15
8.82
8.96
9.26
9.31
8.71
7.23
4.94
2.12
-0.86
-3.75
-6.50
-9.25
-12.13
-15.16
-18.08
-20.47
-21.83
-21.76
-20.09
-16.91
-12.60
-7.71
-2.76
1.79
5.71
8.91
11.38
13.08
13.91
13.76
12.58
10.47
7.70
4.60
1.43
-1.73
-4.99
-8.50
-12.32
-16.34
-20.35
-24.20
-27.86
-31.41
-34.91
-38.36
-41.65
-44.69
-47.48
-50.18
-52.96
-55.98
-59.25
-62.55
-65.34
-66.72
-65.61
-60.92
-51.99
-38.89
-22.42
-3.83
15.72
35.43
54.87
73.65
91.08
106.13
117.76
125.39
129.09
129.38
126.75
121.32
112.88
101.40
87.50
72.65
58.84
47.78
40.14
35.33
31.76
27.66
21.85
14.19
5.42
-3.35
-11.13
-17.42
-22.15
-25.48
-27.63
-28.78
-29.10
-28.79
-28.05
-26.99
-25.56
-23.56
-20.81
-17.25
-13.00
-8.26
-3.29
1.65
6.07
9.15
9.83
7.18
0.97
-7.99
-17.90
-26.54
-32.06
-33.61
-31.52
-26.94
-21.31
-15.88
-11.43
-8.34
-6.75
-6.62
-7.86
-10.24
-13.52
-17.48
-21.99
-26.98
-32.39
-38.17
-44.24
-50.40
-56.28
-61.19
-64.20
-64.50
-61.71
-56.24
-49.15
-41.75
-34.97
-29.00
-23.23
-16.73
-8.80
0.82
11.81
23.56
35.22
45.88
54.61
60.74
64.07
65.06
64.77
64.51
65.30
67.31
69.79
71.33
70.69
67.02
60.10
50.29
38.48
25.82
13.36
1.74
-9.02
-19.10
-29.12
-39.66
-50.59
-60.55
-67.34
-69.02
-64.92
-55.96
-43.20
-28.32
-13.04
1.48
15.16
28.72
43.03
58.30
74.18
91.55
110.63
130.59
149.84
167.01
181.54
193.46
202.67
209.32
215.93
224.52
235.36
246.91
256.81
262.83
263.52
258.14
234.81
191.06
135.01
81.10
40.12
14.47
0.41
-7.50
-14.28
-23.01
-32.00
-39.10
-43.85
-48.11
-55.17
-69.10
-89.98
-118.56
-155.43
-198.78
-245.58
-291.44
-330.46
-355.63
-361.07
-344.09
-307.14
-257.75
-205.12
-157.73
-121.12
-96.94
-83.29
-77.31
-75.58
-74.83
-73.90
-72.69
-71.40
-70.30
-69.75
-70.04
-72.81
-78.82
-86.25
-94.00
-101.45
-107.51
-111.34
-113.02
-113.75
-117.12
-125.16
-135.13
-143.89
-148.62
-146.39
-136.16
-119.73
-90.12
-49.69
-19.70
-4.43
3.33
8.96
16.66
28.35
43.97
62.21
79.78
95.06
110.69
128.37
147.90
168.19
186.43
198.40
199.20
183.35
148.77
100.01
44.60
-8.76
-51.56
-78.07
-86.01
-76.28
-52.45
-18.31
23.50
69.12
112.27
145.29
160.36
153.40
124.71
77.94
19.33
-43.03
-99.84
-143.22
-167.81
-172.59
-156.99
-122.15
-71.47
-10.89
52.04
111.36
160.97
195.36
209.62
207.10
196.17
186.04
182.54
188.03
205.87
238.27
284.85
338.98
395.18
446.34
484.54
503.20
480.90
412.53
314.19
230.60
170.17
126.36
85.07
38.02
-18.93
-85.21
-153.29
-214.86
-264.90
-305.37
-336.70
-359.79
-376.57
-390.71
-406.16
-423.39
-441.80
-460.64
-480.98
-499.63
-512.37
-516.55
-513.09
-505.40
-495.80
-485.61
-475.20
-465.52
-454.83
-440.37
-419.23
-388.83
-346.77
-290.81
-221.03
-140.91
-57.53
22.32
93.86
155.31
207.53
253.12
295.45
337.06
378.66
418.50
453.16
478.19
489.37
484.44
464.23
432.46
394.31
354.44
315.71
279.23
245.44
215.15
189.72
170.28
156.68
147.04
138.31
127.56
113.03
94.63
73.62
52.11
32.36
16.30
5.05
-1.50
-4.78
-7.25
-11.50
-19.21
-30.52
-43.96
-57.05
-67.26
-72.81
-73.08
-68.69
-61.30
-53.19
-46.74
-43.92
-45.93
-52.97
-64.38
-78.67
-93.76
-107.14
-116.14
-118.42
-112.40
-97.85
-76.09
-49.90
-23.02
0.80
18.82
30.04
35.39
37.23
38.24
40.36
44.07
48.48
52.10
53.80
53.45
51.93
50.78
51.39
54.56
60.39
68.40
77.78
87.30
95.32
99.67
98.09
88.90
71.92
48.88
23.15
-1.28
-21.18
-34.94
-42.92
-46.78
-48.49
-49.50
-50.29
-50.57
-49.68
-47.07
-42.60
-36.74
-30.47
-25.08
-21.70
-20.82
-21.96
-23.76
-24.36
-22.09
-16.08
-6.50
5.63
18.93
32.07
44.02
54.01
61.50
66.10
67.63
66.20
62.21
56.24
48.85
40.39
31.00
20.81
10.16
-0.30
-9.62
-16.80
-21.07
-22.17
-20.44
-16.77
-12.43
-8.68
-6.52
-6.34
-8.01
-10.93
-14.41
-17.90
-21.11
-24.06
-26.91
-29.85
-33.03
-36.56
-40.48
-44.71
-48.99
-52.85
-55.72
-57.13
-56.86
-54.94
-51.57
-46.90
-41.05
-34.09
-26.21
-17.76
-9.24
-1.18
6.10
12.48
18.07
23.00
27.30
30.80
33.17
34.07
33.27
30.73
26.64
21.35
15.29
8.88
2.54
-3.29
-8.14
-11.49
-12.95
-12.42
-10.19
-6.95
-3.56
-0.69
1.36
2.76
3.78
4.50
4.56
3.27
-0.10
-5.74
-13.14
-21.03
-27.89
-32.47
-34.20
-33.23
-30.18
-25.91
-21.28
-17.10
-14.12
-12.87
-13.42
-15.29
-17.38
-18.39
-17.18
-13.11
-6.29
2.61
12.49
22.01
29.83
34.85
36.63
35.45
32.17
27.63
22.20
15.68
7.71
-1.58
-11.05
-18.74
-22.71
-21.97
-17.22
-10.69
-5.21
-3.06
-5.05
-10.31
-16.84
-22.31
-24.82
-23.24
-17.27
-7.42
5.21
19.16
32.72
44.36
53.12
58.80
61.90
63.18
63.17
61.80
58.54
52.87
44.77
34.93
24.49
14.68
6.40
0.10
-4.21
-6.89
-8.73
-10.95
-14.96
-21.93
-32.20
-45.00
-58.64
-71.15
-81.12
-87.95
-91.87
-93.43
-93.12
-91.29
-88.30
-84.68
-80.98
-77.45
-73.73
-68.89
-61.89
-52.16
-39.96
-26.27
-12.26
1.19
13.57
24.72
34.48
42.60
48.85
53.25
56.09
57.86
59.05
59.92
60.51
60.73
60.52
60.00
59.31
58.53
57.47
55.67
52.43
47.06
39.24
29.28
18.24
7.70
-0.76
-6.09
-8.22
-8.12
-7.54
-8.44
-12.43
-20.36
-32.19
-46.81
-62.38
-76.71
-88.07
-95.52
-98.93
-98.36
-93.48
-83.48
-67.37
-44.93
-17.39
12.53
41.63
67.41
88.95
106.71
121.48
133.60
142.89
148.79
150.87
149.43
145.45
140.24
134.62
128.08
118.73
104.06
81.83
51.27
14.17
-24.75
-59.16
-83.50
-95.60
-97.28
-92.89
-87.09
-83.06
-81.56
-81.37
-80.74
-76.61
-68.73
-59.99
-52.83
-45.78
-34.28
-14.95
10.97
37.41
57.11
65.80
64.17
58.08
55.54
62.20
78.34
98.95
116.62
122.97
113.16
87.19
49.86
8.39
-30.40
-61.94
-84.43
-98.52
-106.37
-110.55
-113.03
-114.31
-113.58
-109.56
-101.62
-90.46
-78.15
-67.50
-60.80
-59.03
-61.37
-65.91
-70.89
-75.75
-81.35
-89.19
-99.92
-112.09
-121.97
-124.60
-115.89
-94.33
-61.59
-21.59
21.26
63.44
102.85
138.11
167.69
189.61
201.86
203.41
194.91
178.74
158.14
136.16
114.87
95.19
77.26
60.80
45.48
31.00
17.11
3.74
-8.92
-20.37
-29.98
-37.31
-42.33
-45.53
-47.75
-49.82
-52.42
-55.81
-59.98
-64.73
-69.88
-75.26
-80.71
-86.03
-90.93
-95.11
-98.22
-99.97
-100.06
-98.23
-94.29
-88.21
-80.31
-71.35
-62.47
-54.96
-49.92
-47.83
-48.32
-50.28
-52.06
-51.97
-48.61
-41.18
-29.61
-14.62
2.39
19.56
34.99
47.32
56.15
62.26
67.20
72.65
79.72
88.46
97.97
106.75
113.35
116.78
116.80
113.80
108.64
102.28
95.62
89.19
83.25
77.84
73.06
69.25
66.88
66.32
67.47
69.56
71.37
71.71
69.82
65.54
59.11
50.87
41.03
29.85
17.86
6.03
-4.53
-13.13
-20.03
-26.42
-33.80
-43.02
-53.55
-63.59
-70.96
-74.16
-73.28
-69.76
-65.66
-62.51
-60.79
-59.99
-59.40
-58.71
-58.30
-58.91
-60.93
-64.00
-67.04
-68.64
-67.65
-63.60
-56.65
-47.41
-36.71
-25.33
-14.09
-3.80
4.82
11.33
15.79
18.81
21.45
24.81
29.72
36.31
44.14
52.30
59.80
65.87
70.03
72.15
72.29
70.72
67.85
64.29
60.78
57.94
56.01
54.67
53.06
50.13
45.00
37.35
27.53
16.45
5.17
-5.42
-14.87
-23.26
-31.00
-38.51
-46.02
-53.34
-60.03
-65.69
-70.08
-73.34
-75.74
-77.49
-78.63
-79.13
-79.34
-80.14
-82.75
-88.07
-95.98
-105.01
-112.77
-116.94
-116.18
-110.54
-101.05
-88.87
-74.61
-58.29
-39.92
-20.07
-0.29
17.22
30.50
38.63
42.16
42.71
42.25
42.20
43.01
44.17
44.73
43.84
41.33
37.61
33.53
29.85
27.00
24.97
23.46
22.27
21.32
20.78
20.84
21.58
23.01
25.36
29.26
35.64
45.03
56.54
67.34
72.91
68.41
50.57
19.15
-22.69
-69.31
-114.31
-152.06
-178.92
-193.39
-195.91
-188.29
-173.21
-153.56
-131.91
-110.09
-89.09
-69.29
-50.83
-33.84
-18.24
-3.69
10.56
25.33
41.05
57.20
72.39
84.72
92.57
95.31
93.47
88.48
82.06
75.48
69.35
63.58
57.83
52.02
46.54
42.15
39.59
39.08
40.13
41.67
42.50
41.82
39.50
35.98
31.99
28.10
24.57
21.30
18.13
15.04
12.33
10.53
10.26
11.88
15.32
19.98
24.90
28.97
31.26
31.17
28.50
23.42
16.39
8.10
-0.64
-9.02
-16.36
-22.23
-26.46
-29.07
-30.12
-29.66
-27.70
-24.31
-19.67
-14.13
-8.11
-2.00
3.87
9.30
14.19
18.43
21.92
24.48
25.85
25.78
24.09
20.90
16.66
12.17
8.40
6.17
5.95
7.69
10.95
15.07
19.42
23.50
26.93
29.44
30.86
31.24
30.98
30.73
31.08
32.24
33.81
34.89
34.54
32.27
28.33
23.70
19.56
16.82
15.77
16.05
17.00
18.01
18.73
19.03
18.82
17.88
16.00
13.16
9.91
7.28
6.49
8.39
12.98
19.35
26.10
31.98
36.48
39.72
42.21
44.19
45.44
45.43
43.82
40.85
37.26
33.90
31.07
28.09
23.52
15.56
2.82
-15.17
-37.77
-63.45
-90.05
-115.14
-136.19
-150.82
-157.02
-153.66
-140.82
-120.19
-94.82
-68.51
-44.83
-26.19
-13.26
-5.20
-0.27
3.27
6.58
10.03
13.53
16.84
19.79
22.17
23.62
23.57
21.43
16.98
10.75
3.93
-1.99
-5.80
-7.09
-6.41
-5.00
-4.39
-5.72
-9.55
-15.64
-23.13
-30.79
-37.36
-41.90
-43.93
-43.50
-40.94
-36.75
-31.34
-25.06
-18.29
-11.47
-5.05
0.61
5.49
9.87
14.22
18.85
23.75
28.48
32.45
35.22
36.66
37.05
36.81
36.31
35.74
35.09
34.18
32.80
30.78
28.00
24.37
19.97
14.97
9.69
4.49
-0.29
-4.51
-8.19
-11.51
-14.54
-17.17
-18.98
-19.34
-17.67
-13.70
-7.62
-0.06
8.05
15.80
22.50
27.82
31.77
34.57
36.53
37.93
38.98
39.80
40.47
40.97
41.30
41.47
41.43
41.11
40.40
39.22
37.53
35.42
33.05
30.56
28.01
25.34
22.35
18.88
14.83
10.23
5.27
0.15
-4.97
-10.03
-15.06
-20.21
-25.60
-31.24
-36.95
-42.18
-46.20
-48.22
-47.70
-44.62
-39.41
-32.85
-25.74
-18.69
-11.98
-5.72
0.10
5.48
10.30
14.41
17.69
20.02
21.35
21.66
21.00
19.50
17.34
14.74
11.91
9.06
6.45
4.37
3.08
2.77
3.34
4.44
5.48
5.84
5.11
3.23
0.57
-2.27
-4.71
-6.41
-7.44
-8.19
-9.13
-10.66
-12.95
-15.94
-19.35
-22.73
-25.56
-27.35
-27.66
-26.25
-23.13
-18.53
-12.86
-6.54
-0.02
6.33
12.18
17.26
21.43
24.70
27.19
29.07
30.44
31.32
31.67
31.49
30.84
29.80
28.48
26.90
25.13
23.21
21.28
19.48
17.87
16.40
14.89
13.17
11.11
8.71
6.05
3.19
0.19
-2.96
-6.25
-9.68
-13.26
-17.11
-21.35
-26.01
-30.91
-35.59
-39.39
-41.63
-41.81
-39.78
-35.76
-30.31
-24.20
-18.14
-12.70
-8.17
-4.56
-1.76
0.40
2.03
3.18
3.85
4.08
3.91
3.44
2.66
1.59
0.23
-1.34
-2.93
-4.31
-5.32
-5.82
-5.86
-5.61
-5.34
-5.37
-5.94
-7.13
-8.82
-10.70
-12.49
-14.05
-15.47
-16.99
-18.82
-21.02
-23.42
-25.69
-27.50
-28.55
-28.60
-27.44
-24.96
-21.17
-16.29
-10.77
-5.22
-0.20
3.92
7.03
9.26
10.86
12.06
12.98
13.60
13.81
13.47
12.53
11.05
9.24
7.40
5.76
4.49
3.61
3.02
2.61
2.22
1.75
1.15
0.39
-0.51
-1.57
-2.76
-4.04
-5.44
-6.94
-8.65
-10.64
-12.97
-15.55
-18.09
-20.14
-21.21
-20.95
-19.28
-16.37
-12.61
-8.36
-3.93
0.46
4.61
8.28
11.21
13.33
14.73
15.71
16.58
17.48
18.30
18.77
18.61
17.80
16.51
15.06
13.76
12.76
12.10
11.71
11.50
11.37
11.15
10.66
9.73
8.29
6.39
4.23
2.00
-0.17
-2.30
-4.45
-6.68
-9.01
-11.40
-13.86
-16.38
-18.98
-21.50
-23.67
-25.01
-25.08
-23.58
-20.55
-16.31
-11.34
-6.19
-1.24
3.26
7.22
10.53
13.16
15.11
16.48
17.43
18.10
18.55
18.76
18.68
18.26
17.56
16.69
15.80
15.02
14.38
13.89
13.48
13.10
12.68
12.17
11.51
10.66
9.63
8.45
7.23
6.01
4.76
3.38
1.75
-0.15
-2.23
-4.32
-6.27
-8.04
-9.76
-11.55
-13.51
-15.63
-17.79
-19.86
-21.69
-23.12
-23.98
-24.06
-23.17
-21.25
-18.42
-14.96
-11.23
-7.51
-4.00
-0.77
2.16
4.83
7.26
9.46
11.37
12.88
13.86
14.24
14.06
13.47
12.71
12.01
11.48
11.15
10.96
10.84
10.71
10.47
10.04
9.38
8.49
7.47
6.42
5.48
4.74
4.19
3.75
3.31
2.75
2.01
1.02
-0.24
-1.77
-3.53
-5.40
-7.21
-8.79
-10.07
-11.12
-12.09
-13.17
-14.44
-15.86
-17.30
-18.62
-19.81
-20.93
-21.97
-22.77
-23.00
-22.28
-20.35
-17.29
-13.47
-9.38
-5.43
-1.76
1.62
4.77
7.64
10.02
11.68
12.54
12.73
12.56
12.33
12.17
12.07
11.86
11.49
11.03
10.76
10.95
11.75
13.09
14.68
16.14
17.17
17.56
17.23
16.21
14.58
12.47
10.09
7.72
5.62
3.93
2.66
1.60
0.52
-0.80
-2.43
-4.26
-6.11
-7.72
-8.91
-9.60
-9.90
-10.04
-10.35
-11.14
-12.52
-14.38
-16.33
-17.93
-18.82
-18.85
-18.09
-16.68
-14.69
-12.12
-8.98
-5.40
-1.79
1.33
3.50
4.54
4.62
4.17
3.66
3.37
3.40
3.63
3.87
3.90
3.62
2.92
1.73
0.02
-2.10
-4.33
-6.25
-7.44
-7.71
-7.22
-6.44
-5.96
-6.16
-7.15
-8.67
-10.42
-12.15
-13.85
-15.60
-17.43
-19.23
-20.75
-21.82
-22.49
-23.06
-23.90
-25.21
-26.89
-28.51
-29.53
-29.53
-28.34
-26.01
-22.70
-18.62
-13.97
-9.07
-4.31
-0.22
2.83
4.67
5.48
5.60
5.42
5.19
4.93
4.62
4.21
3.74
3.30
2.98
2.79
2.73
2.83
3.10
3.55
4.02
4.29
4.10
3.41
2.40
1.39
0.65
0.17
-0.35
-1.35
-3.21
-5.96
-9.32
-12.78
-15.85
-18.26
-20.07
-21.49
-22.75
-23.87
-24.59
-24.50
-23.20
-20.57
-16.80
-12.39
-7.90
-3.73
-0.04
3.28
6.31
9.07
11.38
13.00
13.77
13.70
12.99
11.95
10.85
9.88
9.09
8.47
8.03
7.76
7.76
8.01
8.40
8.70
8.62
8.00
6.84
5.32
3.69
2.16
0.77
-0.59
-2.05
-3.69
-5.50
-7.44
-9.52
-11.80
-14.34
-17.12
-19.99
-22.69
-24.98
-26.70
-27.72
-28.04
-27.58
-26.28
-24.04
-20.85
-16.80
-12.10
-7.05
-1.94
2.92
7.29
10.97
13.83
15.82
16.93
17.26
16.99
16.37
15.67
15.08
14.68
14.45
14.27
14.12
14.02
14.09
14.42
15.02
15.75
16.34
16.52
16.11
15.08
13.53
11.67
9.69
7.70
5.70
3.61
1.29
-1.28
-4.00
-6.67
-9.06
-11.06
-12.76
-14.38
-16.16
-18.25
-20.69
-23.37
-26.16
-28.87
-31.28
-33.08
-33.86
-33.22
-30.81
-26.56
-20.72
-13.85
-6.71
-0.05
5.59
10.00
13.32
15.89
18.03
19.93
21.54
22.67
23.19
23.10
22.62
22.01
21.52
21.30
21.34
21.61
22.05
22.65
23.39
24.21
24.99
25.51
25.50
24.73
23.14
20.82
18.08
15.25
12.64
10.36
8.39
6.55
4.63
2.42
-0.21
-3.31
-6.78
-10.35
-13.69
-16.45
-18.45
-19.74
-20.62
-21.53
-22.88
-24.90
-27.62
-30.85
-34.17
-37.00
-38.66
-38.48
-36.05
-31.31
-24.66
-16.81
-8.60
-0.75
6.20
11.99
16.50
19.76
21.96
23.43
24.54
25.59
26.67
27.72
28.57
29.12
29.42
29.56
29.66
29.73
29.71
29.53
29.21
28.82
28.48
28.30
28.25
28.28
28.27
28.06
27.53
26.62
25.34
23.82
22.17
20.42
18.48
16.17
13.38
10.21
6.80
3.35
-0.12
-3.70
-7.58
-11.84
-16.44
-21.25
-26.12
-31.00
-35.80
-40.27
-43.97
-46.30
-46.71
-44.92
-41.03
-35.45
-28.78
-21.62
-14.51
-7.83
-1.88
3.14
7.06
9.77
11.25
11.67
11.35
10.77
10.34
10.34
10.81
11.65
12.69
13.83
14.95
15.97
16.77
17.21
17.22
16.83
16.09
15.05
13.68
11.86
9.51
6.64
3.30
-0.43
-4.46
-8.71
-13.01
-17.07
-20.65
-23.68
-26.33
-29.02
-32.06
-35.52
-39.07
-42.08
-43.79
-43.58
-41.15
-36.52
-30.08
-22.38
-14.09
-5.87
1.66
8.02
12.82
15.88
17.25
17.15
16.01
14.33
12.55
11.02
9.92
9.32
9.24
9.65
10.42
11.35
12.24
12.93
13.39
13.62
13.59
13.16
12.12
10.27
7.62
4.32
0.61
-3.28
-7.30
-11.47
-15.82
-20.26
-24.63
-28.71
-32.26
-34.99
-36.52
-36.43
-34.29
-29.94
-23.62
-15.96
-7.90
-0.31
6.21
11.45
15.56
18.83
21.47
23.50
24.77
25.07
24.38
22.93
21.14
19.49
18.32
17.72
17.57
17.66
17.83
18.00
18.14
18.17
17.94
17.27
16.02
14.16
11.76
8.95
5.84
2.52
-0.95
-4.53
-8.23
-12.12
-16.30
-20.85
-25.72
-30.73
-35.50
-39.57
-42.47
-43.76
-43.08
-40.17
-34.98
-27.77
-19.22
-10.28
-1.94
5.10
10.61
14.81
18.17
21.05
23.51
25.40
26.51
26.77
26.37
25.67
24.97
24.44
24.05
23.71
23.41
23.19
23.15
23.39
23.82
24.24
24.36
23.88
22.61
20.47
17.58
14.17
10.51
6.82
3.21
-0.28
-3.69
-6.99
-10.16
-13.17
-16.00
-18.70
-21.39
-24.23
-27.40
-30.98
-34.92
-38.86
-42.18
-44.07
-43.82
-40.98
-35.58
-28.14
-19.44
-10.30
-1.47
6.52
13.33
18.76
22.76
25.43
27.04
27.97
28.56
29.02
29.40
29.59
29.47
29.01
28.30
27.57
27.10
27.09
27.56
28.39
29.32
30.08
30.47
30.41
29.86
28.81
27.18
24.91
22.05
18.79
15.49
12.49
10.02
8.02
6.19
4.18
1.73
-1.15
-4.20
-7.06
-9.45
-11.31
-12.84
-14.36
-16.25
-18.79
-22.04
-25.89
-29.95
-33.69
-36.42
-37.52
-36.53
-33.36
-28.25
-21.71
-14.35
-6.75
0.65
7.46
13.40
18.25
21.87
24.25
25.56
26.03
25.95
25.61
25.18
24.80
24.53
24.38
24.34
24.36
24.43
24.53
24.67
24.86
25.11
25.37
25.51
25.32
24.59
23.20
21.16
18.66
15.98
13.34
10.85
8.46
6.04
3.48
0.82
-1.85
-4.44
-6.85
-9.06
-11.09
-12.93
-14.56
-16.02
-17.37
-18.76
-20.34
-22.23
-24.46
-26.99
-29.64
-32.11
-33.95
-34.64
-33.64
-30.61
-25.50
-18.60
-10.50
-1.94
6.30
13.54
19.37
23.57
26.28
27.82
28.62
29.05
29.31
29.44
29.32
28.89
28.24
27.56
27.08
26.95
27.10
27.36
27.47
27.32
26.88
26.21
25.38
24.39
23.13
21.47
19.34
16.74
13.77
10.61
7.43
4.35
1.44
-1.36
-4.15
-7.04
-10.04
-13.01
-15.71
-17.92
-19.60
-21.00
-22.60
-24.84
-27.92
-31.68
-35.59
-39.02
-41.39
-42.33
-41.64
-39.27
-35.27
-29.84
-23.42
-16.66
-10.27
-4.84
-0.62
2.49
4.80
6.58
7.95
8.78
8.96
8.46
7.51
6.44
5.60
5.18
5.14
5.33
5.58
5.81
6.02
6.25
6.51
6.72
6.79
6.62
6.17
5.43
4.41
3.08
1.42
-0.60
-2.98
-5.68
-8.63
-11.69
-14.75
-17.66
-20.42
-23.08
-25.74
-28.45
-31.13
-33.47
-35.06
-35.44
-34.32
-31.62
-27.49
-22.27
-16.40
-10.28
-4.34
1.04
5.59
9.12
11.56
13.00
13.66
13.77
13.58
13.26
12.89
12.48
11.98
11.37
10.67
9.97
9.45
9.25
9.42
9.88
10.39
10.68
10.54
9.90
8.80
7.29
5.43
3.19
0.59
-2.29
-5.26
-8.09
-10.68
-13.08
-15.54
-18.30
-21.48
-24.97
-28.42
-31.34
-33.33
-34.06
-33.33
-31.03
-27.14
-21.81
-15.37
-8.39
-1.52
4.62
9.63
13.41
16.04
17.68
18.47
18.46
17.76
16.54
15.12
13.87
13.05
12.75
12.88
13.25
13.66
13.99
14.23
14.42
14.63
14.82
14.92
14.75
14.11
12.79
10.74
8.00
4.80
1.37
-2.05
-5.32
-8.37
-11.16
-13.73
-16.10
-18.34
-20.56
-22.90
-25.46
-28.26
-31.19
-34.03
-36.48
-38.12
-38.53
-37.33
-34.30
-29.49
-23.26
-16.21
-9.05
-2.42
3.25
7.79
11.19
13.60
15.23
16.28
16.88
17.14
17.07
16.70
16.14
15.53
15.12
15.06
15.42
16.12
16.95
17.73
18.28
18.56
18.51
18.17
17.51
16.52
15.20
13.59
11.74
9.73
7.66
5.62
3.67
1.83
0.07
-1.70
-3.60
-5.70
-8.02
-10.45
-12.81
-14.92
-16.67
-18.06
-19.22
-20.36
-21.71
-23.44
-25.56
-27.89
-30.08
-31.61
-31.95
-30.67
-27.54
-22.63
-16.30
-9.17
-2.03
4.41
9.63
13.47
16.08
17.85
19.11
20.02
20.53
20.52
19.91
18.88
17.70
16.70
16.01
15.62
15.36
15.12
14.92
14.87
15.08
15.55
16.09
16.42
16.28
15.58
14.37
12.84
11.11
9.26
7.23
4.96
2.49
-0.05
-2.47
-4.62
-6.47
-8.12
-9.75
-11.45
-13.26
-15.10
-16.93
-18.71
-20.43
-22.13
-23.82
-25.59
-27.53
-29.67
-31.84
-33.60
-34.31
-33.27
-30.06
-24.75
-17.90
-10.34
-2.93
3.76
9.46
14.13
17.83
20.57
22.37
23.29
23.46
23.13
22.56
21.99
21.61
21.46
21.51
21.66
21.84
22.00
22.13
22.22
22.23
22.10
21.77
21.18
20.35
19.30
18.01
16.42
14.43
12.01
9.27
6.46
3.83
1.59
-0.30
-2.01
-3.79
-5.82
-8.14
-10.67
-13.29
-15.95
-18.68
-21.61
-24.85
-28.43
-32.15
-35.65
-38.39
-39.84
-39.60
-37.54
-33.80
-28.84
-23.22
-17.55
-12.26
-7.61
-3.64
-0.32
2.44
4.64
6.23
7.17
7.43
7.14
6.51
5.79
5.14
4.64
4.22
3.83
3.53
3.42
3.64
4.20
4.96
5.67
6.01
5.77
4.89
3.45
1.60
-0.52
-2.82
-5.26
-7.85
-10.62
-13.54
-16.56
-19.57
-22.50
-25.29
-28.06
-30.90
-33.84
-36.68
-38.96
-40.05
-39.38
-36.70
-32.17
-26.36
-20.00
-13.72
-7.99
-3.05
0.97
3.99
5.97
6.99
7.24
7.05
6.72
6.44
6.22
5.95
5.45
4.66
3.72
2.93
2.69
3.27
4.75
6.86
9.13
10.94
11.74
11.31
9.65
7.13
4.16
1.14
-1.72
-4.45
-7.21
-10.25
-13.75
-17.71
-21.94
-26.01
-29.36
-31.38
-31.57
-29.71
-25.86
-20.36
-13.81
-6.83
-0.07
5.98
11.00
14.90
17.73
19.69
20.96
21.66
21.88
21.65
21.03
20.16
19.16
18.12
17.11
16.21
15.54
15.25
15.47
16.14
17.00
17.62
17.61
16.72
15.00
12.68
10.06
7.30
4.38
1.18
-2.43
-6.50
-11.01
-15.80
-20.65
-25.22
-29.01
-31.47
-32.02
-30.35
-26.47
-20.84
-14.18
-7.32
-0.92
4.66
9.33
13.16
16.32
18.92
21.04
22.74
24.02
24.86
25.19
25.02
24.41
23.55
22.70
22.06
21.67
21.40
21.06
20.53
19.77
18.88
17.93
16.89
15.59
13.83
11.52
8.74
5.77
2.91
0.30
-2.16
-4.82
-8.04
-12.05
-16.77
-21.87
-26.88
-31.31
-34.73
-36.76
-37.08
-35.37
-31.52
-25.77
-18.79
-11.47
-4.72
0.86
5.16
8.44
11.11
13.55
15.89
18.06
19.87
21.14
21.76
21.76
21.32
20.70
20.19
20.02
20.28
20.91
21.77
22.65
23.31
23.50
23.01
21.77
19.94
17.85
15.87
14.22
12.80
11.24
9.13
6.22
2.60
-1.39
-5.37
-9.05
-12.30
-15.18
-17.76
-20.11
-22.36
-24.69
-27.29
-30.18
-33.09
-35.49
-36.66
-35.94
-32.96
-27.81
-21.00
-13.36
-5.78
1.02
6.66
11.07
14.45
17.01
18.92
20.25
21.05
21.44
21.61
21.76
22.04
22.44
22.90
23.31
23.63
23.90
24.09
24.18
24.05
23.57
22.70
21.47
20.04
18.54
17.11
15.73
14.24
12.42
10.00
6.87
3.17
-0.81
-4.65
-8.02
-10.78
-13.02
-14.97
-16.92
-19.10
-21.68
-24.73
-28.16
-31.71
-34.89
-37.06
-37.59
-36.06
-32.41
-26.96
-20.34
-13.30
-6.54
-0.59
4.30
8.18
11.31
14.02
16.51
18.79
20.67
21.96
22.55
22.58
22.28
21.90
21.55
21.29
21.10
21.05
21.27
21.82
22.65
23.56
24.24
24.35
23.65
22.06
19.69
16.81
13.79
11.02
8.69
6.80
5.14
3.38
1.31
-1.09
-3.62
-6.03
-8.19
-10.14
-12.13
-14.42
-17.13
-20.25
-23.60
-26.97
-30.11
-32.73
-34.50
-35.01
-33.89
-30.91
-26.11
-19.89
-12.93
-6.03
0.14
5.12
8.73
11.08
12.38
12.94
13.05
12.99
12.95
13.11
13.52
14.15
14.91
15.65
16.26
16.68
16.87
16.77
16.39
15.81
15.15
14.60
14.23
13.98
13.61
12.84
11.43
9.37
6.79
3.92
0.93
-2.10
-5.21
-8.44
-11.75
-15.04
-18.20
-21.20
-24.09
-26.97
-29.84
-32.52
-34.63
-35.71
-35.31
-33.21
-29.53
-24.67
-19.21
-13.74
-8.67
-4.21
-0.42
2.75
5.32
7.31
8.70
9.49
9.74
9.54
9.03
8.38
7.73
7.22
6.95
6.98
7.30
7.87
8.61
9.38
10.04
10.41
10.37
9.87
8.91
7.51
5.67
3.38
0.64
-2.46
-5.70
-8.81
-11.60
-14.07
-16.35
-18.66
-21.05
-23.30
-24.94
-25.45
-24.45
-21.84
-17.86
-12.93
-7.56
-2.23
2.70
7.00
10.54
13.26
15.19
16.36
16.88
16.90
16.55
16.03
15.45
14.93
14.48
14.09
13.78
13.56
13.47
13.52
13.67
13.80
13.75
13.40
12.66
11.53
10.02
8.23
6.23
4.12
1.91
-0.37
-2.75
-5.26
-7.93
-10.74
-13.62
-16.46
-19.16
-21.65
-23.82
-25.48
-26.42
-26.30
-24.89
-22.09
-18.02
-13.04
-7.54
-1.95
3.37
8.14
12.10
15.04
16.84
17.61
17.66
17.47
17.47
17.87
18.57
19.30
19.72
19.70
19.34
18.92
18.75
19.01
19.63
20.31
20.60
20.06
18.37
15.46
11.54
7.16
3.04
-0.11
-1.72
-1.63
-0.08
2.35
4.93
7.02
8.19
8.35
7.62
6.23
4.33
1.92
-1.10
-4.78
-9.02
-13.39
-17.25
-19.89
-20.83
-19.98
-17.65
-14.35
-10.62
-6.82
-3.11
0.43
3.67
6.41
8.42
9.61
10.08
10.13
10.05
9.97
9.82
9.31
8.22
6.50
4.37
2.22
0.48
-0.63
-1.12
-1.23
-1.22
-1.34
-1.64
-2.11
-2.74
-3.50
-4.43
-5.54
-6.79
-8.12
-9.44
-10.70
-11.94
-13.21
-14.52
-15.89
-17.28
-18.68
-20.03
-21.31
-22.43
-23.33
-23.96
-24.37
-24.72
-25.20
-25.92
-26.85
-27.72
-28.09
-27.46
-25.46
-21.96
-17.13
-11.43
-5.48
0.09
4.76
8.26
10.51
11.68
12.04
11.95
11.71
11.50
11.34
11.16
10.85
10.38
9.82
9.28
8.90
8.73
8.77
9.00
9.35
9.82
10.38
10.96
11.43
11.64
11.44
10.71
9.51
7.96
6.32
4.85
3.72
2.95
2.39
1.76
0.81
-0.55
-2.21
-3.91
-5.36
-6.40
-7.07
-7.57
-8.09
-8.73
-9.50
-10.38
-11.35
-12.48
-13.83
-15.40
-17.08
-18.62
-19.72
-20.04
-19.29
-17.21
-13.68
-8.80
-2.82
3.83
10.77
17.72
24.46
30.58
35.36
37.86
37.32
33.68
27.73
20.96
14.94
10.68
8.36
7.44
7.15
6.82
6.12
4.97
3.32
1.09
-1.75
-5.04
-8.39
-11.32
-13.50
-14.84
-15.51
-15.79
-15.87
-15.83
-15.62
-15.25
-14.79
-14.41
-14.30
-14.53
-15.00
-15.48
-15.80
-15.87
-15.79
-15.75
-15.93
-16.37
-16.95
-17.44
-17.65
-17.61
-17.54
-17.83
-18.83
-20.59
-22.76
-24.67
-25.54
-24.82
-22.40
-18.57
-13.88
-8.92
-4.07
0.42
4.46
7.94
10.78
12.94
14.45
15.51
16.31
17.05
17.75
18.34
18.65
18.54
17.99
17.11
16.09
15.08
14.09
12.95
11.52
9.74
7.77
5.97
4.59
3.71
3.05
2.24
0.94
-0.92
-3.14
-5.41
-7.49
-9.33
-11.03
-12.70
-14.37
-15.96
-17.37
-18.62
-19.85
-21.25
-23.02
-25.14
-27.41
-29.35
-30.45
-30.28
-28.59
-25.43
-21.05
-15.86
-10.27
-4.66
0.65
5.34
9.14
11.84
13.36
13.85
13.61
12.99
12.29
11.64
11.05
10.45
9.73
8.87
7.90
6.90
5.97
5.18
4.57
4.10
3.68
3.27
2.83
2.38
1.92
1.44
0.83
-0.09
-1.49
-3.49
-6.05
-9.03
-12.16
-15.13
-17.71
-19.84
-21.60
-23.19
-24.76
-26.28
-27.53
-28.17
-27.91
-26.53
-24.03
-20.53
-16.18
-11.22
-5.94
-0.73
4.00
7.89
10.71
12.49
13.44
13.80
13.77
13.46
12.93
12.27
11.63
11.14
10.89
10.90
11.14
11.55
12.08
12.69
13.31
13.80
14.06
14.02
13.63
12.91
11.87
10.50
8.73
6.53
3.98
1.20
-1.64
-4.46
-7.29
-10.24
-13.43
-16.88
-20.50
-24.08
-27.33
-29.93
-31.56
-31.92
-30.79
-28.07
-23.90
-18.60
-12.73
-6.86
-1.49
3.13
6.96
10.07
12.60
14.67
16.37
17.79
18.99
20.02
20.86
21.45
21.71
21.65
21.39
21.16
21.17
21.55
22.24
23.04
23.70
23.99
23.77
23.00
21.70
19.92
17.72
15.09
11.98
8.29
3.95
-0.96
-6.17
-11.23
-15.67
-19.17
-21.78
-23.84
-25.90
-28.43
-31.66
-35.47
-39.45
-43.06
-45.76
-47.11
-46.82
-44.72
-40.76
-35.07
-27.98
-20.06
-11.96
-4.36
2.18
7.36
11.18
13.89
15.94
17.69
19.38
21.06
22.60
23.80
24.56
24.89
24.97
25.10
25.58
26.59
28.07
29.80
31.48
32.82
33.67
33.96
33.65
32.63
30.81
28.17
24.89
21.32
17.85
14.70
11.84
9.00
5.87
2.27
-1.69
-5.69
-9.39
-12.58
-15.22
-17.43
-19.38
-21.26
-23.23
-25.46
-28.10
-31.21
-34.64
-37.98
-40.64
-41.93
-41.35
-38.69
-34.04
-27.82
-20.58
-12.94
-5.50
1.20
6.82
11.18
14.39
16.71
18.46
19.90
21.08
21.95
22.44
22.63
22.78
23.19
24.09
25.43
26.90
28.12
28.80
28.94
28.78
28.64
28.70
28.90
28.95
28.48
27.24
25.17
22.45
19.34
16.16
13.16
10.53
8.33
6.56
5.12
3.87
2.64
1.26
-0.40
-2.45
-4.94
-7.92
-11.35
-15.14
-19.16
-23.25
-27.28
-31.11
-34.48
-37.02
-38.21
-37.58
-34.79
-29.89
-23.27
-15.68
-7.94
-0.79
5.28
10.09
13.73
16.42
18.43
19.99
21.22
22.16
22.81
23.17
23.36
23.55
23.91
24.55
25.40
26.26
26.89
27.17
27.19
27.18
27.40
27.94
28.59
28.96
28.65
27.44
25.38
22.75
19.95
17.35
15.16
13.45
12.12
10.92
9.54
7.68
5.13
1.84
-2.05
-6.23
-10.36
-14.16
-17.55
-20.64
-23.68
-26.96
-30.68
-34.76
-38.84
-42.24
-44.16
-43.89
-41.12
-35.98
-29.12
-21.46
-13.89
-7.09
-1.37
3.21
6.75
9.37
11.18
12.30
12.88
13.11
13.12
13.00
12.74
12.33
11.83
11.37
11.14
11.25
11.74
12.55
13.50
14.43
15.16
15.54
15.47
14.91
13.91
12.62
11.16
9.59
7.87
5.85
3.39
0.46
-2.84
-6.33
-9.80
-13.12
-16.20
-18.98
-21.41
-23.42
-25.04
-26.37
-27.60
-28.89
-30.24
-31.43
-32.02
-31.53
-29.60
-26.13
-21.36
-15.79
-10.03
-4.63
-0.00
3.65
6.33
8.18
9.40
10.19
10.67
10.87
10.82
10.60
10.34
10.28
10.58
11.31
12.28
13.17
13.68
13.65
13.19
12.62
12.26
12.21
12.34
12.30
11.75
10.52
8.68
6.41
3.92
1.24
-1.62
-4.64
-7.69
-10.52
-12.96
-14.97
-16.81
-18.77
-21.06
-23.56
-25.86
-27.39
-27.66
-26.46
-23.85
-20.15
-15.75
-10.99
-6.19
-1.58
2.66
6.37
9.48
11.97
13.81
15.03
15.57
15.42
14.67
13.51
12.30
11.42
11.19
11.73
12.92
14.43
15.87
16.93
17.43
17.38
16.93
16.29
15.59
14.85
13.94
12.68
10.93
8.67
5.97
2.96
-0.19
-3.36
-6.37
-8.97
-10.95
-12.21
-12.97
-13.72
-15.13
-17.63
-21.18
-25.24
-28.89
-31.29
-31.91
-30.73
-28.06
-24.38
-20.11
-15.55
-10.92
-6.45
-2.38
1.10
3.89
6.07
7.76
9.20
10.44
11.52
12.39
13.04
13.51
13.90
14.32
14.84
15.51
16.31
17.23
18.23
19.18
19.93
20.26
20.03
19.16
17.78
16.09
14.37
12.75
11.24
9.66
7.80
5.51
2.82
-0.14
-3.13
-6.02
-8.75
-11.36
-13.84
-16.13
-18.05
-19.47
-20.42
-21.09
-21.78
-22.70
-23.86
-24.96
-25.54
-25.19
-23.59
-20.71
-16.71
-11.96
-6.86
-1.83
2.81
6.78
9.91
12.18
13.68
14.58
15.06
15.31
15.38
15.30
15.11
14.86
14.64
14.51
14.55
14.73
15.01
15.34
15.68
16.05
16.43
16.73
16.81
16.51
15.75
14.56
13.03
11.33
9.58
7.85
6.16
4.52
2.89
1.21
-0.60
-2.60
-4.79
-7.13
-9.49
-11.71
-13.70
-15.41
-16.97
-18.51
-20.19
-22.01
-23.88
-25.55
-26.72
-27.10
-26.46
-24.70
-21.82
-17.86
-12.98
-7.41
-1.57
4.07
8.98
12.80
15.44
17.09
18.09
18.75
19.23
19.53
19.65
19.60
19.52
19.54
19.68
19.84
19.90
19.80
19.65
19.63
19.82
20.20
20.54
20.57
20.13
19.26
18.14
16.96
15.80
14.67
13.49
12.15
10.61
8.81
6.67
4.10
1.08
-2.31
-5.80
-9.02
-11.64
-13.49
-14.71
-15.71
-16.99
-18.95
-21.69
-24.90
-28.04
-30.50
-31.80
-31.71
-30.25
-27.59
-24.01
-19.75
-15.14
-10.46
-6.00
-2.06
1.18
3.64
5.39
6.62
7.54
8.29
8.89
9.20
9.07
8.48
7.59
6.81
6.56
7.10
8.36
9.99
11.54
12.64
13.18
13.18
12.68
11.63
9.93
7.53
4.52
1.19
-2.18
-5.42
-8.56
-11.69
-14.89
-18.07
-21.00
-23.48
-25.46
-27.09
-28.66
-30.40
-32.35
-34.29
-35.78
-36.32
-35.56
-33.41
-30.05
-25.88
-21.35
-16.85
-12.52
-8.40
-4.43
-0.64
2.80
5.71
7.83
9.08
9.53
9.42
9.06
8.74
8.64
8.80
9.14
9.51
9.84
10.12
10.43
10.87
11.50
12.23
12.84
13.04
12.55
11.30
9.39
7.10
4.78
2.64
0.77
-0.92
-2.56
-4.33
-6.28
-8.47
-10.88
-13.46
-16.13
-18.69
-20.91
-22.49
-23.17
-22.84
-21.49
-19.29
-16.45
-13.20
-9.71
-6.17
-2.69
0.55
3.38
5.67
7.38
8.60
9.48
10.21
10.84
11.28
11.40
11.09
10.40
9.52
8.74
8.28
8.30
8.80
9.63
10.63
11.53
12.16
12.44
12.44
12.30
12.15
12.01
11.71
11.01
9.70
7.75
5.27
2.46
-0.50
-3.51
-6.44
-9.16
-11.50
-13.34
-14.71
-15.84
-17.04
-18.65
-20.83
-23.50
-26.37
-28.99
-30.82
-31.44
-30.51
-27.98
-24.01
-19.03
-13.57
-8.21
-3.38
0.63
3.77
6.07
7.65
8.64
9.15
9.31
9.30
9.30
9.55
10.16
11.20
12.55
14.00
15.36
16.48
17.38
18.15
18.95
19.83
20.70
21.31
21.36
20.61
19.03
16.81
14.32
11.96
10.00
8.47
7.21
5.99
4.59
2.94
1.10
-0.79
-2.57
-4.12
-5.46
-6.65
-7.85
-9.22
-10.94
-13.08
-15.61
-18.35
-20.98
-23.10
-24.32
-24.35
-23.17
-21.08
-18.65
-16.50
-15.04
-14.31
-13.88
-13.18
-11.75
-9.50
-6.71
-3.84
-1.27
0.88
2.66
4.20
5.54
6.64
7.51
8.26
9.12
10.30
11.84
13.56
15.08
16.12
16.58
16.57
16.39
16.28
16.32
16.44
16.39
15.91
14.81
13.02
10.66
7.97
5.27
2.80
0.72
-1.00
-2.57
-4.23
-6.22
-8.61
-11.31
-14.13
-16.82
-19.24
-21.36
-23.31
-25.27
-27.37
-29.58
-31.65
-33.17
-33.66
-32.75
-30.26
-26.26
-21.03
-15.00
-8.61
-2.27
3.70
9.05
13.59
17.15
19.65
21.12
21.71
21.68
21.37
21.02
20.82
20.80
20.91
21.11
21.42
21.89
22.53
23.29
23.98
24.36
24.24
23.52
22.24
20.56
18.70
16.92
15.48
14.61
14.46
14.99
15.91
16.70
16.80
15.83
13.68
10.55
6.82
2.87
-1.02
-4.69
-8.02
-10.97
-13.55
-15.93
-18.38
-21.20
-24.54
-28.25
-31.90
-34.82
-36.34
-35.98
-33.59
-29.34
-23.72
-17.40
-11.04
-5.18
-0.17
3.87
6.95
9.15
10.58
11.38
11.74
11.83
11.86
11.96
12.22
12.65
13.25
13.99
14.87
15.84
16.82
17.73
18.46
18.84
18.70
17.89
16.32
14.06
11.36
8.56
5.97
3.70
1.62
-0.60
-3.28
-6.62
-10.56
-14.82
-19.01
-22.82
-26.07
-28.77
-31.06
-33.09
-35.00
-36.72
-38.10
-38.84
-38.61
-37.12
-34.21
-29.86
-24.27
-17.82
-11.03
-4.47
1.30
5.91
9.17
11.12
11.95
12.03
11.72
11.38
11.21
11.23
11.38
11.50
11.53
11.54
11.69
12.09
12.75
13.55
14.28
14.78
14.96
14.82
14.29
13.25
11.59
9.24
6.33
3.05
-0.28
-3.50
-6.50
-9.29
-11.92
-14.48
-17.03
-19.66
-22.39
-25.10
-27.49
-29.05
-29.28
-27.82
-24.55
-19.72
-13.79
-7.37
-1.07
4.54
9.13
12.54
14.84
16.22
16.91
17.08
16.89
16.42
15.74
14.93
14.04
13.08
12.11
11.17
10.38
9.84
9.60
9.57
9.62
9.57
9.32
8.86
8.16
7.13
5.61
3.41
0.49
-2.96
-6.60
-10.06
-13.09
-15.67
-17.93
-20.12
-22.48
-25.12
-28.03
-31.06
-33.90
-36.13
-37.30
-37.00
-34.97
-31.15
-25.67
-18.89
-11.36
-3.70
3.41
9.46
14.13
17.38
19.37
20.37
20.65
20.50
20.19
19.97
20.02
20.39
20.99
21.62
22.07
22.34
22.53
22.87
23.52
24.45
25.43
26.19
26.45
26.04
24.91
23.11
20.77
18.07
15.21
12.36
9.60
6.92
4.24
1.50
-1.33
-4.16
-6.85
-9.24
-11.23
-12.88
-14.35
-15.90
-17.84
-20.43
-23.73
-27.62
-31.65
-35.22
-37.60
-38.20
-36.67
-33.01
-27.52
-20.80
-13.55
-6.52
-0.36
4.53
7.97
10.11
11.37
12.27
13.30
14.69
16.45
18.28
19.85
20.94
21.51
21.69
21.67
21.58
21.49
21.38
21.22
21.03
20.82
20.61
20.36
19.97
19.34
18.42
17.13
15.42
13.28
10.74
7.95
5.20
2.73
0.70
-0.92
-2.33
-3.79
-5.49
-7.44
-9.53
-11.61
-13.59
-15.45
-17.29
-19.20
-21.35
-23.78
-26.52
-29.37
-31.92
-33.56
-33.62
-31.66
-27.58
-21.74
-14.84
-7.65
-0.84
5.19
10.32
14.58
18.08
20.89
23.05
24.60
25.56
25.97
25.94
25.53
24.91
24.26
23.80
23.73
24.19
25.17
26.49
27.89
28.98
29.52
29.37
28.58
27.27
25.52
23.35
20.73
17.70
14.40
11.12
8.13
5.56
3.35
1.29
-0.84
-3.10
-5.39
-7.52
-9.36
-10.93
-12.40
-13.97
-15.77
-17.89
-20.34
-23.14
-26.26
-29.58
-32.86
-35.71
-37.67
-38.27
-37.16
-34.20
-29.48
-23.36
-16.39
-9.31
-2.82
2.49
6.34
8.82
10.31
11.30
12.18
13.11
14.01
14.68
14.93
14.75
14.33
14.01
14.12
14.79
15.99
17.46
18.93
20.13
20.89
21.11
20.69
19.60
17.83
15.43
12.59
9.57
6.70
4.23
2.27
0.69
-0.77
-2.41
-4.44
-6.89
-9.66
-12.54
-15.37
-18.06
-20.60
-23.04
-25.38
-27.61
-29.65
-31.38
-32.62
-33.09
-32.50
-30.67
-27.57
-23.41
-18.57
-13.47
-8.48
-3.92
-0.03
3.06
5.31
6.85
7.88
8.64
9.31
9.95
10.47
10.82
10.96
10.98
11.04
11.31
11.90
12.80
13.95
15.20
16.33
17.08
17.23
16.65
15.37
13.57
11.46
9.23
7.02
4.90
2.85
0.81
-1.28
-3.50
-5.82
-8.21
-10.58
-12.91
-15.20
-17.59
-20.14
-22.78
-25.20
-26.91
-27.42
-26.41
-23.87
-20.04
-15.35
-10.31
-5.39
-1.00
2.56
5.24
7.18
8.66
10.01
11.38
12.73
13.90
14.73
15.13
15.18
14.97
14.62
14.22
13.93
13.89
14.24
14.97
15.95
16.89
17.49
17.55
16.95
15.75
14.06
12.03
9.84
7.64
5.50
3.36
1.08
-1.48
-4.33
-7.30
-10.09
-12.47
-14.38
-15.93
-17.36
-18.85
-20.53
-22.43
-24.60
-27.01
-29.58
-31.99
-33.72
-34.19
-32.92
-29.78
-25.04
-19.32
-13.40
-7.97
-3.47
0.00
2.59
4.57
6.18
7.54
8.68
9.53
10.09
10.42
10.65
10.90
11.25
11.75
12.34
13.01
13.72
14.47
15.26
16.05
16.82
17.44
17.74
17.54
16.66
15.05
12.85
10.32
7.80
5.53
3.62
1.95
0.33
-1.45
-3.45
-5.62
-7.74
-9.61
-11.14
-12.37
-13.47
-14.62
-15.91
-17.38
-18.99
-20.71
-22.53
-24.35
-25.92
-26.84
-26.65
-25.00
-21.79
-17.21
-11.68
-5.70
0.16
5.43
9.73
12.90
14.98
16.22
16.97
17.55
18.07
18.50
18.74
18.77
18.65
18.51
18.44
18.43
18.42
18.34
18.22
18.13
18.14
18.26
18.38
18.34
17.98
17.11
15.69
13.75
11.51
9.24
7.21
5.52
4.11
2.75
1.18
-0.73
-2.93
-5.21
-7.32
-9.13
-10.59
-11.81
-12.95
-14.17
-15.63
-17.49
-19.82
-22.57
-25.53
-28.30
-30.40
-31.31
-30.61
-28.08
-23.84
-18.27
-12.03
-5.85
-0.36
4.05
7.31
9.60
11.22
12.44
13.43
14.25
14.93
15.49
15.97
16.35
16.56
16.55
16.31
15.89
15.44
15.13
15.11
15.39
15.90
16.48
16.89
16.91
16.36
15.18
13.40
11.20
8.84
6.54
4.41
2.42
0.46
-1.62
-3.86
-6.12
-8.20
-9.90
-11.19
-12.22
-13.24
-14.49
-16.08
-17.99
-20.12
-22.39
-24.65
-26.71
-28.24
-28.82
-28.07
-25.84
-22.29
-17.91
-13.29
-8.95
-5.17
-2.00
0.64
2.86
4.68
6.05
6.89
7.17
6.94
6.41
5.80
5.30
4.99
4.84
4.80
4.88
5.18
5.80
6.77
7.95
9.03
9.58
9.32
8.21
6.46
4.51
2.70
1.19
-0.15
-1.59
-3.38
-5.60
-8.09
-10.56
-12.75
-14.53
-16.04
-17.54
-19.32
-21.52
-23.99
-26.38
-28.24
-29.13
-28.75
-27.02
-24.02
-19.96
-15.15
-9.95
-4.78
-0.04
3.86
6.69
8.41
9.16
9.19
8.84
8.39
8.06
7.98
8.12
8.42
8.70
8.90
9.00
9.08
9.26
9.63
10.21
10.88
11.47
11.71
11.36
10.34
8.68
6.58
4.26
1.93
-0.34
-2.54
-4.77
-7.10
-9.53
-12.07
-14.71
-17.44
-20.29
-23.15
-25.72
-27.60
-28.27
-27.36
-24.75
-20.64
-15.53
-10.09
-4.95
-0.56
2.89
5.47
7.39
8.84
9.88
10.50
10.62
10.26
9.55
8.74
8.10
7.78
7.80
8.05
8.38
8.66
8.88
9.13
9.48
9.98
10.50
10.80
10.60
9.71
8.10
5.88
3.27
0.40
-2.62
-5.80
-9.06
-12.23
-15.11
-17.59
-19.78
-22.00
-24.51
-27.30
-29.97
-31.84
-32.17
-30.52
-26.86
-21.58
-15.35
-8.85
-2.69
2.73
7.21
10.70
13.28
15.04
16.11
16.61
16.74
16.74
16.82
17.09
17.43
17.57
17.29
16.52
15.53
14.69
14.30
14.45
14.95
15.53
15.98
16.20
16.16
15.79
14.99
13.66
11.80
9.56
7.13
4.63
2.09
-0.58
-3.41
-6.37
-9.32
-12.16
-14.80
-17.29
-19.71
-22.20
-24.87
-27.75
-30.76
-33.57
-35.62
-36.24
-34.87
-31.32
-25.86
-19.18
-12.15
-5.50
0.33
5.27
9.41
12.93
15.89
18.26
19.96
20.99
21.41
21.39
21.11
20.76
20.54
20.53
20.78
21.22
21.70
22.07
22.22
22.21
22.15
22.12
22.07
21.80
21.03
19.61
17.58
15.14
12.60
10.11
7.65
5.06
2.23
-0.82
-3.89
-6.68
-9.02
-10.86
-12.38
-13.86
-15.55
-17.66
-20.28
-23.39
-26.83
-30.27
-33.20
-35.01
-35.13
-33.19
-29.13
-23.30
-16.32
-8.98
-1.98
4.17
9.26
13.36
16.66
19.29
21.31
22.67
23.35
23.47
23.29
23.10
23.06
23.14
23.11
22.79
22.19
21.55
21.23
21.45
22.17
23.03
23.51
23.14
21.70
19.29
16.26
13.09
10.18
7.70
5.56
3.51
1.32
-1.13
-3.80
-6.57
-9.31
-11.96
-14.52
-16.97
-19.33
-21.66
-24.06
-26.68
-29.61
-32.65
-35.33
-37.01
-37.06
-35.17
-31.38
-26.08
-19.82
-13.16
-6.55
-0.40
4.93
9.19
12.26
14.21
15.28
15.77
15.87
15.68
15.19
14.44
13.54
12.70
12.16
12.09
12.52
13.36
14.36
15.27
15.87
16.03
15.69
14.90
13.73
12.20
10.33
8.12
5.63
2.96
0.19
-2.62
-5.44
-8.31
-11.28
-14.35
-17.44
-20.42
-23.17
-25.60
-27.70
-29.40
-30.57
-30.99
-30.30
-28.24
-24.62
-19.57
-13.47
-6.95
-0.71
4.64
8.75
11.56
13.24
14.07
14.38
14.43
14.37
14.26
14.09
13.83
13.52
13.21
12.99
12.94
13.05
13.26
13.49
13.62
13.61
13.46
13.19
12.78
12.16
11.13
9.50
7.12
4.02
0.41
-3.38
-7.00
-10.21
-12.99
-15.49
-17.95
-20.55
-23.37
-26.23
-28.72
-30.34
-30.54
-28.96
-25.59
-20.73
-15.03
-9.24
-3.96
0.51
4.19
7.30
10.05
12.53
14.66
16.29
17.31
17.73
17.70
17.36
16.87
16.36
15.93
15.73
15.91
16.57
17.63
18.85
19.86
20.31
20.02
19.01
17.45
15.55
13.50
11.37
9.19
6.97
4.68
2.27
-0.37
-3.30
-6.55
-9.99
-13.36
-16.38
-18.87
-20.86
-22.59
-24.46
-26.72
-29.36
-31.96
-33.78
-34.01
-32.10
-28.00
-22.21
-15.56
-8.97
-3.13
1.63
5.29
8.02
10.04
11.52
12.62
13.45
14.14
14.79
15.46
16.16
16.85
17.46
17.93
18.20
18.31
18.38
18.55
18.93
19.48
20.00
20.25
20.02
19.32
18.21
16.88
15.44
13.87
12.11
10.11
7.91
5.67
3.55
1.70
0.14
-1.24
-2.59
-4.01
-5.59
-7.30
-9.12
-11.02
-12.97
-14.98
-17.06
-19.23
-21.57
-24.15
-26.99
-29.94
-32.65
-34.57
-35.07
-33.64
-30.11
-24.68
-17.97
-10.85
-4.11
1.64
6.13
9.34
11.45
12.73
13.44
13.89
14.36
15.09
16.13
17.32
18.29
18.70
18.43
17.70
17.00
16.83
17.41
18.60
19.98
21.09
21.61
21.49
20.83
19.82
18.60
17.29
15.97
14.71
13.54
12.41
11.20
9.79
8.12
6.23
4.27
2.41
0.82
-0.45
-1.44
-2.32
-3.32
-4.68
-6.57
-8.93
-11.54
-14.03
-16.13
-17.81
-19.31
-21.05
-23.33
-26.19
-29.24
-31.82
-33.24
-32.97
-30.89
-27.21
-22.34
-16.82
-11.14
-5.72
-0.94
2.90
5.71
7.57
8.76
9.67
10.55
11.45
12.22
12.64
12.54
11.99
11.20
10.52
10.20
10.33
10.86
11.69
12.66
13.65
14.52
15.15
15.46
15.36
14.81
13.82
12.43
10.69
8.75
6.77
4.86
3.12
1.48
-0.20
-2.05
-4.14
-6.42
-8.72
-10.89
-12.78
-14.41
-15.89
-17.45
-19.36
-21.76
-24.65
-27.71
-30.45
-32.30
-32.83
-31.82
-29.32
-25.51
-20.69
-15.23
-9.59
-4.34
-0.02
3.07
4.95
6.00
6.74
7.52
8.36
9.00
9.08
8.46
7.30
6.00
5.04
4.68
4.89
5.43
6.00
6.46
6.85
7.38
8.21
9.29
10.24
10.53
9.76
7.85
5.11
2.07
-0.80
-3.27
-5.42
-7.45
-9.50
-11.52
-13.42
-15.18
-16.93
-18.88
-21.16
-23.58
-25.66
-26.74
-26.29
-24.12
-20.45
-15.81
-10.85
-6.13
-2.00
1.50
4.43
6.96
9.12
10.85
12.05
12.62
12.58
12.02
11.02
9.63
7.97
6.22
4.74
3.92
4.02
5.00
6.48
7.97
9.01
9.41
9.22
8.55
7.49
6.01
4.05
1.68
-0.84
-3.21
-5.24
-6.94
-8.58
-10.47
-12.93
-16.03
-19.62
-23.36
-26.75
-29.31
-30.61
-30.38
-28.54
-25.27
-20.91
-15.94
-10.87
-6.12
-1.93
1.59
4.53
7.00
9.09
10.81
12.10
12.91
13.29
13.36
13.27
13.07
12.76
12.32
11.81
11.42
11.41
11.93
12.91
14.09
15.11
15.70
15.71
15.13
13.96
12.20
9.87
7.05
3.98
0.93
-1.86
-4.31
-6.54
-8.72
-11.05
-13.51
-16.03
-18.49
-20.88
-23.28
-25.82
-28.48
-30.93
-32.65
-32.99
-31.44
-27.86
-22.58
-16.26
-9.73
-3.70
1.39
5.39
8.42
10.74
12.54
13.97
15.08
15.82
16.17
16.18
15.96
15.72
15.63
15.82
16.26
16.90
17.63
18.40
19.21
20.01
20.71
21.12
21.00
20.20
18.73
16.79
14.60
12.41
10.30
8.25
6.15
4.00
1.79
-0.41
-2.57
-4.70
-6.82
-8.98
-11.10
-13.11
-14.93
-16.61
-18.30
-20.29
-22.88
-26.19
-30.08
-34.03
-37.28
-39.02
-38.64
-35.98
-31.30
-25.20
-18.45
-11.74
-5.65
-0.49
3.67
6.95
9.61
11.95
14.14
16.24
18.15
19.74
20.92
21.65
21.94
21.83
21.43
20.89
20.43
20.28
20.55
21.17
21.91
22.53
22.86
22.87
22.60
22.07
21.24
19.99
18.31
16.26
13.98
11.70
9.54
7.51
5.55
3.53
1.32
-1.07
-3.56
-6.01
-8.28
-10.31
-12.16
-13.96
-15.79
-17.70
-19.70
-21.90
-24.51
-27.70
-31.38
-35.02
-37.71
-38.46
-36.59
-32.12
-25.71
-18.40
-11.16
-4.62
1.01
5.72
9.57
12.52
14.56
15.80
16.48
16.95
17.44
18.04
18.68
19.23
19.63
19.85
19.99
20.12
20.32
20.63
21.10
21.68
22.25
22.64
22.63
22.04
20.82
19.09
17.02
14.83
12.62
10.44
8.27
6.07
3.88
1.70
-0.48
-2.76
-5.26
-8.08
-11.11
-14.20
-17.08
-19.60
-21.85
-24.08
-26.56
-29.38
-32.33
-34.94
-36.73
-37.22
-36.17
-33.52
-29.28
-23.63
-16.94
-9.76
-2.76
3.36
8.10
11.25
12.84
13.15
12.56
11.49
10.37
9.48
8.91
8.57
8.28
7.91
7.51
7.21
7.17
7.38
7.66
7.76
7.52
7.02
6.48
6.11
5.88
5.49
4.59
2.83
0.15
-3.26
-7.01
-10.70
-13.99
-16.73
-18.94
-20.79
-22.51
-24.31
-26.29
-28.37
-30.32
-31.70
-32.05
-30.95
-28.17
-23.75
-18.03
-11.53
-4.86
1.39
6.82
11.15
14.26
16.16
17.00
17.02
16.49
15.65
14.69
13.70
12.74
11.96
11.54
11.63
12.27
13.23
14.16
14.72
14.79
14.48
14.08
13.83
13.74
13.52
12.81
11.27
8.85
5.81
2.51
-0.69
-3.70
-6.63
-9.72
-13.15
-16.93
-20.87
-24.67
-28.00
-30.52
-31.96
-32.03
-30.43
-26.94
-21.56
-14.64
-6.89
0.79
7.57
12.93
16.73
19.21
20.78
21.77
22.44
22.87
23.07
23.03
22.79
22.35
21.73
20.94
20.05
19.21
18.64
18.46
18.72
19.28
19.88
20.22
20.08
19.30
17.87
15.84
13.31
10.41
7.31
4.15
1.08
-1.84
-4.63
-7.35
-10.13
-13.08
-16.27
-19.68
-23.32
-27.09
-30.83
-34.28
-37.01
-38.53
-38.36
-36.26
-32.28
-26.83
-20.54
-14.03
-7.77
-1.96
3.37
8.20
12.45
15.94
18.51
20.14
21.02
21.46
21.78
22.13
22.47
22.64
22.60
22.39
22.24
22.37
22.91
23.84
24.91
25.85
26.40
26.36
25.62
24.18
22.12
19.64
16.97
14.36
11.99
9.93
8.09
6.29
4.33
2.04
-0.65
-3.69
-6.95
-10.20
-13.23
-15.88
-18.08
-19.95
-21.76
-23.85
-26.48
-29.75
-33.43
-37.00
-39.72
-40.79
-39.67
-36.17
-30.57
-23.49
-15.75
-8.13
-1.29
4.39
8.73
11.76
13.67
14.78
15.48
16.11
16.92
17.98
19.24
20.61
21.97
23.25
24.33
25.10
25.52
25.62
25.52
25.38
25.26
25.09
24.73
24.07
23.13
22.09
21.12
20.27
19.36
18.11
16.25
13.71
10.67
7.44
4.30
1.41
-1.26
-3.83
-6.42
-9.05
-11.62
-14.05
-16.27
-18.36
-20.53
-23.04
-26.04
-29.50
-33.07
-36.21
-38.23
-38.50
-36.66
-32.71
-27.03
-20.26
-13.11
-6.24
-0.16
4.82
8.54
11.00
12.37
12.93
13.06
13.13
13.33
13.64
13.88
13.82
13.39
12.69
12.01
11.64
11.71
12.14
12.71
13.21
13.52
13.64
13.62
13.38
12.73
11.45
9.39
6.65
3.50
0.28
-2.79
-5.65
-8.42
-11.22
-14.05
-16.86
-19.58
-22.22
-24.88
-27.71
-30.76
-33.91
-36.78
-38.81
-39.37
-38.00
-34.61
-29.47
-23.24
-16.73
-10.62
-5.34
-1.00
2.47
5.21
7.29
8.65
9.25
9.15
8.56
7.77
7.05
6.63
6.60
7.01
7.81
8.92
10.23
11.56
12.78
13.69
14.18
14.14
13.53
12.34
10.61
8.44
5.93
3.20
0.34
-2.58
-5.52
-8.47
-11.46
-14.55
-17.81
-21.20
-24.50
-27.35
-29.22
-29.67
-28.45
-25.60
-21.41
-16.32
-10.78
-5.16
0.23
5.10
9.23
12.45
14.72
16.10
16.73
16.74
16.27
15.42
14.35
13.25
12.33
11.73
11.51
11.64
11.97
12.36
12.66
12.81
12.71
12.32
11.60
10.48
8.89
6.82
4.30
1.44
-1.60
-4.66
-7.65
-10.52
-13.26
-15.88
-18.39
-20.87
-23.39
-26.03
-28.73
-31.22
-33.04
-33.66
-32.69
-30.03
-25.93
-20.84
-15.25
-9.54
-3.97
1.28
6.01
10.00
13.09
15.28
16.73
17.67
18.30
18.72
18.91
18.82
18.44
17.89
17.29
16.84
16.72
17.00
17.71
18.71
19.77
20.60
20.93
20.64
19.76
18.44
16.81
14.90
12.65
9.94
6.78
3.26
-0.39
-4.00
-7.48
-10.84
-14.19
-17.59
-21.10
-24.70
-28.30
-31.70
-34.57
-36.43
-36.82
-35.43
-32.27
-27.68
-22.19
-16.31
-10.45
-4.87
0.21
4.53
7.85
10.14
11.63
12.79
14.11
15.77
17.60
19.19
20.16
20.47
20.40
20.47
21.08
22.30
23.89
25.41
26.45
26.81
26.48
25.59
24.27
22.60
20.71
18.74
16.85
15.12
13.56
12.08
10.57
9.01
7.47
6.06
4.88
3.85
2.75
1.17
-1.35
-5.28
-10.88
-18.08
-26.24
-34.20
-40.47
-43.71
-43.23
-39.27
-32.94
-25.72
-18.95
-13.40
-9.20
-6.12
-3.84
-2.21
-1.20
-0.78
-0.73
-0.69
-0.20
1.01
2.85
4.87
6.49
7.28
7.25
6.86
6.83
7.75
9.72
12.27
14.52
15.54
14.76
12.14
8.08
3.27
-1.62
-6.05
-9.71
-12.44
-14.19
-15.05
-15.22
-15.03
-14.98
-15.54
-17.06
-19.58
-22.77
-25.93
-28.18
-28.75
-27.18
-23.41
-17.81
-11.03
-3.80
3.23
9.52
14.67
18.38
20.51
21.09
20.34
18.67
16.61
14.60
12.91
11.63
10.68
9.92
9.28
8.71
8.25
7.93
7.73
7.60
7.40
7.01
6.32
5.28
3.90
2.27
0.50
-1.27
-3.03
-4.84
-6.85
-9.30
-12.30
-15.88
-19.79
-23.51
-26.30
-27.37
-26.11
-22.39
-16.56
-9.46
-2.17
4.34
9.39
12.71
14.46
15.06
15.06
14.95
15.04
15.46
16.12
16.83
17.37
17.65
17.65
17.39
16.91
16.20
15.20
13.93
12.45
10.87
9.30
7.77
6.26
4.70
3.05
1.27
-0.71
-3.03
-5.89
-9.50
-13.97
-19.19
-24.77
-30.07
-34.31
-36.70
-36.65
-33.99
-29.03
-22.51
-15.34
-8.39
-2.15
3.22
7.89
12.10
16.02
19.63
22.74
24.99
26.02
25.55
23.54
20.29
16.44
12.77
10.02
8.63
8.65
9.78
11.46
13.09
14.07
13.96
12.49
9.74
6.03
1.99
-1.73
-4.59
-6.45
-7.59
-8.60
-10.21
-13.01
-17.20
-22.44
-27.90
-32.46
-35.00
-34.78
-31.63
-25.97
-18.64
-10.65
-2.90
3.98
9.66
14.05
17.21
19.33
20.62
21.31
21.58
21.68
21.87
22.37
23.28
24.49
25.69
26.51
