1520264350.00
64.000000
-0.00
-0.00
-0.00
-0.00
-0.00
-0.00
-0.00
-0.00
-0.00
-0.00
0.00
0.01
0.01
-0.00
-0.03
-0.05
-0.05
0.00
0.13
0.36
0.66
1.01
1.37
1.72
2.06
2.40
2.79
3.24
3.80
4.42
5.06
5.66
6.20
6.68
7.15
7.68
8.31
9.14
10.09
11.04
11.88
12.56
13.14
13.76
14.65
15.96
17.91
20.32
22.90
25.38
27.58
29.57
31.68
34.32
37.81
42.54
48.15
54.10
59.83
64.97
69.58
74.14
79.34
85.71
93.76
103.00
112.62
121.73
129.77
136.75
143.30
150.75
157.77
166.64
177.95
191.79
206.97
220.57
228.25
225.36
208.53
176.87
132.76
80.05
23.07
-34.94
-92.44
-149.16
-205.23
-260.37
-313.74
-363.87
-409.83
-450.91
-486.50
-515.74
-537.23
-549.22
-549.96
-538.37
-514.21
-478.67
-433.88
-382.45
-327.02
-269.84
-212.63
-156.66
-102.95
-52.37
-5.90
35.58
71.43
101.35
125.50
144.38
158.69
169.15
176.37
180.75
182.57
182.07
179.51
175.23
169.65
163.18
156.15
148.81
141.30
133.69
126.02
118.33
110.69
103.16
95.80
88.68
81.83
75.25
68.95
62.95
57.25
51.86
46.78
42.03
37.59
33.45
29.61
26.07
22.81
19.83
17.11
14.67
12.48
10.54
8.83
7.35
6.07
4.97
4.05
3.27
2.62
2.09
1.65
1.30
1.01
0.79
0.61
0.47
0.37
0.29
0.23
0.19
0.16
0.15
0.14
0.15
0.17
0.19
0.22
0.25
0.29
0.33
0.37
0.42
0.47
0.51
0.56
0.61
0.67
0.73
0.79
0.85
0.93
1.00
1.09
1.19
1.30
1.43
1.56
1.72
1.89
2.08
2.30
2.54
2.80
3.09
3.41
3.76
4.14
4.56
5.02
5.50
6.03
6.60
7.22
7.87
8.56
9.31
10.10
10.93
11.81
12.73
13.71
14.74
15.84
17.00
18.22
19.49
20.79
22.07
23.26
24.26
24.97
25.26
25.00
24.11
22.49
20.13
17.06
13.34
9.14
4.63
0.01
-4.47
-8.62
-12.24
-15.20
-17.40
-18.83
-19.50
-19.49
-18.91
-17.88
-16.50
-14.88
-13.11
-11.25
-9.38
-7.51
-5.71
-3.99
-2.33
-0.69
1.00
2.78
4.67
6.69
8.85
11.06
13.26
15.48
17.76
20.18
22.76
25.55
28.54
31.80
35.08
38.29
41.48
44.78
48.31
52.16
56.32
60.74
65.38
69.78
73.78
77.48
81.16
85.08
89.38
93.97
98.55
102.85
106.01
107.67
107.87
106.86
104.76
101.24
95.15
84.29
70.71
54.53
36.05
15.96
-4.81
-25.38
-45.20
-64.19
-82.66
-101.06
-120.73
-142.81
-168.19
-196.85
-227.26
-256.13
-278.87
-290.94
-289.48
-274.98
-250.57
-220.92
-190.52
-162.33
-137.46
-115.67
-96.36
-79.14
-64.28
-51.85
-41.46
-32.26
-23.37
-14.28
-5.16
3.41
10.67
16.07
19.62
21.82
23.42
24.97
26.60
28.02
28.71
28.26
26.62
24.18
21.59
19.44
17.91
16.73
15.29
12.98
9.49
5.00
0.25
-3.74
-5.91
-5.51
-2.33
3.22
10.24
17.58
24.17
29.29
32.73
34.63
35.39
35.43
35.09
34.67
34.38
34.37
34.64
35.07
35.43
35.45
34.97
33.95
32.50
30.86
29.24
27.82
26.65
25.61
24.45
22.85
20.55
17.44
13.68
9.61
5.73
2.45
-0.01
-1.66
-2.82
-4.02
-5.79
-8.50
-12.12
-16.14
-19.70
-21.86
-21.88
-19.55
-15.18
-9.48
-3.34
2.46
7.34
11.01
13.39
14.61
14.91
14.63
14.10
13.59
13.25
13.15
13.26
13.53
13.88
14.14
14.17
13.84
13.14
12.25
11.38
10.70
10.17
9.53
8.48
6.83
4.62
2.13
-0.27
-2.36
-4.06
-5.53
-7.06
-8.90
-11.20
-13.89
-16.62
-18.86
-19.97
-19.47
-17.17
-13.33
-8.55
-3.61
0.81
4.28
6.67
8.06
8.67
8.71
8.39
7.86
7.27
6.75
6.34
6.04
5.83
5.65
5.50
5.47
5.65
6.13
6.86
7.64
8.18
8.17
7.40
5.80
3.52
0.82
-1.99
-4.60
-6.87
-8.82
-10.63
-12.60
-14.92
-17.58
-20.30
-22.48
-23.50
-22.86
-20.41
-16.46
-11.65
-6.74
-2.39
0.98
3.28
4.63
5.23
5.25
4.81
3.95
2.74
1.29
-0.21
-1.56
-2.62
-3.28
-3.60
-3.74
-3.93
-4.36
-5.18
-6.42
-8.02
-9.90
-12.05
-14.53
-17.45
-20.87
-24.71
-28.73
-32.60
-36.09
-39.17
-42.09
-45.21
-48.79
-52.78
-56.74
-59.99
-61.75
-61.43
-58.56
-52.83
-43.94
-31.66
-15.96
2.77
23.61
45.12
65.62
83.53
97.66
107.33
112.34
112.96
109.82
103.87
96.34
88.49
81.33
75.34
70.39
65.84
60.93
55.12
48.32
40.92
33.40
26.20
19.42
12.91
6.39
-0.38
-7.50
-15.07
-23.13
-31.89
-41.61
-52.40
-64.08
-75.94
-86.89
-95.69
-101.34
-103.33
-101.86
-97.65
-91.66
-84.82
-77.70
-70.49
-63.09
-55.40
-47.45
-39.49
-31.79
-24.49
-17.34
-9.80
-1.27
8.57
19.54
31.02
42.31
52.95
62.96
72.54
81.81
90.39
97.51
102.36
104.62
104.73
103.76
103.02
103.50
105.67
109.33
113.84
118.31
121.66
122.69
120.26
113.54
102.40
87.70
71.23
55.24
41.77
32.07
26.30
23.74
23.31
24.08
25.65
28.12
31.74
36.57
42.10
47.33
51.04
52.13
49.90
44.17
35.28
24.05
11.72
-0.11
-9.53
-14.64
-14.01
-7.27
4.47
18.61
31.72
40.62
43.42
40.13
32.39
22.62
12.91
4.44
-2.62
-8.48
-13.23
-16.61
-18.27
-18.19
-16.97
-15.63
-15.08
-15.68
-17.05
-18.34
-18.75
-17.93
-16.00
-13.24
-9.71
-4.86
2.34
12.89
27.28
44.99
64.44
83.38
99.48
110.94
116.87
117.25
112.70
104.06
92.07
77.14
59.28
38.19
13.47
-14.82
-45.71
-77.11
-105.92
-128.79
-143.06
-147.91
-143.93
-132.50
-115.36
-94.35
-71.56
-49.27
-29.81
-15.17
-6.97
-5.36
-8.87
-14.88
-20.76
-24.55
-25.31
-22.93
-17.93
-12.50
-8.64
-7.46
-9.10
-13.34
-19.72
-27.53
-35.66
-42.91
-51.53
-63.04
-76.65
-89.72
-100.10
-107.20
-111.60
-114.21
-115.95
-124.18
-143.44
-172.13
-203.78
-232.35
-255.12
-272.12
-284.41
-292.99
-308.74
-337.71
-376.25
-413.66
-441.19
-456.88
-464.24
-469.15
-477.22
-506.46
-567.56
-657.00
-759.46
-858.61
-943.48
-1008.17
-1050.67
-985.42
-779.71
-474.78
-158.64
100.93
283.25
398.95
468.32
509.01
532.90
533.15
505.58
456.95
403.42
359.00
328.52
311.76
304.88
303.68
294.33
268.54
228.51
185.08
148.12
121.82
105.85
97.79
95.50
91.32
81.87
66.15
49.99
39.06
35.80
40.03
50.28
64.96
79.39
90.27
97.19
102.78
109.58
118.80
130.81
145.51
162.68
180.62
197.68
212.97
226.88
240.04
253.04
266.63
281.72
299.55
321.46
348.45
380.40
415.54
449.74
477.13
491.80
489.84
470.93
438.42
397.97
355.34
314.59
277.25
242.86
210.31
178.83
148.35
119.17
91.37
64.64
38.53
12.86
-12.09
-35.62
-56.88
-75.36
-91.09
-104.64
-116.84
-128.44
-139.80
-150.76
-160.74
-168.88
-174.39
-176.69
-175.56
-171.13
-163.81
-154.13
-142.58
-129.60
-115.53
-100.71
-85.58
-70.63
-56.22
-42.49
-29.25
-16.17
-3.10
9.62
21.08
30.12
35.85
38.05
37.18
34.12
29.62
24.12
17.73
10.55
2.83
-4.97
-12.40
-19.17
-25.12
-30.09
-33.65
-35.16
-33.97
-29.85
-23.21
-15.06
-6.64
1.02
7.41
12.52
16.68
20.19
23.25
25.79
27.64
28.56
28.35
26.93
24.41
21.20
17.89
15.13
13.28
12.30
11.70
10.84
9.26
6.84
3.86
0.76
-2.06
-4.35
-6.01
-7.03
-7.54
-7.93
-8.91
-11.37
-16.03
-22.93
-31.23
-39.23
-44.98
-46.95
-44.60
-38.63
-30.63
-22.54
-16.03
-12.06
-10.93
-12.43
-16.15
-21.68
-28.74
-37.09
-46.56
-56.95
-68.16
-80.04
-92.43
-104.91
-116.87
-127.55
-136.24
-142.56
-146.56
-148.67
-149.57
-149.77
-149.45
-148.29
-145.60
-140.60
-132.74
-122.03
-109.01
-94.75
-80.54
-67.69
-57.30
-50.08
-46.19
-45.20
-46.10
-47.39
-47.45
-44.91
-39.07
-30.12
-19.04
-7.27
3.82
13.41
21.45
28.56
35.66
43.53
52.39
61.80
70.76
78.17
83.15
85.46
85.56
84.46
83.33
83.04
83.79
85.06
85.95
85.59
83.66
80.53
77.14
74.63
74.01
75.87
80.37
87.19
95.51
103.99
110.88
114.34
112.84
105.65
93.01
76.01
56.33
35.90
16.70
0.44
-11.65
-19.16
-22.68
-23.50
-23.15
-22.75
-22.75
-23.02
-23.28
-23.46
-23.81
-24.46
-25.06
-24.74
-22.41
-17.38
-9.69
-0.12
10.34
20.93
31.25
40.99
49.56
56.03
59.42
59.17
55.52
49.36
41.84
33.92
26.12
18.71
11.93
6.19
1.93
-0.67
-1.86
-2.27
-2.60
-3.37
-4.76
-6.72
-9.20
-12.16
-15.55
-19.14
-22.52
-25.18
-26.76
-27.09
-26.21
-24.23
-21.19
-17.11
-12.16
-6.77
-1.65
2.48
5.11
6.22
6.19
5.64
5.05
4.65
4.34
3.88
3.19
2.34
1.62
1.30
1.46
1.94
2.37
2.32
1.52
-0.09
-2.34
-4.89
-7.40
-9.63
-11.47
-13.00
-14.49
-16.27
-18.66
-21.81
-25.62
-29.67
-33.31
-35.88
-36.82
-35.84
-32.95
-28.37
-22.50
-15.83
-8.88
-2.23
3.63
8.35
11.81
14.09
15.43
16.13
16.46
16.61
16.76
17.00
17.39
17.94
18.58
19.22
19.77
20.12
20.24
20.10
19.69
18.99
18.01
16.75
15.24
13.49
11.51
9.31
6.95
4.52
2.08
-0.45
-3.26
-6.63
-10.66
-15.14
-19.46
-22.75
-24.20
-23.29
-20.08
-15.07
-9.09
-3.00
2.47
6.89
10.14
12.27
13.47
13.95
13.86
13.34
12.47
11.33
10.03
8.67
7.39
6.32
5.56
5.22
5.27
5.57
5.90
5.98
5.60
4.70
3.34
1.67
-0.12
-1.94
-3.71
-5.40
-6.99
-8.54
-10.23
-12.28
-14.87
-17.96
-21.20
-23.97
-25.56
-25.40
-23.28
-19.41
-14.34
-8.77
-3.38
1.34
5.10
7.87
9.74
10.89
11.52
11.77
11.68
11.30
10.66
9.90
9.21
8.80
8.84
9.29
10.01
10.70
11.08
10.97
10.29
9.12
7.54
5.67
3.59
1.40
-0.82
-2.98
-5.04
-7.06
-9.21
-11.70
-14.64
-17.88
-21.01
-23.38
-24.33
-23.41
-20.61
-16.32
-11.27
-6.28
-1.99
1.27
3.49
4.88
5.73
6.29
6.73
7.15
7.61
8.12
8.63
9.07
9.29
9.27
9.03
8.72
8.48
8.40
8.43
8.39
8.07
7.29
5.99
4.19
2.03
-0.34
-2.77
-5.16
-7.43
-9.61
-11.78
-14.09
-16.59
-19.14
-21.38
-22.70
-22.49
-20.38
-16.46
-11.27
-5.64
-0.41
3.82
6.86
8.84
10.05
10.82
11.36
11.77
12.06
12.23
12.25
12.17
12.00
11.80
11.59
11.33
10.99
10.57
10.08
9.52
8.92
8.22
7.32
6.10
4.44
2.32
-0.20
-2.92
-5.55
-7.85
-9.72
-11.26
-12.82
-14.73
-17.15
-19.84
-22.15
-23.32
-22.76
-20.38
-16.60
-12.14
-7.70
-3.72
-0.33
2.52
4.92
6.87
8.31
9.24
9.75
10.02
10.22
10.46
10.70
10.87
10.87
10.67
10.31
9.86
9.39
8.92
8.49
8.06
7.62
7.09
6.42
5.54
4.40
3.01
1.39
-0.36
-2.16
-3.91
-5.52
-7.01
-8.48
-10.10
-12.01
-14.26
-16.70
-18.95
-20.52
-20.96
-20.01
-17.73
-14.47
-10.76
-7.20
-4.20
-1.89
-0.19
1.16
2.40
3.64
4.83
5.90
6.77
7.45
8.02
8.58
9.19
9.82
10.41
10.89
11.21
11.32
11.21
10.89
10.40
9.77
9.03
8.20
7.28
6.22
5.05
3.81
2.56
1.29
-0.05
-1.53
-3.21
-5.06
-7.01
-8.97
-10.91
-12.87
-14.94
-17.13
-19.33
-21.20
-22.34
-22.39
-21.13
-18.66
-15.30
-11.49
-7.65
-4.11
-1.08
1.34
3.11
4.24
4.84
5.08
5.21
5.39
5.69
6.09
6.47
6.77
7.00
7.23
7.52
7.85
8.13
8.26
8.20
7.99
7.72
7.42
7.06
6.56
5.81
4.74
3.35
1.71
-0.11
-2.08
-4.12
-6.19
-8.21
-10.11
-11.88
-13.57
-15.32
-17.34
-19.77
-22.64
-25.77
-28.79
-31.21
-32.58
-32.68
-31.53
-29.42
-26.73
-23.78
-20.77
-17.77
-14.82
-11.98
-9.40
-7.19
-5.46
-4.14
-3.07
-2.08
-1.03
0.06
1.09
2.00
2.81
3.66
4.73
6.15
7.90
9.85
11.73
13.19
13.90
13.61
12.22
9.90
7.07
4.33
2.26
1.18
1.06
1.54
2.16
2.52
2.45
2.00
1.29
0.39
-0.73
-2.22
-4.23
-6.86
-10.09
-13.76
-17.51
-20.83
-23.15
-23.95
-22.94
-20.18
-16.10
-11.36
-6.60
-2.30
1.34
4.39
7.07
9.64
12.31
15.20
18.29
21.46
24.40
26.70
28.00
28.10
27.12
25.38
23.32
21.25
19.25
17.28
15.29
13.38
11.75
10.55
9.74
8.99
7.93
6.30
4.16
1.84
-0.28
-1.96
-3.26
-4.38
-5.54
-6.75
-7.87
-8.75
-9.38
-10.04
-11.15
-13.01
-15.63
-18.54
-21.03
-22.39
-22.19
-20.50
-17.78
-14.66
-11.69
-9.21
-7.33
-6.03
-5.30
-5.19
-5.73
-6.90
-8.54
-10.48
-12.52
-14.55
-16.51
-18.41
-20.22
-21.92
-23.50
-24.99
-26.46
-28.00
-29.70
-31.63
-33.97
-36.98
-40.99
-46.11
-52.01
-57.88
-62.47
-64.48
-62.84
-56.91
-46.56
-32.08
-14.11
6.39
28.08
49.37
68.67
84.77
97.15
106.15
112.74
118.17
123.52
129.30
135.45
141.40
146.36
149.62
150.89
150.36
148.76
147.11
146.35
146.94
148.44
149.57
148.50
143.57
133.91
119.79
102.40
83.36
64.05
45.28
27.34
10.27
-5.91
-21.15
-35.52
-49.15
-62.08
-73.92
-83.75
-90.47
-93.35
-92.73
-90.06
-87.45
-86.83
-89.29
-94.84
-102.77
-112.11
-121.87
-131.10
-138.68
-143.33
-143.86
-139.57
-130.58
-117.89
-103.12
-88.07
-74.34
-63.04
-54.75
-49.46
-46.72
-45.74
-45.49
-44.89
-42.80
-38.25
-30.66
-20.15
-7.76
4.78
15.52
23.08
27.17
28.70
29.19
30.06
31.89
34.30
36.37
37.30
36.83
35.28
33.04
30.17
26.32
21.24
15.43
10.45
8.46
11.32
19.52
31.77
45.51
57.92
66.99
72.00
73.26
71.54
67.54
61.78
54.73
47.07
39.62
33.13
27.91
23.84
20.47
17.25
13.77
9.84
5.53
1.03
-3.33
-7.27
-10.57
-13.24
-15.45
-17.57
-19.89
-22.58
-25.63
-28.87
-32.05
-34.93
-37.34
-39.30
-40.97
-42.70
-44.92
-47.93
-51.63
-55.41
-58.37
-59.59
-58.63
-55.66
-51.39
-46.68
-42.14
-37.92
-33.86
-29.74
-25.58
-21.74
-18.70
-16.80
-16.06
-16.16
-16.67
-17.24
-17.71
-18.09
-18.43
-18.69
-18.83
-18.81
-18.76
-18.92
-19.63
-21.18
-23.55
-26.43
-29.10
-30.67
-30.29
-27.45
-22.17
-15.02
-7.06
0.46
6.33
9.74
10.43
8.80
5.78
2.61
0.43
-0.10
1.06
3.28
5.65
7.32
7.81
7.12
5.44
3.04
0.04
-3.55
-7.65
-12.10
-16.68
-21.27
-25.91
-30.58
-34.75
-37.11
-35.75
-28.87
-15.80
2.34
22.72
41.75
56.41
65.24
68.53
67.62
63.87
57.95
49.77
39.17
26.47
12.82
-0.20
-11.10
-19.03
-23.69
-25.17
-23.69
-19.44
-12.87
-4.80
3.58
11.00
16.58
20.04
21.73
22.33
22.50
22.73
23.32
24.50
26.39
29.04
32.24
35.57
38.48
40.59
41.76
42.21
42.28
42.24
42.09
41.59
40.36
38.22
35.30
32.05
29.03
26.64
25.02
24.04
23.42
22.90
22.31
21.53
20.48
19.00
17.00
14.45
11.44
8.13
4.65
1.04
-2.77
-6.77
-10.78
-14.39
-17.02
-18.21
-17.76
-15.90
-13.18
-10.26
-7.61
-5.44
-3.64
-1.98
-0.35
1.22
2.50
3.33
3.67
3.71
3.72
3.91
4.26
4.57
4.53
3.96
2.90
1.63
0.46
-0.43
-1.09
-1.73
-2.64
-3.97
-5.77
-7.94
-10.40
-13.06
-15.90
-18.83
-21.74
-24.47
-26.83
-28.66
-29.76
-29.94
-28.93
-26.52
-22.56
-17.16
-10.72
-3.84
2.77
8.46
12.83
15.80
17.46
18.10
17.95
17.08
15.41
12.70
8.75
3.61
-2.35
-8.47
-13.94
-18.14
-20.72
-21.65
-21.07
-19.17
-16.11
-12.06
-7.48
-3.09
0.16
1.42
0.36
-2.78
-7.22
-12.01
-16.45
-20.25
-23.49
-26.45
-29.33
-32.12
-34.64
-36.63
-37.81
-37.92
-36.74
-34.14
-30.16
-25.16
-19.65
-14.22
-9.28
-4.97
-1.14
2.46
6.05
9.63
13.05
16.10
18.64
20.68
22.33
23.64
24.65
25.30
25.60
25.57
25.37
25.16
25.06
25.08
25.10
24.90
24.27
23.06
21.18
18.68
15.71
12.52
9.39
6.55
4.05
1.74
-0.64
-3.46
-7.00
-11.44
-16.73
-22.58
-28.44
-33.63
-37.41
-39.25
-38.99
-36.91
-33.67
-30.01
-26.51
-23.37
-20.47
-17.47
-14.09
-10.37
-6.62
-3.38
-1.21
-0.47
-1.18
-3.01
-5.39
-7.73
-9.55
-10.69
-11.24
-11.43
-11.46
-11.30
-10.75
-9.50
-7.40
-4.58
-1.38
1.83
4.86
7.79
10.97
14.75
19.34
24.60
30.13
35.32
39.54
42.14
42.53
40.27
35.29
28.10
19.82
11.93
5.78
2.03
0.38
-0.30
-1.26
-3.29
-6.28
-9.32
-11.17
-10.98
-8.53
-4.30
1.06
6.96
13.08
19.12
24.60
28.76
30.86
30.56
28.29
25.21
22.74
21.95
23.13
25.56
27.99
29.14
28.30
25.51
21.46
17.07
13.05
9.74
7.12
4.97
3.07
1.37
-0.17
-1.58
-3.05
-4.84
-7.22
-10.32
-13.99
-17.90
-21.56
-24.54
-26.45
-27.16
-26.65
-25.13
-22.93
-20.44
-18.02
-15.91
-14.18
-12.80
-11.75
-10.99
-10.58
-10.49
-10.64
-10.86
-10.91
-10.68
-10.18
-9.56
-9.06
-8.81
-8.78
-8.85
-8.80
-8.50
-7.96
-7.31
-6.80
-6.70
-7.24
-8.45
-10.17
-12.07
-13.72
-14.77
-15.04
-14.66
-13.92
-13.21
-12.86
-12.98
-13.52
-14.26
-15.04
-15.82
-16.75
-17.99
-19.69
-21.77
-23.94
-25.77
-26.86
-26.96
-26.01
-24.20
-21.81
-19.13
-16.42
-13.84
-11.46
-9.28
-7.29
-5.42
-3.65
-1.95
-0.33
1.19
2.57
3.72
4.52
4.91
4.88
4.53
4.05
3.66
3.46
3.56
3.89
4.36
4.79
5.02
4.90
4.37
3.51
2.46
1.44
0.60
-0.01
-0.42
-0.71
-0.91
-1.00
-0.90
-0.60
-0.20
0.13
0.11
-0.52
-1.96
-4.40
-7.91
-12.49
-17.86
-23.52
-28.65
-32.32
-33.70
-32.36
-28.44
-22.54
-15.57
-8.38
-1.55
4.64
10.01
14.40
17.55
19.27
19.65
19.16
18.50
18.41
19.30
21.08
23.30
25.29
26.52
26.79
26.23
25.28
24.45
24.16
24.51
25.24
25.79
25.49
23.85
20.83
16.88
12.71
9.01
6.14
4.02
2.28
0.50
-1.54
-3.86
-6.37
-9.05
-12.00
-15.35
-18.99
-22.54
-25.35
-26.85
-26.84
-25.65
-23.97
-22.60
-21.99
-22.05
-22.26
-21.96
-20.69
-18.38
-15.41
-12.25
-9.30
-6.63
-4.07
-1.39
1.48
4.37
6.90
8.75
9.84
10.37
10.67
11.02
11.42
11.59
11.12
9.75
7.38
4.24
0.79
-2.49
-5.24
-7.32
-8.82
-9.95
-10.92
-11.97
-13.24
-14.95
-17.24
-20.13
-23.38
-26.41
-28.46
-28.76
-26.93
-23.10
-17.86
-12.06
-6.46
-1.55
2.52
5.84
8.61
10.98
13.05
14.83
16.28
17.38
18.16
18.68
19.03
19.26
19.36
19.25
18.88
18.23
17.43
16.57
15.76
14.95
13.94
12.52
10.51
7.96
5.09
2.23
-0.33
-2.48
-4.33
-6.23
-8.59
-11.78
-15.98
-21.03
-26.34
-31.04
-34.13
-34.85
-32.87
-28.50
-22.51
-15.89
-9.50
-3.92
0.66
4.28
7.06
9.13
10.62
11.72
12.62
13.49
14.36
15.19
15.77
15.96
15.73
15.18
14.53
13.99
13.62
13.34
12.97
12.26
10.99
9.09
6.60
3.63
0.43
-2.84
-6.06
-9.21
-12.42
-15.92
-20.02
-24.94
-30.72
-37.04
-43.21
-48.27
-51.25
-51.45
-48.59
-43.00
-35.46
-27.05
-18.80
-11.49
-5.48
-0.72
3.19
6.67
10.02
13.30
16.35
18.95
20.95
22.44
23.58
24.56
25.39
25.93
26.00
25.46
24.40
22.99
21.51
20.10
18.81
17.45
15.78
13.58
10.79
7.59
4.39
1.61
-0.59
-2.39
-4.37
-7.29
-11.74
-17.86
-25.20
-32.79
-39.41
-43.92
-45.47
-43.77
-39.16
-32.52
-25.06
-17.94
-11.90
-7.11
-3.14
0.67
4.89
9.76
15.13
20.59
25.71
30.24
34.10
37.36
40.12
42.39
44.03
44.88
44.81
43.85
42.27
40.46
38.79
37.40
36.05
34.29
31.60
27.66
22.51
16.51
10.23
4.20
-1.28
-6.11
-10.49
-14.75
-19.31
-24.55
-30.72
-37.72
-45.02
-51.74
-56.73
-58.93
-57.63
-52.76
-44.90
-35.08
-24.53
-14.36
-5.24
2.57
9.19
14.86
19.79
24.03
27.44
29.93
31.49
32.33
32.82
33.28
33.96
34.86
35.78
36.47
36.80
36.82
36.74
36.83
37.21
37.72
38.02
37.68
36.39
34.12
31.18
28.09
25.32
23.14
21.45
19.86
17.81
14.84
10.74
5.71
0.38
-4.26
-7.16
-7.41
-4.64
0.88
8.26
16.28
23.72
29.76
34.00
36.54
37.81
38.34
38.64
39.03
39.56
40.07
40.24
39.76
38.56
36.79
34.78
32.89
31.33
30.07
28.94
27.69
26.10
23.97
21.12
17.36
12.58
6.75
0.05
-7.23
-14.73
-22.21
-29.62
-37.08
-44.77
-52.67
-60.46
-67.47
-72.78
-75.60
-75.43
-72.33
-66.81
-59.75
-52.08
-44.54
-37.61
-31.53
-26.36
-22.09
-18.68
-16.01
-13.86
-11.92
-9.87
-7.46
-4.61
-1.41
1.97
5.39
8.75
12.01
15.13
17.93
20.21
21.76
22.59
22.85
22.90
23.08
23.53
24.14
24.51
24.08
22.37
19.18
14.74
9.74
5.26
2.50
2.45
5.61
11.78
20.23
29.84
39.52
48.42
56.11
62.50
67.67
71.73
74.63
76.16
76.00
73.87
69.72
63.87
56.92
49.61
42.59
36.16
30.12
23.89
16.71
8.04
-2.22
-13.62
-25.31
-36.26
-45.60
-52.82
-57.83
-60.90
-62.52
-63.25
-63.64
-64.25
-65.62
-68.22
-72.28
-77.63
-83.61
-89.21
-93.29
-94.99
-93.99
-90.58
-85.46
-79.39
-72.87
-66.06
-58.87
-51.14
-42.95
-34.66
-26.76
-19.75
-13.87
-9.09
-5.16
-1.71
1.59
4.95
8.47
12.16
15.99
19.87
23.66
27.18
30.19
32.40
33.56
33.50
32.18
29.76
26.54
22.90
19.22
15.75
12.56
9.55
6.45
2.99
-1.12
-5.99
-11.42
-16.82
-21.24
-23.62
-23.18
-19.82
-14.19
-7.45
-0.86
4.76
9.20
12.72
15.80
18.75
21.63
24.32
26.62
28.42
29.66
30.33
30.46
30.14
29.51
28.82
28.27
27.95
27.83
27.75
27.60
27.30
26.86
26.25
25.41
24.22
22.54
20.31
17.55
14.44
11.18
8.04
5.19
2.65
0.30
-2.18
-5.09
-8.70
-13.00
-17.76
-22.43
-26.26
-28.48
-28.51
-26.19
-21.83
-16.16
-10.09
-4.45
0.29
4.09
7.24
10.11
12.98
15.85
18.58
20.95
22.84
24.21
25.11
25.59
25.66
25.36
24.73
23.89
22.94
22.01
21.15
20.36
19.62
18.85
17.97
16.81
15.25
13.19
10.68
7.85
4.93
2.15
-0.36
-2.54
-4.45
-6.18
-7.93
-9.94
-12.55
-15.97
-20.12
-24.53
-28.35
-30.63
-30.65
-28.27
-23.95
-18.56
-13.01
-7.92
-3.57
0.05
3.03
5.43
7.21
8.36
8.96
9.18
9.24
9.32
9.55
9.97
10.61
11.40
12.27
13.05
13.65
14.07
14.37
14.66
14.90
14.89
14.28
12.81
10.42
7.37
4.19
1.35
-0.83
-2.41
-3.68
-5.08
-7.02
-9.72
-13.16
-17.06
-20.92
-24.03
-25.67
-25.34
-22.88
-18.64
-13.33
-7.82
-2.89
1.03
3.89
5.85
7.15
7.99
8.44
8.52
8.24
7.67
6.93
6.17
5.52
5.11
5.01
5.27
5.92
6.88
8.02
9.07
9.72
9.69
8.77
6.93
4.29
1.13
-2.16
-5.17
-7.61
-9.37
-10.57
-11.54
-12.77
-14.70
-17.51
-20.98
-24.45
-26.97
-27.63
-25.89
-21.80
-15.98
-9.50
-3.40
1.50
4.87
6.83
7.79
8.26
8.68
9.32
10.27
11.49
12.81
14.03
14.95
15.46
15.57
15.40
15.13
14.96
14.98
15.16
15.35
15.30
14.76
13.56
11.65
9.15
6.31
3.49
0.98
-1.08
-2.81
-4.50
-6.56
-9.27
-12.61
-16.22
-19.38
-21.21
-20.99
-18.34
-13.42
-6.94
0.13
6.82
12.50
17.03
20.69
23.98
27.33
30.94
34.69
38.34
41.58
44.13
45.82
46.58
46.48
45.75
44.73
43.72
42.86
42.04
40.88
38.88
35.56
30.55
23.76
15.34
5.65
-4.70
-15.01
-24.63
-33.01
-39.89
-45.23
-49.22
-52.18
-54.49
-56.57
-58.75
-61.17
-63.67
-65.74
-66.69
-65.89
-63.01
-58.18
-51.92
-44.95
-37.96
-31.41
-25.51
-20.33
-15.85
-12.12
-9.23
-7.25
-6.14
-5.68
-5.54
-5.30
-4.60
-3.22
-1.11
1.57
4.52
7.42
9.98
12.03
13.48
14.34
14.63
14.36
13.48
11.95
9.72
6.86
3.54
0.00
-3.48
-6.69
-9.50
-11.91
-14.03
-16.07
-18.28
-20.93
-24.23
-28.14
-32.35
-36.22
-38.93
-39.71
-38.09
-34.13
-28.38
-21.71
-15.04
-9.10
-4.23
-0.51
2.28
4.50
6.49
8.53
10.75
13.09
15.38
17.36
18.83
19.63
19.75
19.32
18.52
17.63
16.91
16.55
16.55
16.78
16.91
16.65
15.81
14.43
12.72
10.95
9.32
7.83
6.36
4.75
2.85
0.60
-1.96
-4.76
-7.71
-10.72
-13.71
-16.72
-19.92
-23.56
-27.85
-32.67
-37.49
-41.35
-43.21
-42.31
-38.55
-32.56
-25.43
-18.32
-12.10
-7.12
-3.34
-0.39
2.11
4.54
7.14
10.00
13.04
16.07
18.78
20.83
22.01
22.31
21.94
21.29
20.78
20.73
21.30
22.37
23.68
24.85
25.52
25.42
24.43
22.65
20.29
17.72
15.31
13.32
11.78
10.49
9.13
7.35
4.94
1.96
-1.43
-4.89
-8.20
-11.17
-13.86
-16.42
-19.20
-22.61
-26.93
-32.18
-37.94
-43.34
-47.29
-48.83
-47.49
-43.41
-37.34
-30.23
-22.99
-16.20
-10.16
-4.88
-0.27
3.77
7.41
10.77
14.00
17.13
20.09
22.72
24.82
26.31
27.25
27.81
28.21
28.63
29.17
29.82
30.52
31.14
31.52
31.52
31.03
30.05
28.63
26.89
24.93
22.85
20.61
18.15
15.40
12.29
8.85
5.14
1.27
-2.59
-6.23
-9.48
-12.20
-14.37
-16.19
-18.01
-20.33
-23.63
-28.07
-33.36
-38.73
-43.05
-45.19
-44.39
-40.54
-34.21
-26.49
-18.60
-11.50
-5.66
-1.05
2.72
6.12
9.51
12.99
16.39
19.48
22.03
23.97
25.40
26.47
27.31
27.93
28.30
28.34
28.09
27.69
27.39
27.34
27.54
27.70
27.43
26.41
24.54
22.02
19.23
16.54
14.10
11.85
9.58
7.10
4.37
1.43
-1.56
-4.51
-7.35
-10.07
-12.70
-15.34
-18.17
-21.47
-25.51
-30.34
-35.69
-40.84
-44.75
-46.41
-45.16
-40.97
-34.51
-26.87
-19.19
-12.31
-6.57
-1.89
2.03
5.34
8.05
10.02
11.22
11.84
12.27
12.93
14.06
15.57
17.17
18.49
19.33
19.72
19.81
19.85
19.92
20.02
20.01
19.69
18.88
17.46
15.36
12.59
9.29
5.71
2.18
-1.05
-3.80
-6.15
-8.34
-10.69
-13.50
-17.00
-21.27
-26.23
-31.55
-36.57
-40.42
-42.13
-41.01
-36.95
-30.49
-22.70
-14.85
-7.96
-2.56
1.30
3.88
5.51
6.44
6.90
7.11
7.37
7.93
8.85
9.98
11.00
11.66
11.88
11.86
11.94
12.38
13.17
14.02
14.44
14.00
12.51
10.04
6.85
3.30
-0.28
-3.57
-6.40
-8.70
-10.62
-12.51
-14.83
-17.94
-21.99
-26.69
-31.39
-35.15
-37.05
-36.50
-33.36
-28.02
-21.22
-13.90
-6.92
-0.92
3.79
7.19
9.45
10.82
11.54
11.79
11.75
11.51
11.19
10.88
10.66
10.61
10.74
11.00
11.31
11.60
11.84
11.99
12.03
11.87
11.37
10.34
8.64
6.26
3.35
0.14
-3.09
-6.16
-9.09
-12.11
-15.55
-19.73
-24.75
-30.27
-35.52
-39.49
-41.11
-39.75
-35.35
-28.55
-20.41
-12.07
-4.45
1.98
7.08
10.98
13.87
15.94
17.33
18.23
18.82
19.34
19.98
20.83
21.86
22.94
23.87
24.47
24.69
24.60
24.37
24.13
23.81
23.21
21.98
19.83
16.68
12.67
8.17
3.67
-0.42
-3.88
-6.75
-9.37
-12.30
-16.09
-21.02
-26.92
-32.99
-38.07
-40.91
-40.67
-37.13
-30.81
-22.77
-14.21
-6.18
0.61
5.93
9.92
12.93
15.43
17.77
20.09
22.31
24.16
25.39
25.85
25.61
24.86
23.85
22.81
21.92
21.34
21.17
21.44
22.02
22.57
22.59
21.62
19.42
16.08
12.03
7.83
4.02
0.91
-1.43
-3.24
-4.90
-6.84
-9.54
-13.32
-18.30
-24.18
-30.23
-35.35
-38.28
-38.10
-34.51
-28.05
-19.94
-11.69
-4.54
0.93
4.87
7.94
10.81
13.90
17.13
20.15
22.54
24.09
24.84
25.04
24.97
24.82
24.66
24.51
24.39
24.36
24.46
24.69
24.98
25.20
25.19
24.77
23.83
22.21
19.90
16.97
13.61
10.07
6.58
3.33
0.33
-2.49
-5.23
-8.06
-11.16
-14.71
-18.90
-23.80
-29.21
-34.54
-38.84
-41.05
-40.33
-36.43
-29.82
-21.60
-13.10
-5.48
0.60
5.03
8.15
10.44
12.34
14.19
16.17
18.39
20.95
23.84
26.91
29.92
32.51
34.41
35.48
35.80
35.64
35.29
34.98
34.75
34.47
33.94
32.96
31.43
29.43
27.13
24.73
22.40
20.20
18.00
15.55
12.50
8.55
3.59
-2.23
-8.52
-14.76
-20.53
-25.65
-30.21
-34.48
-38.66
-42.69
-46.13
-48.24
-48.26
-45.77
-40.88
-34.30
-27.08
-20.26
-14.55
-10.19
-7.06
-4.82
-3.18
-1.88
-0.72
0.48
1.87
3.47
5.11
6.44
7.10
6.82
5.66
3.87
1.88
0.06
-1.42
-2.53
-3.43
-4.35
-5.52
-7.08
-9.08
-11.45
-14.09
-16.83
-19.47
-21.83
-23.79
-25.28
-26.31
-26.98
-27.39
-27.60
-27.68
-27.62
-27.45
-27.34
-27.53
-28.37
-30.12
-32.79
-36.02
-39.13
-41.18
-41.35
-39.15
-34.58
-28.16
-20.70
-13.05
-5.93
0.22
5.26
9.27
12.52
15.31
17.89
20.38
22.76
24.92
26.74
28.17
29.21
29.92
30.34
30.46
30.28
29.84
29.25
28.60
27.95
27.25
26.33
25.07
23.40
21.42
19.33
17.34
15.57
13.99
12.43
10.69
8.68
6.42
4.08
1.85
-0.16
-2.05
-4.06
-6.50
-9.62
-13.48
-17.90
-22.53
-26.86
-30.30
-32.23
-32.20
-30.01
-25.85
-20.31
-14.18
-8.24
-2.99
1.40
5.03
8.11
10.77
13.03
14.91
16.40
17.59
18.62
19.57
20.42
21.10
21.51
21.59
21.36
20.85
20.12
19.29
18.45
17.78
17.36
17.21
17.18
17.04
16.51
15.35
13.44
10.81
7.64
4.19
0.76
-2.45
-5.30
-7.82
-10.06
-12.12
-14.15
-16.27
-18.67
-21.52
-24.87
-28.49
-31.78
-33.85
-33.86
-31.34
-26.50
-20.21
-13.72
-8.15
-4.13
-1.56
0.13
1.66
3.50
5.66
7.80
9.52
10.58
11.04
11.21
11.38
11.72
12.15
12.52
12.68
12.63
12.44
12.21
11.97
11.71
11.32
10.71
9.78
8.43
6.56
4.18
1.41
-1.43
-4.03
-6.13
-7.74
-9.14
-10.80
-13.15
-16.51
-20.83
-25.70
-30.42
-34.14
-36.08
-35.67
-32.78
-27.68
-21.09
-13.99
-7.33
-1.82
2.24
4.96
6.71
7.88
8.76
9.43
9.87
10.04
10.00
9.87
9.83
9.96
10.22
10.46
10.51
10.28
9.81
9.20
8.55
7.86
6.98
5.68
3.77
1.21
-1.79
-4.85
-7.56
-9.66
-11.24
-12.67
-14.49
-17.22
-21.07
-25.88
-31.08
-35.83
-39.22
-40.54
-39.40
-35.88
-30.40
-23.67
-16.50
-9.63
-3.60
1.29
5.03
7.76
9.73
11.15
12.23
13.09
13.86
14.58
15.28
15.91
16.42
16.74
16.88
16.95
17.09
17.44
18.01
18.61
18.90
18.56
17.42
15.54
13.26
11.05
9.34
8.31
7.80
7.36
6.44
4.57
1.52
-2.53
-7.10
-11.36
-14.34
-15.12
-13.07
-8.05
-0.55
8.43
17.57
25.64
31.73
35.47
36.97
36.66
35.11
32.85
30.23
27.46
24.62
21.69
18.63
15.35
11.82
7.99
3.95
-0.07
-3.67
-6.32
-7.59
-7.31
-5.80
-3.83
-2.40
-2.44
-4.48
-8.49
-13.95
-20.09
-26.17
-31.55
-35.89
-39.08
-41.24
-42.71
-43.87
-45.06
-46.32
-47.35
-47.51
-46.16
-42.88
-37.73
-31.27
-24.30
-17.65
-11.80
-6.90
-2.81
0.75
4.00
7.07
9.94
12.52
14.70
16.41
17.62
18.35
18.63
18.42
17.63
16.17
14.10
11.62
9.11
7.00
5.62
5.01
4.92
4.91
4.47
3.26
1.24
-1.31
-3.89
-5.99
-7.32
-7.95
-8.27
-8.85
-10.28
-13.03
-17.24
-22.70
-28.76
-34.41
-38.44
-39.76
-37.77
-32.56
-24.93
-16.07
-7.19
0.75
7.23
12.10
15.45
17.59
18.88
19.74
20.52
21.41
22.39
23.24
23.71
23.60
22.85
21.58
19.97
18.24
16.53
14.91
13.33
11.72
9.99
8.13
6.21
4.32
2.51
0.71
-1.22
-3.39
-5.81
-8.32
-10.65
-12.54
-13.86
-14.68
-15.25
-15.98
-17.32
-19.67
-23.24
-27.98
-33.46
-38.85
-43.10
-45.14
-44.28
-40.43
-34.18
-26.64
-19.03
-12.26
-6.75
-2.38
1.23
4.38
7.10
9.15
10.22
10.23
9.48
8.54
8.03
8.21
8.87
9.32
8.74
6.62
3.04
-1.31
-5.39
-8.32
-9.81
-10.34
-10.95
-12.89
-17.17
-24.29
-34.21
-46.37
-59.53
-71.73
-80.45
-83.13
-78.19
-65.84
-48.38
-29.55
-13.22
-1.99
3.49
4.29
2.22
-1.08
-4.73
-8.28
-11.29
-12.94
-12.18
-8.34
-1.66
6.62
14.60
20.53
23.48
23.64
22.08
20.21
19.16
19.27
20.19
21.15
21.47
20.93
19.83
18.80
18.51
19.30
21.15
23.70
26.44
28.87
30.68
31.79
32.35
32.59
32.73
32.83
32.72
32.06
30.50
27.81
24.06
19.58
14.76
10.01
5.50
1.26
-2.82
-6.84
-10.85
-14.79
-18.56
-22.05
-25.26
-28.27
-31.21
-34.21
-37.34
-40.62
-43.97
-47.10
-49.39
-49.90
-47.52
-41.39
-31.30
-17.96
-2.78
12.52
26.52
38.41
47.96
55.17
60.00
62.27
61.93
59.30
55.28
51.10
47.89
46.22
46.01
46.61
47.22
47.24
46.44
44.97
43.10
41.07
38.96
36.68
34.06
30.88
27.02
22.46
17.38
12.09
6.95
2.30
-1.68
-5.02
-7.90
-10.61
-13.42
-16.50
-19.85
-23.27
-26.34
-28.38
-28.72
-26.90
-22.88
-17.19
-10.72
-4.43
0.97
5.23
8.44
10.92
12.93
14.63
16.06
17.22
18.20
19.09
20.00
20.94
21.81
22.45
22.68
22.40
21.66
20.57
19.34
18.13
17.04
16.03
14.92
13.46
11.39
8.61
5.25
1.67
-1.68
-4.39
-6.29
-7.60
-8.81
-10.46
-12.97
-16.40
-20.43
-24.46
-27.72
-29.42
-29.04
-26.38
-21.77
-15.97
-10.01
-4.81
-0.92
1.72
3.56
5.18
6.93
8.80
10.49
11.71
12.41
12.86
13.50
14.70
16.60
19.09
21.80
24.24
25.84
25.95
24.00
19.59
12.75
4.18
-4.87
-12.76
-17.97
-19.52
-17.29
-11.96
-4.80
2.77
9.47
14.41
17.06
17.23
15.04
10.92
5.66
0.39
-3.66
-5.42
-4.32
-0.42
5.57
12.63
19.71
26.04
31.36
35.80
39.69
43.35
46.89
50.20
53.06
55.28
56.87
57.98
58.80
59.47
59.94
59.99
59.33
57.74
55.17
51.75
47.73
43.38
38.89
34.29
29.52
24.53
19.31
13.98
8.69
3.53
-1.60
-6.99
-13.02
-20.03
-28.10
-36.94
-45.93
-54.10
-60.43
-63.98
-64.23
-61.23
-55.62
-48.47
-40.96
-33.98
-27.99
-23.00
-18.82
-15.36
-12.77
-11.46
-11.91
-14.45
-19.19
-25.89
-33.90
-42.15
