1520869687.00
64.000000
-0.00
-0.00
-0.00
-0.00
-0.00
-0.00
-0.00
-0.00
-0.00
-0.00
0.00
0.01
0.01
-0.00
-0.03
-0.05
-0.05
0.00
0.13
0.36
0.66
1.01
1.37
1.72
2.06
2.40
2.79
3.24
3.80
4.42
5.06
5.66
6.20
6.68
7.15
7.68
8.31
9.14
10.09
11.04
11.88
12.56
13.14
13.76
14.65
15.96
17.91
20.32
22.90
25.38
27.58
29.57
31.68
34.32
37.81
42.54
48.15
54.10
59.83
64.97
69.58
74.14
79.34
85.71
93.76
103.00
112.62
121.73
129.77
136.75
143.30
150.75
157.77
166.64
177.95
191.79
206.97
220.57
228.25
225.36
208.53
176.87
132.76
80.05
23.07
-34.94
-92.44
-149.16
-205.23
-260.37
-313.74
-363.87
-409.83
-450.91
-486.50
-515.74
-537.23
-549.22
-549.96
-538.37
-514.21
-478.67
-433.88
-382.45
-327.02
-269.84
-212.63
-156.66
-102.95
-52.37
-5.90
35.58
71.43
101.35
125.50
144.38
158.69
169.15
176.37
180.75
182.57
182.07
179.51
175.23
169.65
163.18
156.15
148.81
141.30
133.69
126.02
118.33
110.69
103.16
95.80
88.68
81.83
75.25
68.95
62.95
57.25
51.86
46.78
42.03
37.59
33.45
29.61
26.07
22.81
19.83
17.11
14.67
12.48
10.54
8.83
7.35
6.07
4.97
4.05
3.27
2.62
2.09
1.65
1.30
1.01
0.79
0.61
0.47
0.37
0.28
0.22
0.18
0.15
0.12
0.11
0.11
0.12
0.13
0.15
0.18
0.21
0.24
0.28
0.32
0.37
0.41
0.46
0.51
0.56
0.61
0.66
0.72
0.78
0.85
0.92
1.00
1.09
1.19
1.30
1.42
1.55
1.71
1.88
2.07
2.28
2.51
2.78
3.06
3.38
3.72
4.11
4.52
4.97
5.46
5.98
6.54
7.15
7.80
8.49
9.23
10.01
10.84
11.71
12.63
13.59
14.61
15.70
16.84
18.05
19.31
20.59
21.85
23.01
24.00
24.69
24.96
24.68
23.76
22.11
19.73
16.63
12.88
8.65
4.12
-0.49
-4.97
-9.12
-12.78
-15.83
-18.21
-19.88
-20.83
-21.14
-20.85
-20.10
-19.00
-17.68
-16.27
-14.82
-13.37
-11.87
-10.32
-8.68
-6.97
-5.21
-3.47
-1.81
-0.26
1.24
2.83
4.53
6.40
8.43
10.53
12.51
14.20
15.53
16.59
17.71
18.95
20.50
22.35
24.34
26.12
27.36
27.88
27.93
28.07
28.55
29.69
31.50
33.64
35.43
36.14
35.36
33.24
30.49
27.38
24.30
21.28
17.81
12.90
5.10
-7.41
-26.98
-51.14
-78.75
-107.62
-134.44
-155.20
-166.45
-166.52
-156.18
-138.38
-116.94
-95.74
-76.85
-60.51
-45.94
-32.38
-19.73
-8.53
0.63
7.73
12.91
16.87
20.28
23.31
25.61
26.57
25.91
24.01
21.82
20.18
19.74
20.63
22.42
24.45
26.19
27.50
28.65
30.05
31.81
33.74
35.28
35.74
34.42
30.89
25.03
17.04
7.40
-3.19
-13.82
-23.44
-31.01
-35.75
-37.32
-35.86
-31.91
-26.23
-19.66
-12.90
-6.56
-1.08
3.24
6.18
7.75
8.09
7.55
6.61
5.75
5.34
5.52
6.12
6.77
7.08
6.87
6.29
5.74
5.67
6.47
8.35
11.23
14.83
18.66
22.12
24.65
25.94
26.00
25.13
23.83
22.38
20.77
18.65
15.47
10.77
4.46
-3.14
-11.25
-18.85
-24.90
-28.52
-29.26
-27.16
-22.75
-16.91
-10.66
-4.88
-0.16
3.30
5.61
7.08
7.97
8.48
8.65
8.47
8.00
7.34
6.71
6.25
5.92
5.56
5.00
4.23
3.43
3.01
3.29
4.34
5.93
7.63
8.93
9.47
9.00
7.53
5.24
2.51
-0.15
-2.28
-3.69
-4.60
-5.63
-7.62
-11.27
-16.82
-23.92
-31.70
-38.98
-44.62
-47.75
-47.90
-45.19
-40.16
-33.76
-27.03
-20.83
-15.64
-11.45
-7.89
-4.45
-0.80
3.10
6.96
10.29
12.70
14.09
14.67
14.89
15.20
15.74
16.42
16.90
16.97
16.60
16.01
15.53
15.35
15.41
15.44
15.03
13.86
11.73
8.71
5.04
1.13
-2.57
-5.67
-7.96
-9.56
-10.87
-12.47
-14.92
-18.51
-23.17
-28.39
-33.29
-36.91
-38.34
-37.12
-33.27
-27.25
-19.83
-11.75
-3.58
4.33
11.76
18.42
24.02
28.27
31.09
32.68
33.46
33.88
34.25
34.68
35.05
35.20
35.01
34.53
33.89
33.33
32.96
32.82
32.74
32.48
31.77
30.52
28.73
26.51
23.93
20.97
17.50
13.47
8.94
4.13
-0.63
-5.12
-9.27
-13.22
-17.22
-21.59
-26.52
-32.08
-38.06
-43.95
-48.98
-52.22
-52.93
-50.82
-46.14
-39.61
-32.13
-24.45
-17.07
-10.25
-4.08
1.38
6.11
10.12
13.51
16.38
18.74
20.54
21.66
22.08
21.96
21.62
21.43
21.66
22.45
23.73
25.31
26.86
28.06
28.61
28.32
27.18
25.37
23.17
20.88
18.72
16.85
15.25
13.85
12.45
10.79
8.63
5.83
2.42
-1.39
-5.27
-8.94
-12.22
-15.11
-17.73
-20.30
-23.00
-26.14
-29.94
-34.56
-39.98
-45.92
-51.85
-56.94
-60.28
-61.01
-58.64
-53.16
-45.16
-35.71
-26.00
-17.02
-9.35
-3.04
2.14
6.44
10.00
12.85
14.94
16.41
17.48
18.40
19.31
20.19
20.97
21.62
22.28
23.12
24.39
26.10
28.09
30.02
31.49
32.25
32.25
31.65
30.79
29.99
29.45
29.18
28.95
28.41
27.25
25.34
22.77
19.79
16.77
13.95
11.44
9.12
6.75
4.09
1.03
-2.32
-5.73
-8.94
-11.83
-14.48
-17.12
-20.09
-23.61
-27.84
-32.77
-38.34
-44.36
-50.48
-56.14
-60.53
-62.72
-62.03
-58.17
-51.47
-42.78
-33.21
-23.86
-15.47
-8.38
-2.61
1.97
5.50
8.13
10.00
11.40
12.60
13.85
15.22
16.60
17.83
18.78
19.52
20.23
21.16
22.48
24.20
26.19
28.23
30.09
31.52
32.27
32.24
31.44
30.11
28.60
27.22
26.05
24.95
23.63
21.82
19.51
16.86
14.17
11.69
9.56
7.71
5.92
3.86
1.27
-1.95
-5.65
-9.49
-13.11
-16.29
-19.17
-22.13
-25.58
-29.78
-34.67
-39.97
-45.19
-49.88
-53.54
-55.62
-55.45
-52.53
-46.79
-38.77
-29.64
-20.71
-13.00
-6.87
-2.08
1.95
5.64
9.14
12.25
14.69
16.28
16.96
16.89
16.31
15.51
14.90
14.89
15.82
17.75
20.42
23.27
25.73
27.43
28.38
28.86
29.18
29.47
29.60
29.26
28.15
26.21
23.67
20.91
18.30
16.00
13.92
11.81
9.50
6.89
4.03
1.07
-1.88
-4.69
-7.29
-9.59
-11.60
-13.47
-15.51
-18.13
-21.69
-26.36
-31.96
-37.99
-43.69
-48.18
-50.57
-50.16
-46.73
-40.62
-32.75
-24.31
-16.35
-9.41
-3.53
1.50
5.88
9.52
12.15
13.56
13.90
13.62
13.33
13.40
13.83
14.33
14.54
14.39
14.10
14.09
14.70
16.01
17.90
19.99
21.82
23.04
23.37
22.77
21.37
19.49
17.43
15.44
13.54
11.60
9.44
6.91
3.96
0.65
-2.89
-6.49
-9.97
-13.18
-16.05
-18.63
-21.14
-23.89
-27.24
-31.47
-36.66
-42.51
-48.28
-52.97
-55.52
-55.31
-52.26
-46.95
-40.31
-33.16
-25.97
-18.86
-11.85
-5.14
0.83
5.52
8.62
10.22
10.79
10.85
10.78
10.72
10.68
10.65
10.75
11.21
12.20
13.81
15.94
18.30
20.52
22.27
23.42
23.93
23.94
23.54
22.84
21.82
20.49
18.83
16.85
14.64
12.30
9.97
7.73
5.56
3.28
0.65
-2.56
-6.33
-10.38
-14.17
-17.25
-19.46
-21.06
-22.64
-24.81
-27.98
-32.26
-37.47
-43.21
-48.89
-53.76
-56.87
-57.30
-54.45
-48.32
-39.63
-29.61
-19.57
-10.45
-2.76
3.45
8.35
12.10
14.84
16.71
17.92
18.75
19.47
20.31
21.33
22.52
23.77
25.01
26.15
27.14
27.95
28.55
28.97
29.26
29.46
29.52
29.40
29.02
28.27
27.17
25.75
24.09
22.24
20.17
17.80
15.13
12.24
9.37
6.76
4.60
2.86
1.31
-0.38
-2.47
-5.02
-7.93
-11.01
-14.13
-17.36
-20.91
-25.10
-30.09
-35.72
-41.39
-46.04
-48.47
-47.69
-43.37
-35.91
-26.37
-16.07
-6.24
2.37
9.48
15.15
19.59
22.86
24.96
25.86
25.72
24.90
23.83
22.94
22.41
22.21
22.16
22.16
22.27
22.75
23.87
25.69
27.90
29.88
30.94
30.65
29.03
26.52
23.71
21.10
18.84
16.77
14.57
12.01
9.04
5.80
2.47
-0.85
-4.10
-7.34
-10.55
-13.75
-16.97
-20.34
-24.08
-28.39
-33.39
-38.94
-44.57
-49.52
-52.91
-53.90
-51.96
-47.06
-39.66
-30.53
-20.61
-10.75
-1.63
6.21
12.42
16.78
19.30
20.16
19.77
18.63
17.29
16.18
15.61
15.59
16.00
16.61
17.20
17.71
18.23
18.87
19.62
20.33
20.68
20.34
19.15
17.17
14.65
11.97
9.44
7.19
5.11
2.91
0.26
-3.03
-6.89
-11.00
-14.89
-18.18
-20.73
-22.80
-24.90
-27.66
-31.50
-36.48
-42.17
-47.69
-51.92
-53.73
-52.37
-47.67
-40.17
-30.89
-21.07
-11.77
-3.62
3.26
9.06
14.07
18.39
21.93
24.55
26.12
26.70
26.48
25.77
24.85
23.97
23.28
22.88
22.79
22.96
23.22
23.38
23.24
22.73
21.89
20.84
19.70
18.48
17.15
15.58
13.75
11.57
9.07
6.28
3.27
0.15
-2.97
-6.06
-9.14
-12.32
-15.84
-19.93
-24.79
-30.38
-36.31
-41.80
-45.81
-47.31
-45.62
-40.65
-32.96
-23.61
-13.81
-4.62
3.28
9.57
14.26
17.57
19.83
21.40
22.58
23.51
24.19
24.52
24.44
24.11
23.79
23.76
24.17
24.89
25.63
26.03
25.86
25.06
23.73
21.94
19.76
17.18
14.17
10.75
6.98
2.96
-1.21
-5.41
-9.52
-13.46
-17.17
-20.69
-24.16
-27.77
-31.64
-35.81
-40.10
-44.09
-47.15
-48.51
-47.51
-43.82
-37.65
-29.64
-20.75
-11.92
-3.72
3.54
9.82
15.06
19.09
21.64
22.59
22.10
20.68
19.06
17.90
17.52
17.78
18.20
18.20
17.45
15.97
14.16
12.49
11.33
10.75
10.53
10.31
9.77
8.71
7.15
5.16
2.91
0.64
-1.35
-2.84
-3.71
-4.12
-4.44
-5.20
-6.86
-9.59
-13.17
-17.05
-20.48
-22.75
-23.25
-21.63
-17.86
-12.14
-4.97
3.08
11.46
19.68
27.30
33.79
38.63
41.37
41.89
40.52
38.08
35.52
33.69
32.91
32.92
33.15
32.96
32.00
30.23
27.96
25.59
23.36
21.32
19.28
16.96
14.18
10.93
7.37
3.73
0.21
-3.17
-6.48
-9.92
-13.65
-17.85
-22.60
-27.91
-33.54
-39.08
-43.86
-47.14
-48.37
-47.28
-44.02
-38.98
-32.75
-25.92
-19.07
-12.74
-7.33
-3.12
-0.16
1.65
2.48
2.55
2.09
1.33
0.55
0.09
0.21
1.04
2.56
4.54
6.72
8.88
10.88
12.65
14.06
14.83
14.62
13.11
10.27
6.41
2.16
-1.88
-5.40
-8.48
-11.68
-15.66
-20.93
-27.63
-35.35
-43.11
-49.44
-52.67
-51.32
-44.71
-33.26
-18.60
-3.04
11.17
22.54
30.69
36.11
39.60
41.81
43.09
43.45
42.88
41.27
38.48
34.25
28.45
21.35
13.86
7.54
4.05
4.53
9.05
16.56
25.31
33.47
39.70
43.26
43.88
41.43
35.77
26.78
14.58
-0.25
-16.64
-33.22
-48.71
-62.18
-73.21
-81.62
-87.31
-90.11
-89.83
-86.51
-80.64
-73.14
-65.06
-57.19
-49.78
-42.63
-35.43
-28.11
-21.05
-14.85
-9.98
-6.54
-4.23
-2.49
-0.72
1.41
4.17
7.69
12.15
17.59
23.91
30.77
37.64
44.09
49.88
55.13
60.23
65.65
71.79
78.65
85.88
92.80
98.51
102.14
103.03
100.93
96.11
89.42
82.14
75.62
70.90
68.41
67.85
68.45
69.31
69.80
69.73
69.23
68.60
67.92
67.01
65.38
62.54
58.13
52.06
44.51
35.77
26.11
15.69
4.62
-6.86
-18.29
-29.02
-38.46
-46.31
-52.74
-58.18
-63.07
-67.42
-70.75
-72.27
-71.31
-67.73
-62.03
-55.24
-48.61
-43.23
-39.92
-38.97
-40.31
-43.39
-47.23
-50.58
-52.18
-51.07
-46.97
-40.34
-32.23
-23.89
-16.33
-10.10
-5.27
-1.60
1.22
3.48
5.35
6.93
8.33
9.59
10.74
11.71
12.41
12.75
12.77
12.54
12.09
11.40
10.28
8.51
5.92
2.55
-1.35
-5.30
-8.71
-11.06
-12.15
-12.14
-11.61
-11.37
-12.37
-15.31
-20.47
-27.52
-35.46
-42.86
-48.21
-50.33
-48.79
-43.99
-36.99
-29.20
-21.97
-16.20
-12.19
-9.69
-8.08
-6.67
-4.94
-2.64
0.14
3.08
5.76
7.76
8.72
8.39
6.62
3.47
-0.83
-5.83
-10.85
-15.19
-18.19
-19.49
-19.08
-17.39
-15.13
-13.10
-11.90
-11.72
-12.40
-13.59
-14.88
-16.02
-16.74
-16.75
-15.63
-12.99
-8.68
-2.85
4.02
11.43
18.99
26.54
34.11
41.72
49.28
56.57
63.26
68.95
73.08
74.96
73.91
69.44
61.65
51.44
40.43
30.57
23.57
20.34
20.74
23.65
27.31
29.89
29.94
26.73
20.39
11.85
2.44
-6.40
-13.54
-18.45
-21.32
-23.06
-25.06
-28.65
-34.69
-43.02
-52.42
-60.95
-66.56
-67.86
-64.58
-57.57
-48.48
-39.11
-30.91
-24.73
-20.75
-18.72
-18.12
-18.37
-18.93
-19.45
-19.81
-20.08
-20.42
-21.00
-21.94
-23.28
-24.96
-26.88
-28.86
-30.66
-31.96
-32.45
-31.88
-30.08
-27.08
-23.23
-19.14
-15.69
-13.70
-13.73
-15.80
-19.33
-23.31
-26.63
-28.32
-27.84
-25.01
-20.09
-13.55
-6.15
1.29
7.97
13.28
17.07
19.53
21.13
22.30
23.25
23.85
23.81
22.80
20.71
17.66
14.02
10.09
6.08
2.06
-2.00
-6.15
-10.38
-14.57
-18.46
-21.67
-23.81
-24.52
-23.71
-21.62
-18.72
-15.61
-12.77
-10.39
-8.44
-6.79
-5.41
-4.48
-4.24
-4.71
-5.57
-6.19
-5.87
-4.15
-1.01
3.12
7.64
11.95
15.67
18.58
20.61
21.77
22.09
21.71
20.78
19.52
18.11
16.73
15.48
14.40
13.44
12.48
11.35
9.96
8.43
7.04
6.22
6.28
7.30
8.99
10.83
12.28
12.97
12.90
12.36
11.83
11.74
12.32
13.44
14.68
15.42
15.05
13.21
9.96
5.70
1.15
-2.96
-6.03
-7.68
-7.81
-6.47
-3.89
-0.37
3.69
7.83
11.58
14.58
16.67
17.87
18.34
18.30
17.85
17.04
15.90
14.42
12.62
10.52
8.16
5.60
3.01
0.60
-1.29
-2.35
-2.32
-1.09
1.26
4.41
7.83
10.88
12.96
13.65
12.78
10.41
6.85
2.49
-2.23
-6.81
-10.70
-13.32
-14.22
-13.19
-10.38
-6.25
-1.43
3.48
8.04
11.96
15.08
17.29
18.46
18.56
17.61
15.74
13.22
10.31
7.23
4.12
1.05
-1.90
-4.65
-7.03
-8.91
-10.23
-11.05
-11.51
-11.83
-12.16
-12.63
-13.33
-14.37
-15.90
-18.04
-20.78
-23.88
-26.95
-29.52
-31.27
-32.22
-32.69
-33.08
-33.63
-34.28
-34.63
-34.15
-32.41
-29.20
-24.64
-19.04
-12.87
-6.57
-0.62
4.54
8.51
11.02
12.03
11.74
10.55
8.90
7.19
5.60
4.17
2.89
1.68
0.59
-0.35
-1.08
-1.60
-1.92
-2.07
-2.11
-2.17
-2.43
-3.11
-4.36
-6.14
-8.32
-10.66
-13.11
-15.80
-18.99
-22.89
-27.33
-31.72
-35.12
-36.60
-35.59
-32.00
-26.27
-19.16
-11.63
-4.56
1.35
5.70
8.51
10.14
11.07
11.76
12.36
12.70
12.47
11.47
9.84
7.97
6.35
5.32
4.90
4.92
5.11
5.33
5.51
5.61
5.43
4.77
3.38
1.20
-1.60
-4.78
-8.11
-11.52
-15.10
-18.92
-23.01
-27.16
-30.96
-33.91
-35.44
-35.09
-32.57
-27.83
-21.18
-13.19
-4.63
3.74
11.31
17.73
22.82
26.51
28.71
29.41
28.70
26.93
24.63
22.40
20.68
19.56
18.84
18.09
17.02
15.53
13.77
11.99
10.44
9.24
8.36
7.69
7.06
6.35
5.41
4.18
2.63
0.74
-1.57
-4.43
-8.01
-12.43
-17.67
-23.43
-29.21
-34.33
-37.99
-39.43
-38.10
-33.77
-26.71
-17.70
-7.84
1.70
10.03
16.70
21.71
25.29
27.68
29.03
29.47
29.13
28.25
27.09
25.85
24.63
23.49
22.48
21.75
21.40
21.42
21.72
22.07
22.23
22.02
21.33
20.13
18.49
16.52
14.38
12.20
9.98
7.59
4.83
1.60
-1.99
-5.57
-8.68
-11.08
-12.85
-14.44
-16.43
-19.27
-23.06
-27.51
-32.01
-35.77
-37.99
-37.95
-35.25
-29.79
-21.94
-12.40
-2.18
7.69
16.35
23.21
28.06
30.98
32.31
32.52
32.07
31.33
30.55
29.83
29.12
28.38
27.55
26.63
25.69
24.81
24.04
23.44
23.01
22.74
22.58
22.48
22.31
21.88
21.03
19.66
17.81
15.67
13.50
11.51
9.72
7.98
6.02
3.61
0.68
-2.64
-6.11
-9.44
-12.43
-15.05
-17.45
-19.88
-22.65
-25.94
-29.65
-33.25
-35.89
-36.62
-34.67
-29.84
-22.52
-13.67
-4.41
4.18
11.44
17.01
20.85
23.06
23.84
23.46
22.28
20.72
19.11
17.70
16.57
15.62
14.73
13.89
13.18
12.76
12.79
13.27
14.04
14.79
15.23
15.17
14.61
13.70
12.68
11.72
10.91
10.17
9.38
8.47
7.42
6.23
4.86
3.21
1.15
-1.35
-4.09
-6.71
-8.86
-10.42
-11.64
-13.05
-15.21
-18.43
-22.57
-27.19
-31.66
-35.36
-37.79
-38.53
-37.25
-33.79
-28.29
-21.29
-13.60
-6.08
0.64
6.29
10.87
14.39
16.72
17.71
17.32
15.87
13.99
12.43
11.68
11.81
12.51
13.36
14.07
14.60
15.04
15.42
15.61
15.38
14.57
13.26
11.70
10.23
9.03
8.00
6.87
5.41
3.61
1.78
0.33
-0.42
-0.57
-0.54
-0.94
-2.18
-4.31
-6.93
-9.50
-11.63
-13.25
-14.66
-16.27
-18.48
-21.43
-25.10
-29.27
-33.51
-37.25
-39.73
-40.22
-38.22
-33.72
-27.17
-19.46
-11.63
-4.52
1.27
5.51
8.22
9.59
9.91
9.58
9.01
8.55
8.38
8.48
8.62
8.61
8.36
8.04
7.97
8.40
9.42
10.81
12.16
13.02
13.06
12.26
10.85
9.23
7.79
6.72
5.96
5.16
3.88
1.81
-1.09
-4.52
-8.02
-11.11
-13.51
-15.22
-16.44
-17.56
-18.99
-21.09
-24.09
-27.88
-32.02
-35.69
-37.94
-37.90
-35.14
-29.81
-22.63
-14.65
-6.91
-0.23
4.99
8.76
11.34
13.00
13.98
14.32
14.10
13.47
12.73
12.26
12.35
13.02
13.99
14.85
15.27
15.24
15.11
15.31
16.13
17.46
18.78
19.43
18.95
17.33
15.01
12.58
10.52
8.89
7.44
5.79
3.71
1.29
-1.20
-3.41
-5.23
-6.76
-8.29
-10.14
-12.42
-14.99
-17.52
-19.73
-21.51
-23.10
-24.97
-27.69
-31.61
-36.62
-42.11
-47.12
-50.60
-51.77
-50.26
-46.19
-40.03
-32.42
-24.10
-15.74
-7.93
-1.14
4.35
8.48
11.38
13.33
14.68
15.73
16.70
17.67
18.62
19.46
20.08
20.41
20.43
20.24
20.06
20.16
20.69
21.64
22.74
23.62
23.90
23.46
22.40
20.97
19.39
17.78
16.12
14.39
12.62
10.94
9.49
8.30
7.22
5.99
4.32
2.11
-0.57
-3.51
-6.43
-9.17
-11.74
-14.19
-16.65
-19.17
-21.76
-24.38
-27.08
-30.03
-33.46
-37.51
-42.04
-46.51
-50.08
-51.84
-51.06
-47.49
-41.40
-33.46
-24.59
-15.65
-7.35
-0.16
5.68
10.13
13.24
15.13
16.02
16.17
15.90
15.53
15.40
15.73
16.64
18.06
19.80
21.61
23.25
24.59
25.62
26.38
26.95
27.35
27.51
27.28
26.50
25.12
23.29
21.29
19.42
17.92
16.77
15.78
14.65
13.14
11.21
8.99
6.71
4.53
2.47
0.34
-2.10
-4.98
-8.20
-11.41
-14.19
-16.27
-17.75
-19.07
-20.94
-23.95
-28.33
-33.82
-39.74
-45.12
-48.99
-50.62
-49.59
-45.88
-39.83
-32.04
-23.31
-14.48
-6.28
0.80
6.63
11.34
15.14
18.21
20.51
21.92
22.36
21.96
21.08
20.20
19.68
19.66
20.01
20.56
21.26
22.22
23.61
25.48
27.64
29.71
31.26
31.95
31.66
30.47
28.69
26.68
24.82
23.32
22.14
21.05
19.68
17.76
15.22
12.28
9.28
6.53
4.10
1.90
-0.27
-2.57
-5.09
-7.79
-10.66
-13.59
-16.44
-19.00
-21.19
-23.02
-24.89
-27.36
-30.99
-36.05
-42.34
-49.15
-55.47
-60.24
-62.64
-62.22
-58.89
-52.85
-44.63
-34.97
-24.75
-14.85
-6.00
1.42
7.34
12.00
15.71
18.67
20.96
22.50
23.28
23.47
23.40
23.49
24.01
25.04
26.38
27.80
29.11
30.29
31.40
32.52
33.58
34.38
34.63
34.15
32.94
31.20
29.22
27.29
25.55
23.97
22.41
20.73
18.90
16.95
15.02
13.23
11.66
10.27
8.93
7.49
5.78
3.84
1.73
-0.40
-2.52
-4.70
-7.11
-9.90
-13.08
-16.46
-19.79
-22.89
-25.79
-28.68
-31.89
-35.68
-40.17
-45.26
-50.53
-55.26
-58.49
-59.27
-57.01
-51.72
-44.07
-35.11
-25.88
-17.11
-9.06
-1.79
4.66
10.09
14.21
16.94
18.46
19.27
19.89
20.73
21.84
23.08
24.25
25.31
26.46
28.02
30.18
32.88
35.72
38.05
39.38
39.43
38.33
36.52
34.46
32.51
30.74
29.07
27.34
25.49
23.55
21.62
19.75
17.87
15.87
13.68
11.31
8.94
6.85
5.25
4.19
3.49
2.76
1.55
-0.47
-3.33
-6.79
-10.45
-13.90
-16.87
-19.33
-21.45
-23.49
-25.82
-28.75
-32.59
-37.45
-43.12
-49.00
-54.06
-57.14
-57.21
-53.72
-46.76
-37.13
-26.00
-14.70
-4.28
4.59
11.72
17.15
21.07
23.65
25.02
25.42
25.18
24.78
24.66
25.15
26.28
27.83
29.51
30.98
32.13
32.99
33.65
34.23
34.72
34.99
34.86
34.13
32.75
30.87
28.72
26.61
24.73
23.09
21.58
20.09
18.55
16.95
15.36
13.78
12.20
10.50
8.61
6.51
4.29
2.10
0.08
-1.70
-3.30
-4.93
-6.82
-9.17
-12.04
-15.20
-18.34
-21.12
-23.41
-25.37
-27.40
-29.95
-33.45
-38.03
-43.60
-49.73
-55.81
-61.03
-64.49
-65.41
-63.22
-57.77
-49.47
-39.20
-28.17
-17.57
-8.30
-0.79
4.98
9.40
12.85
15.57
17.56
18.72
19.04
18.77
18.35
18.28
18.85
20.08
21.75
23.51
25.10
26.38
27.35
28.04
28.55
28.98
29.38
29.75
30.05
30.13
29.84
29.10
27.88
26.24
24.25
22.02
19.71
17.49
15.57
14.07
12.93
11.95
10.81
9.27
7.29
5.02
2.70
0.43
-1.82
-4.23
-6.95
-10.03
-13.29
-16.53
-19.51
-22.21
-24.72
-27.30
-30.25
-33.84
-38.21
-43.34
-48.93
-54.36
-58.82
-61.27
-60.82
-56.99
-49.88
-40.30
-29.48
-18.76
-9.20
-1.38
4.66
9.17
12.52
15.05
16.91
18.20
18.96
19.30
19.38
19.47
19.81
20.52
21.58
22.81
23.98
24.97
25.88
26.91
28.19
29.66
30.96
31.57
31.11
29.53
27.13
24.43
21.95
19.91
18.26
16.71
14.95
12.75
10.08
7.14
4.26
1.80
-0.04
-1.34
-2.40
-3.61
-5.25
-7.36
-9.80
-12.37
-14.90
-17.30
-19.60
-21.80
-23.98
-26.37
-29.28
-33.08
-37.91
-43.40
-48.69
-52.62
-54.11
-52.57
-47.97
-40.89
-32.22
-22.92
-13.82
-5.54
1.62
7.53
12.21
15.71
18.07
19.34
19.69
19.46
19.12
19.09
19.59
20.55
21.70
22.77
23.67
24.56
25.66
27.10
28.77
30.28
31.19
31.14
30.07
28.19
25.86
23.48
21.32
19.48
17.86
16.32
14.72
12.91
10.85
8.50
5.92
3.24
0.62
-1.78
-3.93
-5.91
-7.97
-10.39
-13.34
-16.77
-20.45
-23.99
-27.16
-29.89
-32.45
-35.29
-38.83
-43.29
-48.57
-54.05
-58.85
-62.00
-62.62
-60.32
-55.17
-47.76
-39.02
-29.89
-21.09
-13.05
-5.91
0.28
5.47
9.49
12.27
13.86
14.57
14.87
15.24
16.01
17.21
18.66
20.14
21.43
22.51
23.43
24.28
25.08
25.79
26.31
26.40
25.92
24.77
23.02
20.91
18.79
16.97
15.67
14.82
14.15
13.33
12.12
10.46
8.47
6.41
4.48
2.78
1.22
-0.43
-2.42
-4.93
-7.95
-11.32
-14.77
-18.05
-21.10
-24.08
-27.23
-30.83
-35.11
-40.15
-45.78
-51.54
-56.65
-60.09
-60.88
-58.40
-52.67
-44.37
-34.64
-24.68
-15.41
-7.23
-0.20
5.78
10.70
14.46
16.99
18.40
19.04
19.34
19.63
20.02
20.47
20.88
21.27
21.82
22.71
24.02
25.65
27.33
28.70
29.50
29.61
29.07
28.05
26.80
25.55
24.45
23.50
22.52
21.27
19.54
17.35
14.84
12.28
9.83
7.42
4.80
1.76
-1.76
-5.50
-9.04
-11.99
-14.20
-15.91
-17.64
-19.99
-23.40
-27.96
-33.40
-39.17
-44.48
-48.59
-50.82
-50.73
-48.16
-43.26
-36.45
-28.33
-19.59
-10.90
-2.77
4.46
10.63
15.73
19.77
22.70
24.54
25.38
25.47
25.18
24.88
24.87
25.25
26.00
26.99
28.02
28.95
29.61
29.88
29.72
29.19
28.46
27.69
26.92
26.03
24.77
22.95
20.56
17.78
14.96
12.44
10.34
8.61
6.98
5.10
2.70
-0.29
-3.75
-7.41
-10.95
-14.15
-17.00
-19.71
-22.71
-26.52
-31.52
-37.79
-44.91
-51.98
-57.69
-60.71
-60.16
-55.89
-48.54
-39.28
-29.38
-19.74
-10.76
-2.53
4.87
11.19
16.05
19.21
20.88
21.64
22.27
23.30
24.83
26.51
27.91
28.73
29.03
29.20
29.66
30.68
32.23
34.04
35.71
36.87
37.19
36.50
34.76
32.14
28.97
25.72
22.88
20.82
19.61
19.03
18.64
17.98
16.68
14.62
11.85
8.63
5.32
2.28
-0.16
-1.86
-2.97
-3.85
-4.99
-6.81
-9.52
-13.05
-17.17
-21.54
-25.88
-30.02
-33.92
-37.63
-41.38
-45.46
-50.05
-55.10
-60.05
-63.96
-65.74
-64.46
-59.84
-52.27
-42.74
-32.44
-22.44
-13.42
-5.64
0.90
6.35
10.78
14.24
16.84
18.75
20.21
21.51
22.82
24.16
25.40
26.40
27.05
27.42
27.64
27.93
28.41
29.15
30.03
30.83
31.29
31.22
30.49
29.12
27.29
25.20
23.02
20.86
18.73
16.60
14.46
12.38
10.44
8.68
7.05
5.43
3.71
1.79
-0.29
-2.50
-4.86
-7.35
-10.00
-12.77
-15.58
-18.36
-21.21
-24.35
-28.14
-32.83
-38.34
-44.21
-49.57
-53.35
-54.56
-52.59
-47.41
-39.59
-30.10
-20.07
-10.43
-1.76
5.69
11.92
16.97
20.90
23.73
25.56
26.60
27.14
27.55
28.05
28.67
29.30
29.72
29.82
29.65
29.42
29.42
29.80
30.56
31.43
32.05
32.09
31.42
30.08
28.25
26.11
23.76
21.22
18.52
15.73
12.98
10.44
8.18
6.16
4.14
1.82
-1.08
-4.62
-8.66
-12.87
-16.83
-20.25
-23.03
-25.32
-27.48
-30.04
-33.46
-37.97
-43.33
-48.74
-53.02
-54.91
-53.58
-48.91
-41.51
-32.54
-23.24
-14.58
-7.07
-0.74
4.63
9.37
13.61
17.28
20.16
22.10
23.12
23.52
23.73
24.17
25.01
26.12
27.22
28.07
28.66
29.18
29.85
30.77
31.76
32.49
32.56
31.76
30.06
27.69
25.01
22.34
19.92
17.87
16.17
14.73
13.44
12.17
10.80
9.23
7.39
5.33
3.18
1.12
-0.68
-2.22
-3.69
-5.40
-7.57
-10.24
-13.21
-16.16
-18.83
-21.17
-23.28
-25.39
-27.80
-30.77
-34.55
-39.28
-44.93
-51.05
-56.78
-60.94
-62.36
-60.35
-54.90
-46.78
-37.19
-27.45
-18.51
-10.91
-4.73
0.30
4.49
8.08
11.15
13.66
15.50
16.68
17.38
17.94
18.67
19.67
20.87
22.01
22.94
23.66
24.41
25.45
26.77
28.09
28.93
28.90
27.96
26.43
24.80
23.48
22.52
21.69
20.62
19.03
16.94
14.53
12.12
9.89
7.89
6.07
4.24
2.29
0.16
-2.16
-4.61
-7.17
-9.83
-12.58
-15.33
-17.94
-20.24
-22.25
-24.21
-26.53
-29.72
-34.11
-39.62
-45.70
-51.40
-55.60
-57.32
-55.99
-51.63
-44.77
-36.30
-27.24
-18.45
-10.52
-3.75
1.76
5.99
9.02
10.99
12.20
12.99
13.63
14.29
15.01
15.79
16.78
18.22
20.32
23.14
26.40
29.57
32.07
33.51
33.84
33.29
32.17
30.77
29.18
27.44
25.55
23.61
21.74
19.99
18.30
16.47
14.33
11.78
9.02
6.38
4.22
2.68
1.59
0.54
-0.92
-3.02
-5.68
-8.59
-11.42
-14.04
-16.66
-19.74
-23.75
-28.83
-34.70
-40.64
-45.66
-48.87
-49.72
-48.08
-44.24
-38.74
-32.20
-25.11
-17.90
-10.82
-4.10
2.09
7.52
12.03
15.46
17.76
19.00
19.37
19.15
18.62
18.00
17.43
16.95
16.61
16.50
16.72
17.33
18.29
19.38
20.38
21.08
21.39
21.36
21.11
20.77
20.34
19.75
18.80
17.29
15.15
12.39
9.22
5.94
2.87
0.19
-2.08
-4.08
-5.99
-7.94
-9.92
-11.84
-13.66
-15.47
-17.52
-20.09
-23.42
-27.62
-32.54
-37.90
-43.22
-47.85
-51.05
-52.10
-50.54
-46.31
-39.88
-32.02
-23.71
-15.73
-8.62
-2.62
2.27
6.09
8.95
10.96
12.27
13.01
13.34
13.41
13.35
13.30
13.37
13.66
14.24
15.16
16.37
17.73
19.04
20.07
20.67
20.82
20.54
19.89
18.87
17.49
15.83
14.05
12.37
10.96
9.82
8.79
7.65
6.20
4.39
2.34
0.20
-1.88
-3.90
-5.95
-8.19
-10.71
-13.55
-16.60
-19.65
-22.46
-24.94
-27.13
-29.35
-32.06
-35.59
-39.95
-44.73
-49.12
-52.16
-53.06
-51.34
-47.03
-40.55
-32.60
-23.91
-15.18
-6.94
0.42
6.65
11.62
15.28
17.68
18.97
19.39
19.30
19.04
18.90
19.09
19.66
20.62
21.93
23.49
25.13
26.60
27.69
28.25
28.41
28.39
28.44
28.61
28.69
28.31
27.17
25.22
22.71
19.94
17.16
14.42
11.65
8.76
5.82
2.94
0.25
-2.23
-4.60
-7.02
-9.60
-12.43
-15.52
-18.85
-22.38
-26.09
-29.90
-33.81
-37.74
-41.48
-44.57
-46.34
-46.08
-43.40
-38.45
-31.87
-24.51
-17.13
-10.03
-3.24
3.31
9.45
14.68
18.41
20.28
20.38
19.30
17.84
16.73
16.32
16.65
17.49
18.60
19.81
21.06
22.36
23.70
24.98
26.07
26.76
26.89
26.33
25.06
23.12
20.70
17.98
15.19
12.45
9.91
7.62
5.62
3.87
2.20
0.33
-2.02
-5.05
-8.65
-12.45
-15.92
-18.70
-20.70
-22.32
-24.15
-26.80
-30.67
-35.78
-41.78
-47.95
-53.46
-57.37
-58.94
-57.70
-53.57
-46.93
-38.46
-29.01
-19.40
-10.39
-2.47
4.10
9.29
13.28
16.33
18.62
20.17
20.94
20.94
20.42
19.80
19.57
20.07
21.31
23.05
24.90
26.55
27.90
28.97
29.79
30.32
30.40
29.85
28.64
26.83
24.62
22.25
19.85
17.54
15.42
13.59
12.10
10.91
9.74
8.23
5.97
2.83
-1.01
-5.13
-8.98
-12.20
-14.69
-16.65
-18.51
-20.75
-23.78
-27.83
-32.87
-38.53
-44.11
-48.68
-51.28
-51.22
-48.27
-42.71
-35.32
-27.05
-18.84
-11.36
-4.95
0.40
4.87
8.64
11.77
14.21
15.93
17.01
17.74
18.48
19.50
20.87
22.45
24.05
25.58
27.07
28.59
30.08
31.24
31.63
30.91
29.04
26.40
23.65
21.38
19.93
19.19
18.67
17.79
16.09
13.46
10.11
6.52
3.19
0.46
-1.61
-3.20
-4.63
-6.22
-8.10
-10.28
-12.57
-14.81
-16.90
-18.93
-21.14
-23.87
-27.36
-31.77
-36.99
-42.67
-48.16
-52.58
-55.00
-54.55
-50.80
-43.87
-34.55
-24.05
-13.73
-4.70
2.50
7.92
11.99
15.18
17.79
19.84
21.22
21.95
22.24
22.52
23.22
24.58
26.54
28.77
30.80
32.30
33.17
33.51
33.52
33.37
33.06
32.45
31.33
29.50
26.95
23.88
20.70
17.85
15.57
13.81
12.19
10.29
7.76
4.55
0.90
-2.87
-6.48
-9.76
-12.72
-15.41
-17.83
-20.04
-22.21
-24.69
-27.95
-32.38
-38.01
-44.29
-50.12
-54.16
-55.29
-52.94
-47.30
-39.21
-29.75
-20.03
-10.87
-2.75
4.11
9.70
14.06
17.30
19.47
20.71
21.20
21.20
21.06
21.08
21.48
22.26
23.27
24.28
25.21
26.10
27.16
28.53
30.14
31.70
32.71
32.69
31.44
29.13
26.16
23.06
20.16
17.58
15.24
13.01
10.82
8.62
6.36
3.93
1.11
-2.18
-5.90
-9.73
-13.22
-15.96
-17.80
-18.85
-19.57
-20.52
-22.30
-25.38
-29.91
-35.58
-41.57
-46.69
-49.66
-49.56
-46.12
-39.83
-31.73
-23.04
-14.77
-7.50
-1.32
3.96
8.54
12.54
15.89
18.42
20.01
20.65
20.53
20.01
19.47
19.16
19.21
19.52
19.94
20.38
20.83
21.39
22.10
22.90
23.56
23.81
23.52
22.73
21.64
20.50
19.40
18.26
16.90
15.11
12.85
10.24
7.46
4.80
2.44
0.50
-1.08
-2.48
-3.94
-5.70
-7.85
-10.38
-13.13
-15.97
-18.86
-21.98
-25.57
-29.88
-35.01
-40.68
-46.20
-50.55
-52.63
-51.56
-47.13
-39.81
-30.71
-21.13
-12.24
-4.77
1.08
5.43
8.62
11.01
12.93
14.59
16.15
17.62
18.85
19.69
20.03
19.96
19.73
19.64
19.91
20.56
21.46
22.33
22.96
23.23
23.11
22.65
21.95
21.05
20.00
18.84
17.61
16.37
15.15
13.96
12.74
11.43
9.98
8.29
6.34
4.05
1.44
-1.40
-4.29
-7.03
-9.44
-11.45
-13.18
-14.87
-16.88
-19.58
-23.23
-27.75
-32.70
-37.22
-40.27
-40.88
-38.58
-33.57
-26.61
-18.76
-10.95
-3.77
2.52
7.85
12.19
15.44
17.51
18.52
18.77
18.68
18.63
18.80
19.21
19.75
20.31
20.80
21.22
21.58
21.89
22.19
22.58
23.18
24.05
25.09
26.07
26.64
26.43
25.19
22.85
19.60
15.86
12.15
8.94
6.50
4.77
3.45
2.12
0.53
-1.39
-3.50
-5.60
-7.65
-9.87
-12.61
-16.19
-20.71
-25.98
-31.62
-37.14
-42.05
-45.82
-47.95
-47.97
-45.62
-40.96
-34.44
-26.86
-19.18
-12.15
-6.22
-1.38
2.61
6.10
9.25
11.95
13.97
15.13
15.53
15.58
15.83
16.71
18.31
20.30
22.20
23.60
24.32
24.48
24.30
24.00
23.65
23.22
22.62
21.80
20.75
19.48
17.99
16.32
14.49
12.57
10.64
8.77
7.01
5.39
3.92
2.57
1.22
-0.28
-2.17
-4.61
-7.59
-10.90
-14.21
-17.16
-19.56
-21.43
-23.09
-24.97
-27.57
-31.22
-35.96
-41.40
-46.72
-50.79
-52.54
-51.24
-46.82
-39.83
-31.35
-22.52
-14.28
-7.09
-1.10
3.70
7.34
9.75
10.99
11.33
11.27
11.44
12.31
13.95
16.01
17.92
19.21
19.73
19.72
19.64
19.88
20.63
21.76
23.00
24.03
24.57
24.41
23.43
21.60
19.08
16.17
13.30
10.81
8.91
7.61
6.79
6.26
5.82
5.26
4.33
2.82
0.64
-2.11
-5.15
-8.07
-10.62
-12.70
-14.48
-16.24
-18.37
-21.28
-25.23
-30.29
-36.14
-42.02
-46.88
-49.68
-49.67
-46.67
-41.00
-33.44
-24.91
-16.33
-8.47
-1.85
3.26
6.92
9.39
11.03
12.15
12.92
13.49
13.93
14.37
14.95
15.71
16.62
17.59
18.52
19.43
20.40
21.42
22.35
22.89
22.76
21.84
20.34
18.66
17.20
16.19
15.51
14.90
14.09
12.93
11.46
9.85
8.23
6.62
4.92
3.00
0.74
-1.82
-4.54
-7.19
-9.63
-11.73
-13.51
-15.09
-16.64
-18.40
-20.62
-23.51
-27.14
-31.42
-35.88
-39.78
-42.23
-42.49
-40.19
-35.51
-29.08
-21.79
-14.48
-7.77
-1.92
3.01
7.14
10.57
13.36
15.44
16.73
17.17
16.89
16.22
15.61
15.56
16.32
17.85
19.82
21.79
23.38
24.46
25.07
25.38
25.43
25.17
24.52
23.45
22.09
20.68
19.44
18.42
17.47
16.28
14.56
12.18
9.24
6.05
2.92
0.03
-2.61
-5.10
-7.52
-9.86
-12.06
-14.08
-16.02
-18.07
-20.55
-23.69
-27.53
-31.89
-36.33
-40.28
-43.00
-43.79
-42.17
-38.04
-31.86
-24.50
-17.02
-10.25
-4.62
-0.12
3.49
6.40
8.66
10.20
11.00
11.18
11.09
11.17
11.80
13.08
14.84
16.73
18.33
19.41
19.96
20.17
20.30
20.47
20.68
20.79
20.63
20.06
19.10
17.81
16.22
14.30
11.99
9.36
6.63
4.17
2.23
0.84
-0.28
-1.63
-3.59
-6.22
-9.18
-11.95
-14.13
-15.68
-16.90
-18.25
-19.98
-22.06
-24.26
-26.45
-28.76
-31.48
-34.76
-38.33
-41.40
-42.94
-42.11
-38.62
-32.89
-25.80
-18.39
-11.51
-5.69
-1.13
2.24
4.56
6.00
6.70
6.86
6.66
6.38
6.34
6.83
7.96
9.61
11.46
13.12
14.30
14.97
15.27
15.40
15.54
15.73
15.91
16.02
16.01
15.91
15.76
15.44
14.84
13.75
12.04
9.75
7.11
4.48
2.16
0.33
-1.06
-2.19
-3.30
-4.58
-6.13
-7.91
-9.89
-12.02
-14.41
-17.27
-20.85
-25.33
-30.64
-36.29
-41.47
-45.14
-46.51
-45.17
-41.36
-35.78
-29.31
-22.70
-16.37
-10.51
-5.11
-0.21
4.11
7.66
10.35
12.20
13.31
13.88
14.05
13.97
13.72
13.50
13.52
14.02
15.10
16.62
18.29
19.70
20.57
20.83
20.61
20.07
19.36
18.54
17.60
16.56
15.45
14.36
13.35
12.40
11.42
10.24
8.71
6.73
4.37
1.80
-0.72
-2.96
-4.82
-6.44
-8.13
-10.26
-13.09
-16.68
-20.85
-25.41
-30.10
-34.72
-38.96
-42.36
-44.33
-44.23
-41.67
-36.74
-30.08
-22.64
-15.44
-9.11
-3.89
0.40
4.00
7.04
9.41
10.98
11.75
11.91
11.87
12.13
12.95
14.34
16.06
17.83
19.37
20.58
21.48
22.12
22.55
22.79
22.82
22.65
22.20
21.45
20.41
19.05
17.43
15.61
13.60
11.49
9.28
7.03
4.74
2.42
0.06
-2.36
-4.84
-7.36
-9.83
-12.25
-14.78
-17.74
-21.45
-26.02
-31.05
-35.61
-38.51
-38.76
-36.04
-30.86
-24.31
-17.63
-11.68
-6.65
-2.23
2.04
6.34
10.43
13.79
16.01
17.06
17.38
17.56
18.03
18.90
19.88
20.64
21.04
21.25
21.65
22.58
24.09
26.00
27.95
29.53
30.50
30.64
29.84
28.03
25.32
21.97
18.42
15.05
12.08
9.44
6.88
4.16
1.22
-1.79
-4.59
-7.00
-9.05
-11.01
-13.20
-15.96
-19.48
-23.82
-28.86
-34.30
-39.52
-43.70
-45.95
-45.53
-42.25
-36.44
-28.95
-20.78
-12.90
-5.93
-0.19
4.32
7.75
10.30
12.15
13.45
14.31
14.90
15.40
16.02
17.00
18.52
20.55
22.91
25.19
26.94
27.84
27.77
26.99
25.93
24.95
24.12
23.26
22.01
20.16
17.78
15.22
12.90
11.05
9.55
8.05
6.22
3.86
1.10
-1.76
-4.41
-6.67
-8.58
-10.34
-12.22
-14.48
-17.27
-20.67
-24.65
-29.17
-34.07
-39.06
-43.68
-47.26
-49.12
-48.76
-46.05
-41.26
-34.96
-27.82
-20.49
-13.42
-6.93
-1.30
3.31
6.82
9.30
11.00
12.26
13.38
14.56
15.89
17.32
18.75
20.07
21.17
22.10
22.96
23.88
24.89
25.85
26.45
26.36
25.39
23.59
21.32
19.03
17.15
15.82
14.87
13.93
12.53
10.42
7.54
4.12
0.50
-2.97
-6.11
-8.90
-11.34
-13.45
-15.23
-16.75
-18.29
-20.31
-23.25
-27.27
-32.06
-36.74
-40.18
-41.32
-39.55
-34.88
-27.93
-19.68
-11.18
-3.32
3.34
8.56
12.37
14.90
16.37
17.05
17.32
17.65
18.43
19.91
21.97
24.23
26.20
27.54
28.19
28.34
28.26
28.08
27.82
27.40
26.77
25.93
24.89
23.59
21.89
19.68
17.00
14.05
11.14
8.48
6.05
3.64
1.09
-1.68
-4.55
-7.29
-9.78
-12.05
-14.28
-16.73
-19.62
-23.13
-27.32
-32.14
-37.34
-42.33
-46.27
-48.19
-47.42
-43.83
-37.90
-30.63
-23.07
-16.05
-9.93
-4.62
0.18
4.66
8.80
12.34
14.98
16.54
17.19
17.27
17.23
17.35
17.69
18.22
18.89
19.76
20.91
22.38
24.01
25.50
26.44
26.59
25.86
24.42
22.56
20.69
19.08
17.91
17.12
16.53
15.80
14.65
12.96
10.77
8.29
5.67
3.03
0.38
-2.27
-4.85
-7.28
-9.54
-11.78
-14.29
-17.45
-21.53
-26.59
-32.37
-38.32
-43.69
-47.67
-49.57
-49.03
-46.04
-40.98
-34.49
-27.31
-20.10
-13.33
-7.24
-1.87
2.87
7.08
10.78
13.89
16.20
17.52
17.81
17.24
16.20
15.22
14.74
14.98
15.90
17.26
18.75
20.13
21.34
22.36
23.18
23.79
24.05
23.86
23.21
22.17
21.02
20.02
19.34
18.90
18.45
17.64
16.24
14.22
11.71
8.92
5.91
2.67
-0.87
-4.69
-8.54
-12.05
-14.79
-16.61
-17.75
-18.79
-20.35
-22.93
-26.64
-31.25
-36.20
-40.70
-43.90
-45.05
-43.63
-39.62
-33.51
-26.25
-18.91
-12.37
-7.00
-2.62
1.25
5.04
8.81
12.26
14.91
16.49
17.09
17.17
17.25
17.69
18.52
19.56
20.61
21.62
22.72
23.99
25.43
26.81
27.89
28.54
28.75
28.65
28.28
27.58
26.41
24.70
22.50
19.96
17.29
14.59
11.92
9.30
6.73
4.26
1.95
-0.19
-2.21
-4.13
-6.02
-7.91
-9.87
-12.06
-14.60
-17.59
-21.04
-24.86
-28.92
-33.06
-37.01
-40.40
-42.74
-43.56
-42.46
-39.33
-34.37
-28.07
-21.11
-14.14
-7.70
-2.08
2.64
6.53
9.66
12.09
13.86
14.98
15.49
15.53
15.26
14.88
14.61
14.58
14.90
15.60
16.65
17.97
19.39
20.73
21.72
22.19
22.02
21.32
20.28
19.15
18.13
17.24
16.39
15.35
13.92
12.04
9.81
7.42
5.11
3.05
1.29
-0.24
-1.73
-3.44
-5.55
-8.05
-10.78
-13.39
-15.62
-17.34
-18.72
-20.16
-22.16
-25.13
-29.27
-34.41
-40.02
-45.27
-49.29
-51.33
-50.97
-48.18
-43.30
-36.87
-29.56
-22.02
-14.85
-8.53
-3.34
0.65
3.60
5.74
7.30
8.45
9.25
9.82
10.32
10.99
11.97
13.27
14.76
16.29
17.73
19.09
20.41
21.63
22.58
23.02
22.83
22.06
20.93
19.68
18.41
17.04
15.37
13.40
11.30
9.45
8.20
7.57
7.25
6.69
5.37
3.16
0.31
-2.66
-5.21
-7.17
-8.69
-10.17
-12.00
-14.34
-17.14
-20.23
-23.55
-27.15
-31.06
-35.09
-38.66
-40.85
-40.77
-37.93
-32.49
-25.27
-17.34
-9.72
-3.03
2.60
7.29
11.23
14.43
16.78
18.08
18.37
17.97
17.43
17.29
17.82
18.92
20.14
20.99
21.22
20.95
20.60
20.67
21.41
22.73
24.23
25.40
25.82
25.28
23.73
21.29
18.20
14.80
11.49
8.66
6.53
5.09
4.14
3.31
2.27
0.74
-1.41
-4.20
-7.47
-10.99
-14.42
-17.52
-20.19
-22.58
-25.03
-27.91
-31.40
-35.28
-39.01
-41.75
-42.68
-41.26
-37.43
-31.72
-25.00
-18.29
-12.35
-7.54
-3.77
-0.78
1.67
3.66
5.15
6.12
6.69
7.12
7.66
8.50
9.66
11.09
12.75
14.53
16.29
17.91
19.21
20.02
20.29
20.01
19.24
18.17
16.98
15.96
15.27
14.88
14.57
13.97
12.83
11.10
9.01
6.92
5.05
3.41
1.80
-0.00
-2.11
-4.52
-7.10
-9.72
-12.30
-14.85
-17.36
-19.91
-22.55
-25.44
-28.79
-32.69
-37.04
-41.43
-45.15
-47.39
-47.48
-45.16
-40.59
-34.33
-27.06
-19.48
-12.18
-5.59
-0.03
4.21
7.01
8.49
9.01
9.11
9.28
9.79
10.58
11.47
12.27
12.92
13.56
14.28
15.07
15.85
16.54
17.20
18.00
19.03
20.17
21.10
21.41
20.88
19.59
17.79
15.76
13.68
11.52
9.27
7.09
5.23
3.93
3.17
2.69
2.00
0.73
-1.36
-4.17
-7.44
-10.82
-14.07
-17.09
-19.97
-22.93
-26.12
-29.58
-32.97
-35.69
-37.09
-36.56
-33.83
-28.98
-22.48
-14.98
-7.27
-0.09
6.02
10.79
14.25
16.67
18.30
19.33
19.86
19.96
19.78
19.67
19.92
20.74
22.06
23.64
25.15
26.40
27.28
27.73
27.68
27.02
25.71
23.92
21.95
20.13
18.67
17.55
16.55
15.44
14.01
12.19
10.04
7.72
5.36
3.15
1.17
-0.47
-1.80
-2.92
-4.03
-5.40
-7.33
-10.05
-13.66
-18.08
-23.06
-28.25
-33.30
-37.87
-41.60
-44.09
-44.90
-43.71
-40.50
-35.59
-29.57
-23.10
-16.69
-10.62
-5.00
0.11
4.60
8.32
11.17
13.16
14.51
15.46
16.25
16.97
17.62
18.14
18.53
18.83
19.19
19.73
20.52
21.54
22.64
23.54
24.02
23.89
23.15
21.90
20.31
18.59
16.83
15.06
13.24
11.35
9.41
7.52
5.77
4.18
2.63
0.96
-0.96
-3.17
-5.55
-7.93
-10.13
-12.10
-13.95
-15.94
-18.41
-21.57
-25.39
-29.65
-33.89
-37.56
-40.11
-41.05
-40.06
-37.09
-32.40
-26.54
-20.23
-14.13
-8.68
-3.96
0.20
4.01
7.52
10.55
12.82
14.19
14.80
15.03
15.29
15.81
16.57
17.38
18.11
18.74
19.45
20.39
21.56
22.77
23.78
24.35
24.37
23.92
23.11
22.04
20.75
19.26
17.58
15.72
13.73
11.69
9.66
7.72
5.93
4.26
2.61
0.87
-1.13
-3.45
-6.05
-8.76
-11.39
-13.77
-15.82
-17.60
-19.29
-21.22
-23.75
-27.17
-31.58
-36.73
-41.97
-46.37
-48.91
-48.88
-46.04
-40.75
-33.77
-26.00
-18.20
-10.85
-4.19
1.69
6.67
10.64
13.50
15.32
16.32
16.84
17.19
17.64
18.28
19.16
20.26
21.56
22.97
24.40
25.73
26.91
27.92
28.69
29.07
28.87
27.86
26.03
23.57
20.88
18.32
16.08
14.08
12.09
10.01
7.95
6.27
5.31
5.15
5.51
5.79
5.39
3.96
1.52
-1.60
-4.83
-7.72
-9.94
-11.47
-12.60
-13.83
-15.80
-19.00
-23.57
-29.11
-34.71
-39.25
-41.75
-41.69
-39.16
-34.71
-29.08
-22.99
-16.98
-11.36
-6.33
-1.98
1.71
4.80
7.43
9.64
11.48
12.90
13.89
14.49
14.77
14.80
14.72
14.68
14.87
15.49
16.58
17.99
19.38
20.40
20.86
20.80
20.47
20.12
19.86
19.60
19.17
18.45
17.47
16.30
15.04
13.73
12.39
11.04
9.73
8.47
7.17
5.72
4.05
2.21
0.31
-1.50
-3.20
-4.95
-6.95
-9.36
-12.14
-15.00
-17.62
-19.74
-21.40
-22.93
-24.84
-27.62
-31.50
-36.29
-41.35
-45.70
-48.40
-48.71
-46.41
-41.78
-35.42
-28.15
-20.72
-13.76
-7.71
-2.80
0.98
3.88
6.22
8.35
10.44
12.44
14.15
15.39
16.14
16.60
17.04
17.74
18.78
20.00
21.16
21.99
22.37
22.35
22.06
21.66
21.14
20.37
19.19
17.60
15.74
13.98
12.61
11.77
11.31
10.88
10.21
9.15
7.85
6.54
5.41
4.41
3.38
2.11
0.48
-1.45
-3.53
-5.58
-7.45
-9.10
-10.57
-12.11
-14.09
-16.95
-20.98
-26.19
-32.13
-38.00
-42.80
-45.63
-45.92
-43.60
-39.01
-32.83
-25.86
-18.83
-12.29
-6.56
-1.73
2.29
5.67
8.57
11.09
13.28
15.14
16.61
17.65
18.22
18.44
18.49
18.60
18.97
19.64
20.52
21.40
22.15
22.79
23.43
24.19
24.98
25.54
25.47
24.52
22.76
20.51
18.22
16.19
14.42
12.68
10.72
8.42
5.94
3.56
1.61
0.21
-0.77
-1.65
-2.81
-4.48
-6.69
-9.21
-11.72
-14.04
-16.18
-18.47
-21.33
-25.06
-29.62
-34.61
-39.37
-43.15
-45.38
-45.72
-44.01
-40.35
-35.04
-28.65
-21.93
-15.65
-10.39
-6.30
-3.21
-0.74
1.43
3.38
4.99
6.10
6.75
7.22
7.94
9.26
11.20
13.51
15.76
17.60
18.99
20.07
21.04
21.99
22.87
23.51
23.78
23.71
23.35
22.79
22.02
20.91
19.38
17.46
15.30
13.17
11.28
9.71
8.40
7.24
6.12
5.00
3.91
2.83
1.72
0.39
-1.40
-3.82
-6.93
-10.49
-14.02
-17.04
-19.28
-20.92
-22.52
-24.82
-28.30
-32.94
-38.11
-42.83
-46.16
-47.49
-46.65
-43.84
-39.44
-33.87
-27.58
-20.98
-14.53
-8.62
-3.48
0.75
4.04
6.37
7.81
8.51
8.80
9.07
9.73
10.98
12.73
14.72
16.54
18.00
19.10
20.05
21.12
22.45
23.99
25.50
26.75
27.45
27.46
26.72
25.32
23.42
21.24
19.04
16.98
15.15
13.54
12.08
10.69
9.32
7.99
6.63
5.15
3.34
1.05
-1.71
-4.71
-7.58
-9.97
-11.72
-12.98
-14.15
-15.70
-18.11
-21.63
-26.27
-31.76
-37.54
-42.85
-46.80
-48.60
-47.81
-44.36
-38.70
-31.64
-24.03
-16.61
-9.82
-3.85
1.27
5.50
8.82
11.26
12.89
14.00
14.91
15.96
17.30
18.84
20.27
21.30
21.81
21.93
21.93
22.03
22.24
22.41
22.31
21.85
21.08
20.21
19.37
18.61
17.85
17.00
16.14
15.46
15.20
15.34
15.67
15.80
15.40
14.34
12.76
10.98
9.31
7.90
6.73
5.57
4.17
2.37
0.13
-2.48
-5.33
-8.35
-11.45
-14.59
-17.78
-21.06
-24.50
-28.18
-32.19
-36.47
-40.80
-44.72
-47.59
-48.75
-47.75
-44.56
-39.55
-33.44
-27.01
-20.85
-15.24
-10.22
-5.71
-1.72
1.64
4.28
6.22
7.66
8.89
10.14
11.51
12.92
14.29
15.59
16.97
18.60
20.59
22.86
25.11
26.99
28.23
28.69
28.44
27.64
26.49
25.18
23.88
22.66
21.60
20.70
19.89
19.00
17.89
16.47
14.74
12.88
11.10
9.60
8.38
7.27
5.91
3.97
1.29
-2.05
-5.69
-9.25
-12.43
-15.11
-17.43
-19.65
-22.05
-24.88
-28.36
-32.56
-37.42
-42.58
-47.35
-50.77
-51.88
-50.11
-45.46
-38.55
-30.39
-22.09
-14.47
-8.00
-2.77
1.34
4.54
7.04
9.07
10.86
12.64
14.53
16.54
18.55
20.41
22.01
23.31
24.34
25.14
25.80
26.43
27.17
28.12
29.27
30.38
31.07
30.93
29.78
27.67
24.94
22.07
19.46
17.36
15.76
14.45
13.15
11.62
9.74
7.65
5.56
3.69
2.07
0.47
-1.46
-3.99
-7.07
-10.34
-13.32
-15.69
-17.54
-19.34
-21.74
-25.22
-29.96
-35.66
-41.65
-46.98
-50.65
-51.77
-49.91
-45.17
-38.28
-30.33
-22.37
-15.14
-8.86
-3.43
1.35
5.54
8.96
11.40
12.84
13.50
13.89
14.46
15.41
16.70
18.05
19.24
20.27
21.33
22.67
24.38
26.25
27.85
28.76
28.85
28.31
27.53
26.83
26.25
25.56
24.46
22.87
21.00
19.20
17.74
16.58
15.48
14.14
12.49
10.68
9.01
7.66
6.50
5.18
3.30
0.59
-2.93
-6.92
-10.95
-14.62
-17.69
-20.16
-22.29
-24.42
-27.02
-30.47
-34.93
-40.27
-46.03
-51.42
-55.56
-57.59
-56.92
-53.33
-47.07
-38.85
-29.73
-20.82
-13.00
-6.70
-1.86
1.94
5.17
8.13
10.80
12.95
14.41
15.18
15.52
15.83
16.42
17.42
18.75
20.30
21.94
23.64
25.39
27.08
28.50
29.42
29.67
29.26
28.37
27.23
25.99
24.69
23.27
21.74
20.23
18.91
17.90
17.13
16.31
15.15
13.51
11.49
9.38
7.37
5.38
3.15
0.38
-3.02
-6.82
-10.55
-13.83
-16.50
-18.74
-20.96
-23.55
-26.83
-30.96
-35.87
-41.28
-46.64
-51.13
-53.87
-54.11
-51.47
-46.15
-38.89
-30.63
-22.36
-14.76
-8.18
-2.66
1.95
5.86
9.25
12.19
14.69
16.72
18.26
19.36
20.14
20.76
21.38
22.15
23.18
24.48
25.96
27.50
28.93
30.03
30.67
30.66
29.89
28.38
26.28
23.87
21.53
19.53
17.97
16.75
15.59
14.28
12.78
11.17
9.61
8.09
6.42
4.28
1.42
-2.15
-6.14
-10.12
-13.72
-16.79
-19.41
-21.83
-24.36
-27.29
-30.80
-34.88
-39.26
-43.44
-46.68
-48.29
-47.77
-45.01
-40.29
-34.23
-27.53
-20.79
-14.41
-8.55
-3.20
1.67
6.06
9.90
13.09
15.53
17.17
18.06
18.36
18.31
18.23
18.42
19.08
20.24
21.74
23.28
24.61
25.54
26.08
26.36
26.52
26.61
26.57
26.28
25.63
24.59
23.18
21.51
19.68
17.80
15.93
14.14
12.41
10.72
9.04
7.35
5.65
3.93
2.05
-0.13
-2.70
-5.65
-8.78
-11.82
-14.56
-17.01
-19.38
-22.11
-25.58
-29.94
-35.08
-40.54
-45.72
-49.96
-52.67
-53.35
-51.71
-47.65
-41.44
-33.65
-25.08
-16.63
-9.04
-2.80
1.97
5.46
8.03
10.11
11.96
13.74
15.38
16.82
18.04
19.08
20.05
21.05
22.11
23.18
24.20
25.13
26.04
26.97
27.87
28.64
29.03
28.85
28.04
26.73
25.14
23.53
22.03
20.62
19.17
17.48
15.45
13.12
10.61
8.15
5.92
3.95
2.14
0.31
-1.73
-3.99
-6.44
-8.97
-11.50
-13.98
-16.43
-18.91
-21.65
-24.86
-28.80
-33.48
-38.59
-43.27
-46.39
-46.92
-44.39
-39.10
-32.09
-24.63
-17.81
-12.08
-7.26
-2.88
1.54
6.14
10.69
14.70
17.76
19.68
20.62
21.00
21.30
21.83
22.68
23.73
24.78
25.67
26.35
26.89
27.34
27.66
27.73
27.38
26.51
25.21
23.67
22.18
20.87
19.72
18.50
16.94
14.80
12.04
8.82
5.43
2.18
-0.71
-3.13
-5.12
-6.79
-8.31
-9.96
-11.99
-14.68
-18.21
-22.66
-27.91
-33.60
-39.07
-43.42
-45.74
-45.38
-42.27
-36.96
-30.38
-23.52
-17.07
-11.24
-5.93
-0.99
3.57
7.52
10.59
12.65
13.89
14.62
15.19
15.80
16.46
17.03
17.44
17.74
18.23
19.25
21.00
23.41
26.10
28.46
29.98
30.40
29.78
28.46
26.85
25.20
23.65
22.16
20.69
19.17
17.61
15.96
14.20
12.31
10.38
8.54
6.98
5.72
4.74
3.87
2.87
1.59
-0.04
-2.03
-4.30
-6.78
-9.36
-11.95
-14.43
-16.77
-18.97
-21.09
-23.31
-25.81
-28.84
-32.57
-37.03
-42.11
-47.38
-52.23
-55.86
-57.54
-56.75
-53.39
-47.73
-40.44
-32.36
-24.33
-17.00
-10.70
-5.48
-1.15
2.48
5.52
7.97
9.78
10.99
11.80
12.48
13.32
14.45
15.83
17.33
18.86
20.38
21.92
23.48
24.90
25.99
26.55
26.53
26.06
25.34
24.57
23.82
22.99
21.93
20.55
18.84
16.88
14.77
12.57
10.32
8.09
5.95
4.05
2.51
1.39
0.62
0.01
-0.73
-1.84
-3.48
-5.65
-8.30
-11.40
-14.89
-18.82
-23.21
-27.99
-32.96
-37.75
-41.85
-44.77
-46.13
-45.71
-43.48
-39.63
-34.48
-28.48
-22.06
-15.64
-9.52
-3.94
0.95
5.03
8.26
10.65
12.32
13.37
14.00
14.39
14.81
15.53
16.75
18.59
20.99
23.68
26.23
28.24
29.44
29.73
29.18
28.01
26.47
24.84
23.30
21.99
20.89
19.90
18.89
17.71
16.19
14.22
11.81
9.14
6.46
4.01
1.87
-0.11
-2.22
-4.70
-7.58
-10.63
-13.48
-15.86
-17.76
-19.46
-21.38
-23.88
-27.18
-31.35
-36.19
-41.24
-45.74
-48.74
-49.39
-47.24
-42.54
-36.12
-29.04
-22.18
-15.93
-10.27
-5.05
-0.28
3.80
6.90
8.91
9.99
10.47
10.72
10.97
11.29
11.71
12.29
13.14
14.35
15.92
17.66
19.34
20.74
21.71
22.19
22.24
21.93
21.39
20.78
20.19
19.70
19.26
18.84
18.33
17.66
16.68
15.30
13.51
11.48
9.51
7.90
6.83
6.10
5.30
3.90
1.54
-1.82
-5.79
-9.82
-13.36
-16.17
-18.38
-20.45
-22.97
-26.37
-30.84
-36.13
-41.74
-46.95
-51.04
-53.41
-53.64
-51.59
-47.42
-41.65
-35.03
-28.33
-22.14
-16.66
-11.80
-7.33
-3.08
0.87
4.32
7.05
9.09
10.68
12.17
13.80
15.52
17.16
18.54
19.71
20.94
22.52
24.53
26.78
28.81
30.16
30.57
30.07
28.93
27.56
26.22
25.04
23.96
22.82
21.49
19.88
18.09
16.26
14.48
12.71
10.87
8.82
6.57
4.30
2.25
0.56
-0.94
-2.61
-4.86
-7.89
-11.51
-15.29
-18.73
-21.68
-24.39
-27.41
-31.32
-36.30
-41.89
-46.99
-50.33
-50.89
-48.37
-43.20
-36.36
-28.89
-21.51
-14.59
-8.21
-2.36
2.81
7.13
10.41
12.67
14.06
14.87
15.35
15.73
16.17
16.79
17.72
19.00
20.60
22.45
24.43
26.41
28.26
29.84
30.99
31.59
31.58
30.99
29.96
28.71
27.39
26.10
24.80
23.39
21.75
19.78
17.50
15.02
12.52
10.19
8.12
6.35
4.79
3.32
1.76
-0.02
-2.15
-4.68
-7.54
-10.55
-13.43
-15.98
-18.17
-20.26
-22.62
-25.67
-29.63
-34.49
-39.96
-45.65
-51.01
-55.31
-57.77
-57.70
-54.80
-49.38
-42.24
-34.47
-27.00
-20.29
-14.32
-8.86
-3.71
1.09
5.33
8.78
11.38
13.23
14.56
15.63
16.64
17.71
18.97
20.55
22.60
25.15
28.02
30.81
32.94
33.93
33.62
32.28
30.47
28.76
27.49
26.60
25.82
24.86
23.63
22.30
20.97
19.62
18.06
16.06
13.58
10.86
8.35
6.44
5.31
4.79
4.45
3.78
2.30
-0.26
-3.90
-8.30
-12.95
-17.23
-20.66
-23.09
-24.74
-26.22
-28.25
-31.48
-36.21
-42.33
-49.17
-55.63
-60.38
-62.20
-60.40
-54.98
-46.70
-36.77
-26.48
-16.89
-8.70
-2.20
2.67
6.14
8.58
10.42
12.02
13.62
15.29
16.89
18.26
19.28
19.93
20.31
20.62
21.09
21.88
23.11
24.70
26.45
28.05
29.24
29.85
29.87
29.31
28.23
26.68
24.75
22.68
20.79
19.36
18.50
18.14
17.95
17.53
16.59
14.94
12.63
9.86
6.96
4.16
1.61
-0.72
-2.94
-5.11
-7.21
-9.10
-10.75
-12.43
-14.70
-18.18
-23.21
-29.54
-36.32
-42.36
-46.56
-48.29
-47.48
-44.48
-39.75
-33.80
-27.02
-19.82
-12.65
-6.01
-0.30
4.26
7.69
10.23
12.23
13.94
15.47
16.72
17.53
17.87
17.89
17.90
18.33
19.41
21.20
23.47
25.89
28.08
29.78
30.80
31.06
30.54
29.38
27.77
26.03
24.42
23.10
22.08
21.27
20.52
19.73
18.78
17.53
15.86
13.67
11.08
8.32
5.67
3.26
1.00
-1.38
-4.17
-7.43
-11.02
-14.59
-17.90
-20.92
-23.89
-27.22
-31.27
-36.21
-41.82
-47.53
-52.43
-55.48
-55.87
-53.26
-47.94
-40.74
-32.68
-24.63
-17.13
-10.31
-4.18
1.30
6.05
9.93
12.82
14.76
15.94
16.63
17.12
17.70
18.47
19.47
20.62
21.76
22.76
23.54
24.11
24.47
24.67
24.65
24.34
23.63
22.45
20.85
18.93
16.83
14.70
12.59
10.44
8.16
5.64
2.86
-0.03
-2.87
-5.48
-7.81
-9.99
-12.25
-14.81
-17.88
-21.54
-25.72
-30.21
-34.67
-38.60
-41.34
-42.28
-40.97
-37.32
-31.65
-24.67
-17.21
-9.99
-3.50
2.03
6.60
10.29
13.20
15.45
17.18
18.50
19.44
19.93
19.83
19.09
17.86
16.47
15.34
14.78
14.88
15.54
16.56
17.80
19.17
20.56
21.85
22.78
23.15
22.88
22.12
21.16
20.31
19.70
19.25
18.67
17.67
16.00
13.69
10.93
8.01
5.24
2.82
0.77
-1.02
-2.76
-4.66
-6.86
-9.38
-12.15
-15.08
-18.16
-21.46
-25.17
-29.54
-34.73
-40.68
-46.97
-52.89
-57.51
-59.94
-59.54
-56.16
-50.08
-42.05
-33.07
-24.23
-16.42
-10.18
-5.57
-2.26
0.35
2.73
5.10
7.31
9.05
10.08
10.46
10.56
10.85
11.69
13.15
15.04
17.04
18.93
20.64
22.18
23.58
24.73
25.49
25.76
25.55
25.00
24.28
23.45
22.47
21.18
19.48
17.32
14.81
12.14
9.56
7.26
5.26
3.47
1.70
-0.25
-2.52
-5.11
-7.84
-10.55
-13.05
-15.38
-17.72
-20.34
-23.52
-27.46
-32.15
-37.33
-42.49
-46.84
-49.47
-49.56
-46.69
-41.05
-33.39
-24.86
-16.56
-9.27
-3.22
1.74
6.01
9.86
13.33
16.33
18.65
20.22
21.12
21.61
21.98
22.44
23.12
23.99
24.97
25.95
26.89
27.79
28.64
29.39
29.90
29.97
29.40
28.08
26.08
23.67
21.26
19.17
17.48
16.00
14.31
12.08
9.25
6.11
3.11
0.66
-1.25
-2.96
-5.01
-7.75
-11.13
-14.73
-17.96
-20.46
-22.28
-23.85
-25.75
-28.53
-32.45
-37.38
-42.92
-48.33
-52.73
-55.24
-55.16
-52.16
-46.42
-38.58
-29.59
-20.50
-12.20
-5.27
0.11
4.08
7.03
9.40
11.53
13.57
15.46
17.08
18.34
19.31
20.14
20.95
21.77
22.54
23.19
23.82
24.65
25.86
27.45
29.08
30.30
30.71
30.19
28.93
27.29
25.60
23.95
22.29
20.49
18.49
16.30
13.98
11.56
9.11
6.71
4.54
2.69
1.14
-0.32
-1.99
-4.12
-6.79
-9.84
-12.99
-16.05
-18.93
-21.69
-24.54
-27.71
-31.40
-35.74
-40.66
-45.79
-50.52
-53.99
-55.38
-54.19
-50.39
-44.42
-36.97
-28.82
-20.62
-12.80
-5.67
0.57
5.75
9.82
12.85
15.04
16.70
18.06
19.24
20.22
20.91
21.34
21.62
22.02
22.82
24.14
25.94
27.98
29.96
31.57
32.62
32.99
32.68
31.78
30.41
28.77
27.06
25.36
23.73
22.14
20.48
18.69
16.72
14.57
12.21
9.61
6.74
3.60
0.28
-3.05
-6.14
-8.84
-11.18
-13.39
-15.89
-19.06
-23.12
-28.06
-33.56
-39.15
-44.19
-48.04
-50.06
-49.78
-46.96
-41.74
-34.69
-26.67
-18.57
-11.13
-4.71
0.70
5.28
9.18
12.36
14.72
16.09
16.55
16.40
16.11
16.16
16.79
17.99
19.48
21.00
22.37
23.55
24.64
25.73
26.86
27.91
28.69
29.00
28.69
27.73
26.24
24.41
22.46
20.55
18.79
17.20
15.76
14.37
12.97
11.50
9.91
8.18
6.32
4.30
2.16
-0.09
-2.43
-4.83
-7.34
-9.98
-12.82
-15.82
-18.85
-21.74
-24.30
-26.55
-28.73
-31.35
-34.88
-39.49
-44.87
-50.18
-54.22
-55.90
-54.55
-50.20
-43.47
-35.41
-27.11
-19.38
-12.67
-7.05
-2.44
1.37
4.52
7.17
9.43
11.35
12.96
14.24
15.22
16.05
16.97
18.26
20.05
22.28
24.70
27.00
28.97
30.49
31.50
31.99
31.88
31.13
29.78
28.02
26.10
24.28
22.70
21.37
20.18
18.99
17.67
16.09
14.20
12.03
9.67
7.30
5.07
3.07
1.29
-0.37
-2.02
-3.71
-5.45
-7.20
-9.00
-10.94
-13.16
-15.82
-19.05
-22.86
-27.27
-32.17
-37.35
-42.42
-46.79
-49.76
-50.75
-49.37
-45.63
-39.84
-32.57
-24.47
-16.22
-8.36
-1.39
4.34
8.66
11.62
13.45
14.53
15.27
16.04
17.08
18.48
20.19
21.96
23.51
24.64
25.34
25.82
26.39
27.29
28.48
29.71
30.58
30.75
30.07
28.69
26.92
25.12
23.54
22.21
21.04
19.85
18.48
16.85
15.02
13.07
11.06
9.00
6.79
4.34
1.63
-1.30
-4.33
-7.33
-10.19
-12.85
-15.28
-17.51
-19.59
-21.66
-23.93
-26.64
-30.02
-34.16
-38.99
-44.16
-49.05
-52.86
-54.78
-54.26
-51.16
-45.80
-38.82
-30.97
-22.92
-15.28
-8.45
-2.75
1.67
4.92
7.33
9.27
11.04
12.72
14.23
15.47
16.55
17.74
19.28
21.22
23.31
25.23
26.73
27.81
28.57
29.12
29.34
29.01
27.97
26.25
24.16
22.02
20.07
18.35
16.77
15.24
13.80
12.56
11.57
10.77
9.98
9.01
7.73
6.05
4.00
1.67
-0.83
-3.34
-5.75
-8.03
-10.21
-12.43
-14.76
-17.24
-19.80
-22.39
-25.06
-27.98
-31.41
-35.52
-40.20
-44.95
-48.93
-51.20
-51.11
-48.47
-43.66
-37.45
-30.67
-23.89
-17.39
-11.23
-5.48
-0.33
4.00
7.36
9.83
11.65
13.15
14.51
15.81
17.09
18.41
19.88
21.62
23.62
25.68
27.47
28.73
29.35
29.47
29.33
29.21
29.21
29.25
29.18
28.81
28.00
26.65
24.71
22.15
19.04
15.61
12.25
9.38
7.33
6.12
5.47
4.86
3.78
1.93
-0.67
-3.79
-7.15
-10.53
-13.89
-17.33
-20.86
-24.45
-28.02
-31.56
-35.15
-38.96
-42.97
-46.85
-49.89
-51.23
-50.18
-46.54
-40.72
-33.56
-26.03
-18.90
-12.65
-7.43
-3.13
0.43
3.45
6.04
8.22
9.94
11.19
12.10
12.94
14.02
15.46
17.08
18.54
19.50
19.83
19.78
19.81
20.20
20.94
21.67
21.92
21.43
20.30
19.00
18.05
17.76
18.09
18.65
19.00
18.81
17.97
16.59
14.81
12.76
10.51
8.13
5.77
3.52
1.42
-0.66
-2.94
-5.61
-8.64
-11.76
-14.62
-16.96
-18.81
-20.54
-22.57
-25.27
-28.76
-32.88
-37.35
-41.81
-45.89
-49.15
-51.07
-51.14
-48.95
-44.52
-38.20
-30.73
-22.95
-15.59
-9.17
-3.86
0.36
3.69
6.39
8.63
10.49
11.94
12.92
13.43
13.67
13.96
14.63
15.87
17.60
19.50
21.21
22.50
23.36
23.94
24.37
24.68
24.77
24.53
23.97
23.24
22.56
21.99
21.44
20.61
19.26
17.33
14.97
12.55
10.39
8.65
7.25
5.93
4.43
2.53
0.23
-2.35
-4.96
-7.40
-9.56
-11.55
-13.68
-16.33
-19.88
-24.48
-29.96
-35.80
-41.26
-45.56
-48.04
-48.28
-46.11
-41.63
-35.17
-27.35
-19.02
-11.16
-4.55
0.38
3.67
5.80
7.45
9.25
11.47
14.08
16.74
18.95
20.37
20.87
20.60
19.95
19.37
19.24
19.78
20.94
22.54
24.20
25.53
26.21
26.09
25.22
23.86
22.31
20.80
19.43
18.19
17.07
16.10
15.35
14.73
14.04
12.95
11.23
8.89
6.24
3.63
1.24
-1.07
-3.69
-6.89
-10.65
-14.48
-17.75
-20.02
-21.34
-22.35
-23.93
-26.85
-31.39
-37.17
-43.27
-48.55
-52.00
-53.00
-51.44
-47.67
-42.29
-35.93
-29.09
-22.15
-15.41
-9.19
-3.78
0.63
4.10
6.86
9.22
11.37
13.33
14.91
15.98
16.56
16.85
17.23
17.93
18.98
20.22
21.38
22.31
23.00
23.58
24.19
24.81
25.29
25.37
24.88
23.83
22.49
21.14
19.95
18.85
17.56
15.82
13.56
10.96
8.42
6.23
4.53
3.16
1.82
0.27
-1.63
-3.89
-6.41
-9.16
-12.04
-14.94
-17.70
-20.26
-22.67
-25.18
-28.07
-31.52
-35.44
-39.43
-42.85
-44.97
-45.19
-43.14
-38.86
-32.80
-25.67
-18.31
-11.46
-5.59
-0.79
3.05
6.16
8.68
10.63
11.98
12.82
13.40
14.06
15.15
16.78
18.78
20.79
22.40
23.47
24.22
25.12
26.64
28.88
31.46
33.59
34.54
33.99
32.24
29.97
27.87
26.19
24.65
22.75
20.15
16.95
13.70
11.00
9.11
7.79
6.43
4.43
1.47
-2.33
-6.54
-10.66
-14.35
-17.51
-20.25
-22.76
-25.37
-28.39
-32.03
-36.34
-41.08
-45.68
-49.40
-51.46
-51.25
-48.50
-43.36
-36.36
-28.29
-20.04
-12.39
-5.82
-0.49
3.70
6.99
9.60
11.67
13.29
14.48
15.35
16.02
16.63
17.31
18.16
19.19
20.44
21.86
23.49
25.31
27.23
29.03
30.43
31.12
30.95
30.04
28.70
27.33
26.25
25.45
24.72
23.73
22.21
20.09
17.54
14.80
12.15
9.77
7.75
6.04
4.49
2.88
1.01
-1.23
-3.78
-6.49
-9.13
-11.61
-13.94
-16.29
-18.86
-21.85
-25.43
-29.65
-34.42
-39.38
-43.96
-47.37
-48.92
-48.19
-45.18
-40.32
-34.22
-27.55
-20.79
-14.26
-8.11
-2.46
2.57
6.84
10.29
12.86
14.59
15.62
16.16
16.45
16.79
17.33
18.17
19.28
20.54
21.88
23.25
24.61
25.90
26.96
27.55
27.45
26.54
24.94
23.06
21.38
20.28
19.80
19.69
19.47
18.66
16.98
14.47
11.45
8.46
6.05
4.55
3.97
3.96
3.93
3.34
1.78
-0.75
-4.02
-7.67
-11.39
-15.10
-18.88
-22.94
-27.44
-32.39
-37.55
-42.44
-46.42
-48.81
-49.10
-47.08
-42.86
-36.85
-29.65
-21.98
-14.54
-8.00
-2.76
1.09
3.74
5.64
7.21
8.79
10.51
12.36
14.27
16.14
17.86
19.29
20.35
21.01
21.46
21.96
22.73
23.83
25.06
26.08
26.60
26.46
25.73
24.61
23.30
21.95
20.64
19.36
18.05
16.62
15.02
13.21
11.30
9.48
7.99
7.02
6.51
6.21
5.70
4.64
2.89
0.59
-1.97
-4.57
-7.11
-9.71
-12.51
-15.60
-18.97
-22.59
-26.48
-30.75
-35.53
-40.71
-45.84
-50.17
-52.81
-53.08
-50.80
-46.29
-40.26
-33.51
-26.70
-20.30
-14.47
-9.28
-4.70
-0.72
2.66
5.47
7.73
9.58
11.14
12.61
14.20
16.02
18.15
20.42
22.69
24.77
26.64
28.30
29.75
30.85
31.29
30.81
29.37
27.26
24.97
23.00
21.50
20.25
18.86
17.07
14.95
12.83
11.13
9.96
9.15
8.32
7.17
5.72
4.22
3.01
2.22
1.65
0.90
-0.40
-2.32
-4.66
-7.09
-9.33
-11.35
-13.40
-15.76
-18.67
-22.23
-26.36
-30.99
-36.00
-41.12
-45.86
-49.39
-50.80
-49.44
-45.23
-38.77
-31.23
-23.79
-17.28
-11.97
-7.59
-3.69
0.02
3.57
6.74
9.31
11.24
12.73
14.08
15.54
17.10
18.56
19.65
20.27
20.60
21.08
22.10
23.78
25.77
27.45
28.15
27.58
25.89
23.59
21.34
19.56
18.38
17.63
17.01
16.24
15.20
13.89
12.41
10.88
9.32
7.69
5.88
3.76
1.25
-1.62
-4.66
-7.65
-10.39
-12.82
-15.00
-17.14
-19.54
-22.52
-26.35
-31.11
-36.49
-41.75
-45.94
-48.07
-47.60
-44.50
-39.23
-32.54
-25.18
-17.76
-10.69
-4.30
1.17
5.53
8.80
11.14
12.81
14.01
14.85
15.38
15.71
16.05
16.68
17.76
19.30
21.02
22.59
23.68
24.20
24.20
23.94
23.64
23.40
23.19
22.89
22.40
21.63
20.55
19.25
17.85
16.55
15.50
14.73
14.09
13.37
12.32
10.88
9.19
7.48
5.94
4.54
2.99
0.90
-2.03
-5.83
-10.15
-14.49
-18.38
-21.59
-24.18
-26.48
-28.91
-31.84
-35.45
-39.70
-44.30
-48.76
-52.44
-54.68
-54.95
-52.93
-48.65
-42.48
-35.07
-27.20
-19.60
-12.79
-6.99
-2.21
1.71
4.87
7.38
9.27
10.62
11.62
12.57
13.76
15.29
17.12
19.01
20.72
22.08
23.08
23.86
24.65
25.69
27.07
28.68
30.22
31.30
31.58
30.99
29.72
28.14
26.58
25.18
23.91
22.64
21.26
19.75
18.11
16.29
14.16
11.65
8.88
6.17
3.88
2.17
0.94
-0.19
-1.62
-3.60
-6.11
-8.92
-11.78
-14.57
-17.29
-20.08
-23.16
-26.78
-31.15
-36.29
-41.93
-47.44
-51.94
-54.56
-54.74
-52.44
-48.07
-42.39
-36.19
-30.13
-24.55
-19.58
-15.14
-10.97
-6.82
-2.49
2.02
6.45
10.41
13.65
16.06
17.86
19.35
20.73
22.04
23.19
24.19
25.13
26.26
27.74
29.49
31.17
32.32
32.66
32.11
30.92
29.42
27.88
26.41
25.03
23.71
22.48
21.41
20.51
19.74
18.98
18.04
16.78
15.17
13.32
11.35
9.42
7.59
5.81
3.96
1.97
-0.26
-2.71
-5.33
-8.07
-10.90
-13.79
-16.76
-19.80
-23.02
-26.62
-30.89
-36.03
-41.95
-48.12
-53.66
-57.49
-58.79
-57.19
-52.90
-46.55
-38.98
-30.99
-23.23
-16.16
-10.07
-5.15
-1.38
1.37
3.38
4.93
6.25
7.52
8.83
10.33
12.17
14.42
16.98
19.61
21.91
23.62
24.70
25.30
25.74
26.20
26.71
27.09
27.19
26.99
26.65
26.42
26.44
26.67
26.88
26.75
26.02
24.65
22.74
20.56
18.40
16.50
14.96
13.75
12.67
11.51
9.98
7.97
5.45
2.55
-0.59
-3.78
-6.90
-9.89
-12.72
-15.44
-18.14
-20.96
-24.11
-27.83
-32.28
-37.39
-42.73
-47.62
-51.20
-52.75
-51.90
-48.76
-43.81
-37.69
-31.05
-24.34
-17.83
-11.64
-5.86
-0.57
4.10
8.00
11.03
13.19
14.60
15.53
16.29
17.17
18.32
19.77
21.41
23.02
24.37
25.35
25.97
26.35
26.63
26.90
27.10
27.07
26.62
25.66
24.22
22.48
20.68
18.95
17.33
15.71
14.00
12.16
10.24
8.40
6.79
5.41
4.14
2.72
0.92
-1.40
-4.20
-7.29
-10.50
-13.62
-16.52
-19.13
-21.50
-23.75
-26.18
-29.13
-32.97
-37.83
-43.52
-49.50
-54.81
-58.42
-59.43
-57.37
-52.34
-45.05
-36.55
-27.96
-20.07
-13.25
-7.42
-2.33
2.18
6.08
9.18
11.35
12.58
13.14
13.44
13.87
14.66
15.86
17.37
19.08
20.88
22.79
24.75
26.70
28.42
29.70
30.32
30.25
29.68
28.90
28.26
27.88
27.69
27.42
26.76
25.56
23.81
21.69
19.42
17.17
15.05
13.08
11.33
9.81
8.53
7.40
6.24
4.84
3.09
0.97
-1.41
-3.94
-6.59
-9.42
-12.56
-16.12
-20.19
-24.77
-29.85
-35.38
-41.14
-46.73
-51.56
-54.94
-56.30
-55.31
-52.05
-46.93
-40.59
-33.68
-26.66
-19.76
-13.05
-6.53
-0.32
5.35
10.13
13.71
16.00
17.12
17.48
17.51
17.64
18.09
18.92
20.10
21.54
23.19
24.97
26.80
28.57
30.15
31.37
32.15
32.40
32.15
31.47
30.47
29.25
27.89
26.48
25.00
23.43
21.74
19.86
17.81
15.64
13.51
11.55
9.88
8.37
6.77
4.73
2.03
-1.27
-4.85
-8.31
-11.36
-13.97
-16.39
-18.92
-21.82
-25.17
-28.94
-33.12
-37.72
-42.68
-47.69
-52.14
-55.13
-55.86
-53.84
-49.14
-42.34
-34.30
-25.90
-17.82
-10.46
-4.05
1.28
5.46
8.52
10.58
11.96
13.05
14.21
15.64
17.34
19.11
20.71
21.98
22.91
23.60
24.23
24.95
25.79
26.67
27.42
27.85
27.78
27.12
25.84
24.01
21.76
19.28
16.82
14.58
12.67
11.08
9.60
8.02
6.16
3.96
1.55
-0.90
-3.25
-5.51
-7.77
-10.14
-12.64
-15.12
-17.38
-19.33
-21.08
-22.96
-25.39
-28.66
-32.89
-37.95
-43.41
-48.74
-53.28
-56.35
-57.41
-56.11
-52.39
-46.58
-39.29
-31.33
-23.48
-16.30
-10.12
-4.99
-0.77
2.77
5.81
8.48
10.90
13.19
15.50
17.99
20.68
23.45
26.08
28.35
30.18
31.65
32.95
34.16
35.32
36.27
36.85
36.95
36.54
35.70
34.52
33.13
31.72
30.46
29.53
28.98
28.63
28.14
27.10
25.26
22.64
19.59
16.63
14.23
12.59
11.51
10.49
9.00
6.62
3.25
-0.93
-5.57
-10.24
-14.59
-18.41
-21.73
-24.64
-27.48
-30.64
-34.59
-39.54
-45.32
-51.25
-56.24
-59.13
-59.08
-55.88
-49.94
-42.19
-33.61
-25.01
-16.85
-9.36
-2.67
3.12
7.82
11.40
13.96
15.84
17.39
18.94
20.60
22.33
24.04
25.63
27.13
28.57
29.95
31.18
32.15
32.80
33.16
33.35
33.47
33.49
33.28
32.70
31.71
30.46
29.11
27.73
26.18
24.20
21.60
18.42
15.00
11.83
9.32
7.58
6.40
5.33
3.91
1.84
-0.95
-4.26
-7.82
-11.29
-14.50
-17.45
-20.39
-23.68
-27.66
-32.58
-38.42
-44.83
-51.13
-56.43
-59.78
-60.45
-58.09
-52.90
-45.48
-36.70
-27.48
-18.66
-10.82
-4.30
0.82
4.77
7.93
10.74
13.54
16.46
19.35
22.01
24.19
25.81
26.86
27.46
27.76
27.88
28.03
28.39
29.07
30.09
31.20
32.05
32.20
31.33
29.36
26.52
23.27
20.19
17.78
16.28
15.60
15.42
15.28
14.81
13.86
12.46
10.74
8.77
6.54
3.95
0.94
-2.41
-5.92
-9.33
-12.59
-15.69
-18.80
-22.10
-25.67
-29.53
-33.64
-37.99
-42.60
-47.35
-51.92
-55.73
-58.05
-58.29
-56.19
-51.95
-46.07
-39.19
-31.84
-24.34
-16.90
-9.70
-2.96
3.03
7.95
11.67
14.24
15.89
17.00
17.95
18.99
20.24
21.67
23.19
24.74
26.32
28.02
29.88
31.85
33.74
35.25
36.07
36.00
35.02
33.31
31.19
29.09
27.33
26.07
25.15
24.21
22.86
20.81
18.09
15.01
12.07
9.67
7.92
6.60
5.27
3.44
0.80
-2.64
-6.58
-10.57
-14.21
-17.31
-19.92
-22.26
-24.58
-27.13
-30.07
-33.56
-37.73
-42.57
-47.74
-52.49
-55.88
-56.95
-55.17
-50.55
-43.64
-35.30
-26.45
-17.87
-10.09
-3.41
2.11
6.57
10.19
13.23
15.83
18.05
19.89
21.38
22.56
23.58
24.48
25.26
25.87
26.30
26.66
27.07
27.61
28.25
28.82
29.13
29.05
28.56
27.72
26.60
25.24
23.57
21.49
18.97
16.09
13.11
10.37
8.18
6.60
5.43
4.20
2.44
-0.14
-3.50
-7.33
-11.19
-14.75
-17.90
-20.82
-23.83
-27.23
-31.28
-35.99
-41.04
-45.80
-49.41
-51.02
-50.09
-46.61
-41.06
-34.26
-27.03
-19.92
-13.18
-6.87
-1.00
4.23
8.58
11.78
13.77
14.70
14.95
14.97
15.21
15.92
17.21
19.00
21.09
23.22
25.16
26.74
27.90
28.64
29.03
29.12
28.98
28.62
28.00
27.10
25.94
24.56
23.04
21.42
19.69
17.78
15.60
13.14
10.49
7.81
5.26
2.86
0.55
-1.77
-4.18
-6.68
-9.16
-11.61
-14.07
-16.61
-19.33
-22.28
-25.50
-29.10
-33.29
-38.30
-44.12
-50.39
-56.28
-60.75
-62.85
-62.07
-58.48
-52.67
-45.38
-37.36
-29.21
-21.32
-14.04
-7.65
-2.33
1.89
5.20
7.92
10.32
12.56
14.59
16.32
17.71
18.83
19.86
20.99
22.29
23.73
25.19
26.60
27.91
29.06
29.96
30.44
30.37
29.73
28.58
27.14
25.60
24.14
22.79
21.60
20.49
19.38
18.14
16.68
14.94
12.99
10.95
8.95
7.03
5.07
2.93
0.50
-2.17
-4.95
-7.71
-10.44
-13.25
-16.32
-19.82
-23.84
-28.41
-33.48
-38.94
-44.55
-49.90
-54.43
-57.55
-58.71
-57.52
-53.94
-48.22
-40.94
-32.83
-24.56
-16.61
-9.14
-2.19
4.16
9.72
14.12
17.11
18.72
19.35
19.63
20.13
21.10
22.41
23.78
24.95
25.91
26.79
27.75
28.81
29.82
30.55
30.87
30.76
30.33
29.68
28.89
27.97
26.86
25.50
23.79
21.57
18.70
15.11
10.93
6.47
2.11
-1.82
-5.23
-8.32
-11.38
-14.70
-18.37
-22.23
-26.05
-29.61
-32.93
-36.24
-39.88
-44.10
-48.77
-53.38
-57.05
-58.87
-58.20
-54.88
-49.30
-42.23
-34.53
-26.86
-19.53
-12.56
-5.85
0.58
6.54
11.70
15.79
18.73
20.74
22.22
23.59
25.14
26.91
28.71
30.32
31.69
32.97
34.48
36.48
38.96
41.55
43.63
44.66
44.41
43.07
41.20
39.43
38.09
37.16
36.25
34.95
32.93
30.14
26.76
23.04
19.24
15.51
11.94
8.55
5.32
2.25
-0.73
-3.72
-6.80
-9.97
-13.19
-16.30
-19.13
-21.64
-23.93
-26.39
-29.54
-33.91
-39.62
-46.31
-53.04
-58.54
-61.65
-61.64
-58.46
-52.65
-45.13
-36.82
-28.42
-20.37
-12.84
-5.94
0.25
5.62
10.06
13.52
16.03
17.70
18.70
19.28
19.67
20.08
20.69
21.61
22.90
24.49
26.28
28.05
29.53
30.49
30.83
30.60
30.02
29.30
28.57
27.78
26.73
25.21
23.11
20.53
17.72
14.98
12.48
10.17
7.83
5.17
2.01
-1.61
-5.42
-9.06
-12.29
-15.07
-17.63
-20.24
-23.17
-26.46
-30.04
-33.87
-37.97
-42.46
-47.25
-51.86
-55.31
-56.41
-54.22
-48.53
-40.01
-30.04
-20.18
-11.58
-4.67
0.81
5.44
9.70
13.70
17.18
19.80
21.41
22.23
22.72
23.36
24.41
25.78
27.18
28.25
28.83
28.99
28.90
28.74
28.55
28.27
27.79
27.02
25.94
24.53
22.79
20.78
18.58
16.33
14.15
12.08
10.06
7.93
5.59
2.98
0.16
-2.79
-5.79
-8.86
-12.12
-15.71
-19.68
-24.02
-28.67
-33.59
-38.77
-44.18
-49.59
-54.49
-58.16
-59.80
-58.95
-55.58
-50.20
-43.54
-36.31
-29.02
-21.93
-15.20
-9.04
-3.75
0.37
3.21
4.88
5.69
6.02
6.18
6.31
6.45
6.61
6.76
6.91
7.04
7.05
6.72
5.82
4.10
1.55
-1.57
-4.68
-6.96
-7.67
-6.44
-3.43
0.65
4.73
7.75
9.01
8.24
5.73
2.13
-1.70
-4.74
-6.07
-5.07
-1.68
3.41
8.90
13.28
15.41
14.94
12.36
8.65
4.73
1.13
-2.15
-5.42
-9.12
-13.55
-18.86
-25.03
-31.70
-38.20
-43.44
-46.14
-45.16
-39.95
-30.79
-18.73
-5.40
7.39
18.14
25.85
30.25
31.71
31.02
29.14
26.88
24.71
22.94
21.71
21.18
21.45
22.53
24.23
26.23
28.19
29.93
31.40
32.68
33.83
34.77
35.23
34.92
33.54
30.97
27.24
22.57
17.30
11.85
6.67
2.18
-1.23
-3.22
-3.56
-2.26
0.49
4.10
7.79
10.65
11.84
10.88
7.71
2.73
-3.39
-9.86
-16.01
-21.43
-25.96
-29.63
-32.58
-34.94
-36.86
-38.47
-39.86
-41.05
-41.82
-41.67
-39.93
-36.02
-29.81
-21.71
-12.67
-3.75
4.16
10.73
16.10
20.59
24.45
27.67
30.05
31.43
31.95
31.96
31.89
31.94
32.06
32.00
31.58
30.87
30.18
29.88
30.14
30.83
31.57
31.97
31.85
31.36
30.83
30.57
30.68
31.00
31.18
30.87
29.85
28.07
25.63
22.69
19.45
16.08
12.71
9.42
6.24
3.08
-0.27
-4.07
-8.55
-13.69
-19.16
-24.36
-28.62
-31.21
-31.72
-30.00
-26.25
-20.90
-14.60
-7.98
-1.63
4.05
8.90
12.94
16.24
18.79
20.46
21.09
20.64
19.30
17.51
15.75
14.35
13.47
13.00
12.71
12.36
11.76
10.84
9.58
8.02
6.20
4.16
1.95
-0.43
-2.91
-5.44
-8.01
-10.66
-13.44
-16.43
-19.58
-22.64
-25.30
-27.41
-29.19
-31.22
-34.26
-38.75
-44.47
-50.49
-55.46
-58.11
-57.74
-54.33
-48.48
-41.05
-32.94
-24.82
-17.15
-10.17
-4.00
1.29
5.64
9.00
11.34
12.69
13.23
13.27
13.14
13.14
13.45
14.21
15.44
17.18
19.37
21.77
24.02
25.71
26.53
26.40
25.48
24.01
22.25
20.34
18.30
16.12
13.79
11.38
9.06
6.98
5.18
3.62
2.06
0.13
-2.57
-6.33
-11.27
-17.18
-23.54
-29.60
-34.46
-37.34
-37.74
-35.45
-30.73
-24.10
-16.31
-8.12
-0.25
6.70
12.25
16.08
18.09
18.46
17.63
16.26
14.90
13.88
13.27
12.91
12.65
12.45
12.37
12.47
12.69
12.85
12.70
12.07
10.89
9.25
7.28
5.10
2.76
0.32
-2.23
-4.86
-7.55
-10.28
-13.06
-15.87
-18.82
-22.01
-25.63
-29.75
-34.35
-39.20
-43.88
-47.86
-50.59
-51.55
-50.39
-47.07
-41.92
-35.61
-28.85
-22.23
-16.00
-10.12
-4.46
0.97
5.92
10.00
12.99
14.95
16.15
16.89
17.25
17.15
16.38
14.99
13.36
12.12
11.82
12.62
14.13
15.66
16.45
16.14
14.80
12.89
10.86
8.97
7.23
5.44
3.42
1.19
-1.13
-3.41
-5.67
-8.11
-11.00
-14.49
-18.52
-22.96
-27.61
-32.34
-36.98
-41.22
-44.50
-46.03
-45.10
-41.36
-35.06
-27.00
-18.26
-9.86
-2.41
3.87
9.06
13.34
16.78
19.35
21.04
21.86
21.96
21.61
21.05
20.52
20.13
19.89
19.76
19.67
19.60
19.56
19.57
19.60
19.58
19.35
18.83
18.04
17.10
16.16
15.30
14.41
13.20
11.34
8.64
5.16
1.21
-2.81
-6.57
-9.90
-12.90
-15.81
-18.92
-22.45
-26.51
-31.01
-35.70
-40.01
-43.22
-44.53
-43.35
-39.50
-33.37
-25.75
-17.59
-9.70
-2.51
3.89
9.59
14.67
19.07
22.65
25.17
26.57
26.89
26.38
25.48
24.71
24.59
25.43
27.18
29.48
31.75
33.44
34.27
34.26
33.65
32.71
31.59
30.39
29.17
27.97
26.73
25.28
23.29
20.50
16.84
12.53
8.00
3.66
-0.29
-3.93
-7.51
-11.40
-15.92
-21.21
-27.13
-33.14
-38.34
-41.67
-42.27
-39.84
-34.88
-28.42
-21.62
-15.33
-9.91
-5.30
-1.38
1.89
4.35
5.89
6.59
6.72
6.67
6.71
6.91
7.12
7.19
7.08
6.98
7.22
8.11
9.76
12.01
14.49
16.75
18.41
19.32
19.52
19.13
18.28
17.02
15.37
13.39
11.21
9.03
7.03
5.27
3.73
2.21
0.47
-1.78
-4.74
-8.51
-13.04
-18.21
-23.75
-29.26
-34.14
-37.67
-39.12
-37.96
-34.15
-28.22
-21.13
-13.94
-7.47
-2.06
2.34
5.95
8.92
11.19
12.63
13.17
12.91
12.08
10.98
9.83
8.84
8.10
7.79
8.03
8.88
10.32
12.24
14.42
16.57
18.27
19.12
18.88
17.68
16.02
14.56
13.91
14.20
15.05
15.76
15.63
14.24
11.61
8.10
4.16
0.18
-3.67
-7.35
-10.90
-14.35
-17.72
-21.04
-24.39
-27.83
-31.35
-34.72
-37.47
-38.82
-38.03
-34.59
-28.56
-20.59
-11.77
-3.27
4.02
9.61
13.42
15.59
16.38
16.10
15.07
13.77
12.67
12.21
12.59
13.70
15.18
16.63
17.71
18.27
18.36
18.14
17.74
17.24
16.66
16.00
15.26
14.47
13.60
12.59
11.24
9.35
6.78
3.54
-0.20
-4.11
-7.90
-11.34
-14.37
-17.03
-19.50
-21.99
-24.77
-28.13
-32.20
-36.86
-41.67
-45.77
-48.22
-48.23
-45.41
-39.99
-32.71
-24.61
-16.77
-9.95
-4.49
-0.30
3.03
5.95
8.71
11.22
13.19
14.35
14.71
14.68
14.76
15.31
16.32
17.41
18.16
18.38
18.27
18.21
18.53
19.24
20.02
20.47
20.25
19.33
17.84
16.03
14.07
12.09
10.13
8.23
6.36
4.37
2.16
-0.40
-3.25
-6.23
-9.08
-11.71
-14.13
-16.52
-19.14
-22.19
-25.77
-29.82
-34.10
-38.13
-41.22
-42.67
-41.90
-38.74
-33.52
-26.93
-19.82
-12.92
-6.65
-1.11
3.69
7.75
10.95
13.13
14.25
14.52
14.30
14.01
13.99
14.32
14.87
15.42
15.76
15.83
15.77
15.79
16.04
16.55
17.18
17.71
17.90
17.65
16.91
15.71
14.17
12.38
10.39
8.25
5.97
3.56
1.08
-1.39
-3.71
-5.80
-7.66
-9.52
-11.65
-14.33
-17.67
-21.57
-25.77
-30.03
-34.16
-38.06
-41.52
-44.16
-45.42
-44.71
-41.69
-36.46
-29.49
-21.60
-13.67
-6.47
-0.48
4.09
7.36
9.60
11.10
12.11
12.76
13.08
13.11
13.00
12.93
13.06
13.49
14.17
15.03
16.05
17.28
18.75
20.35
21.80
22.72
22.80
21.94
20.27
18.09
15.74
13.50
11.55
9.94
8.56
7.20
5.57
3.41
0.63
-2.61
-5.97
-9.12
-11.84
-14.21
-16.49
-19.02
-22.11
-25.91
-30.40
-35.34
-40.26
-44.47
-47.13
-47.52
-45.17
-40.14
-32.97
-24.51
-15.73
-7.49
-0.40
5.23
9.41
12.30
14.21
15.43
16.21
16.69
16.99
17.18
17.33
17.55
17.92
18.48
19.20
19.99
20.75
21.43
21.98
22.40
22.67
22.71
22.45
21.83
20.81
19.38
17.59
15.43
12.94
10.22
7.42
4.82
2.60
0.80
-0.73
-2.27
-4.06
-6.15
-8.41
-10.58
-12.54
-14.37
-16.36
-18.90
-22.30
-26.64
-31.69
-37.00
-41.94
-45.77
-47.83
-47.54
-44.59
-39.04
-31.38
-22.47
-13.36
-5.09
1.66
6.59
9.91
12.04
13.45
14.43
15.01
15.16
14.96
14.70
14.74
15.32
16.37
17.55
18.49
19.01
19.22
19.45
20.03
21.04
22.27
23.37
24.01
24.01
23.37
22.21
20.65
18.84
16.94
15.09
13.39
11.81
10.30
8.70
6.92
4.90
2.61
0.12
-2.49
-5.13
-7.72
-10.21
-12.65
-15.14
-17.81
-20.88
-24.49
-28.78
-33.71
-39.01
-44.07
-48.05
-50.09
-49.58
-46.45
-41.11
-34.29
-26.75
-19.02
-11.41
-4.10
2.64
8.48
13.09
16.30
18.24
19.27
19.87
20.40
21.05
21.85
22.71
23.59
24.50
25.49
26.48
27.32
27.80
27.85
27.54
27.01
26.40
25.69
24.67
23.12
21.05
18.76
16.74
15.44
14.89
14.70
14.24
13.04
10.95
8.28
5.44
2.74
0.17
-2.46
-5.40
-8.67
-12.06
-15.30
-18.19
-20.77
-23.31
-26.10
-29.37
-33.26
-37.73
-42.58
-47.34
-51.30
-53.61
-53.42
-50.30
-44.42
-36.53
-27.75
-19.15
-11.48
-4.94
0.62
5.49
9.85
13.69
16.80
18.98
20.15
20.48
20.35
20.24
20.57
21.54
23.10
25.00
26.94
28.69
30.14
31.34
32.28
32.96
33.19
32.82
31.75
30.01
27.82
25.44
23.15
21.05
19.16
17.39
15.70
14.07
12.56
11.20
9.98
8.89
7.82
6.68
5.30
3.47
0.98
-2.28
-6.18
-10.34
-14.26
-17.54
-20.13
-22.38
-24.91
-28.27
-32.68
-37.91
-43.26
-47.84
-50.79
-51.46
-49.56
-45.25
-39.04
-31.71
-24.08
-16.81
-10.29
-4.63
0.25
4.44
7.97
10.84
13.02
14.56
15.57
16.27
16.94
17.81
19.04
20.63
22.45
24.28
25.92
27.27
28.30
29.07
29.59
29.86
29.79
29.33
28.41
27.09
25.52
23.92
22.54
21.48
20.66
19.76
18.48
16.73
14.66
12.65
11.01
9.72
8.38
6.48
3.66
-0.05
-4.15
-8.05
-11.29
-13.83
-15.97
-18.22
-20.98
-24.44
-28.53
-33.08
-37.88
-42.67
-47.11
-50.64
-52.53
-52.04
-48.77
-42.84
-35.00
-26.39
-18.20
-11.20
-5.56
-0.94
3.22
7.32
11.37
15.05
17.88
19.59
20.22
20.13
19.88
19.94
20.58
21.80
23.42
25.21
26.96
28.51
29.72
30.52
30.83
30.64
29.97
28.86
27.38
25.65
23.84
22.17
20.82
19.84
19.03
18.02
16.40
13.96
10.80
7.34
4.11
1.48
-0.54
-2.19
-3.92
-6.08
-8.74
-11.74
-14.79
-17.61
-20.08
-22.24
-24.31
-26.56
-29.35
-32.90
-37.31
-42.37
-47.55
-52.06
-55.01
-55.68
-53.73
-49.24
-42.72
-34.94
-26.76
-18.96
-12.11
-6.48
-2.00
1.63
4.83
7.88
10.88
13.69
16.04
17.73
18.71
19.14
19.34
19.67
20.40
21.66
23.37
25.32
27.24
28.85
29.98
30.48
30.31
29.47
28.10
26.44
24.84
23.63
22.96
22.67
22.31
21.41
19.65
17.13
14.29
11.72
9.82
8.62
7.79
6.77
5.05
2.34
-1.25
-5.36
-9.49
-13.21
-16.31
-18.83
-21.04
-23.24
-25.67
-28.42
-31.54
-35.04
-38.88
-42.89
-46.61
-49.35
-50.32
-48.98
-45.30
-39.73
-33.02
-25.93
-18.99
-12.48
-6.51
-1.23
3.13
6.42
8.64
10.03
11.00
11.95
13.13
14.58
16.12
17.57
18.78
19.73
20.56
21.47
22.68
24.22
25.96
27.49
28.39
28.38
27.44
25.91
24.28
22.88
21.76
20.62
19.03
16.72
13.80
10.71
8.10
6.37
5.55
5.25
4.89
4.03
2.51
0.55
-1.55
-3.60
-5.68
-8.01
-10.80
-14.08
-17.69
-21.45
-25.26
-29.22
-33.42
-37.81
-41.98
-45.27
-46.95
-46.51
-43.85
-39.28
-33.45
-27.08
-20.70
-14.67
-9.02
-3.71
1.29
5.84
9.67
12.47
14.16
14.97
15.34
15.75
16.40
17.16
17.69
17.74
17.33
16.83
16.76
17.41
18.79
20.50
22.03
22.89
22.90
22.11
20.84
19.42
18.10
16.95
15.84
14.52
12.86
10.90
8.88
7.17
6.02
5.37
4.85
3.88
2.00
-0.91
-4.47
-8.03
-10.94
-12.92
-14.21
-15.36
-17.00
-19.59
-23.27
-27.83
-32.95
-38.20
-43.12
-47.09
-49.40
-49.41
-46.79
-41.71
-34.89
-27.33
-20.00
-13.55
-8.15
-3.62
0.43
4.30
8.17
11.98
15.54
18.54
20.75
22.06
22.55
22.41
21.95
21.45
21.12
21.07
21.38
22.10
23.21
24.62
26.06
27.17
27.61
27.19
26.01
24.40
22.75
21.31
20.14
19.08
17.95
16.59
14.99
13.19
11.23
9.08
6.74
4.25
1.74
-0.61
-2.69
-4.56
-6.42
-8.55
-11.15
-14.25
-17.80
-21.69
-25.88
-30.38
-35.10
-39.78
-43.90
-46.76
-47.68
-46.22
-42.32
-36.32
-28.89
-20.81
-12.85
-5.60
0.59
5.60
9.52
12.56
15.04
17.19
19.18
21.03
22.66
23.89
24.61
24.79
24.56
24.18
23.97
24.17
24.89
25.96
27.08
27.84
27.91
27.12
25.56
23.51
21.34
19.39
17.87
16.83
16.15
15.64
15.08
14.16
12.67
10.42
7.38
3.69
-0.37
-4.45
-8.27
-11.73
-14.85
-17.75
-20.52
-23.19
-25.76
-28.28
-30.89
-33.76
-36.94
-40.21
-43.06
-44.80
-44.81
-42.76
-38.72
-33.11
-26.55
-19.67
-13.04
-7.00
-1.76
2.59
6.05
8.64
10.51
11.84
12.88
13.91
15.18
16.91
19.18
21.88
24.69
27.13
28.80
29.56
29.60
29.40
29.45
29.97
30.78
31.39
31.24
30.03
27.80
24.88
21.60
18.20
14.84
11.60
8.64
6.09
3.91
1.81
-0.64
-3.89
-8.07
-13.00
-18.22
-23.32
-28.19
-33.08
-38.55
-45.08
-52.70
-60.79
-68.17
-73.48
-75.59
-73.98
-68.79
-60.75
-50.91
-40.34
-30.00
-20.66
-12.87
-6.89
-2.81
-0.41
0.77
1.31
1.77
2.57
3.86
5.53
7.39
9.20
10.87
12.45
14.09
15.88
17.76
19.57
21.12
22.28
23.00
23.26
23.01
22.16
20.63
18.45
15.73
12.63
9.30
5.80
2.22
-1.30
-4.64
-7.67
-10.46
-13.27
-16.57
-20.72
-25.85
-31.66
-37.39
-42.11
-44.86
-45.03
-42.49
-37.61
-31.12
-23.84
-16.56
-9.86
-4.11
0.49
3.87
5.99
6.97
7.06
6.57
5.94
5.53
5.61
6.33
7.71
9.64
11.87
14.08
15.93
17.20
17.80
17.85
17.55
17.14
16.71
16.25
15.62
14.69
13.37
11.71
9.83
7.82
5.78
3.64
1.26
-1.51
-4.82
-8.76
-13.28
-18.16
-22.94
-27.00
-29.62
-30.18
-28.42
-24.48
-18.89
-12.39
-5.67
0.77
6.70
12.05
16.74
20.59
23.37
24.95
25.39
25.02
24.34
23.81
23.71
24.05
24.64
25.18
25.50
25.53
25.33
25.06
24.87
24.75
24.52
23.97
22.91
21.32
19.38
17.29
15.21
13.06
10.60
7.66
4.32
0.89
-2.20
-4.78
-7.03
-9.54
-12.94
-17.55
-23.13
-28.91
-33.89
-37.14
-38.04
-36.45
-32.66
-27.23
-20.90
