1520265420.00
64.000000
-0.00
-0.00
-0.00
-0.00
-0.00
-0.00
-0.00
-0.00
-0.00
-0.00
0.00
0.01
0.01
-0.00
-0.03
-0.05
-0.05
0.00
0.13
0.36
0.66
1.01
1.37
1.72
2.06
2.40
2.79
3.24
3.80
4.42
5.06
5.66
6.20
6.68
7.15
7.68
8.31
9.14
10.09
11.04
11.88
12.56
13.14
13.76
14.65
15.96
17.91
20.32
22.90
25.38
27.58
29.57
31.68
34.32
37.81
42.54
48.15
54.10
59.83
64.97
69.58
74.14
79.34
85.71
93.76
103.00
112.62
121.73
129.77
136.75
143.30
150.75
157.77
166.64
177.95
191.79
206.97
220.57
228.25
225.36
208.53
176.87
132.76
80.05
23.07
-34.94
-92.44
-149.16
-205.23
-260.37
-313.74
-363.87
-409.83
-450.91
-486.50
-515.74
-537.23
-549.22
-549.96
-538.37
-514.21
-478.67
-433.88
-382.45
-327.02
-269.84
-212.63
-156.66
-102.95
-52.37
-5.90
35.58
71.43
101.35
125.50
144.38
158.69
169.15
176.37
180.75
182.57
182.07
179.51
175.23
169.65
163.18
156.15
148.81
141.30
133.69
126.02
118.33
110.69
103.16
95.80
88.68
81.83
75.25
68.95
62.95
57.25
51.86
46.78
42.03
37.59
33.45
29.61
26.07
22.81
19.83
17.11
14.67
12.48
10.54
8.83
7.35
6.07
4.97
4.05
3.27
2.62
2.09
1.65
1.30
1.01
0.79
0.61
0.47
0.37
0.29
0.23
0.18
0.15
0.14
0.13
0.13
0.14
0.16
0.18
0.21
0.25
0.28
0.33
0.37
0.41
0.46
0.50
0.55
0.60
0.65
0.71
0.77
0.83
0.90
0.98
1.06
1.16
1.26
1.38
1.52
1.67
1.84
2.03
2.24
2.48
2.74
3.04
3.36
3.71
4.09
4.51
4.96
5.45
5.98
6.54
7.14
7.78
8.47
9.19
9.96
10.78
11.63
12.53
13.49
14.50
15.58
16.72
17.91
19.16
20.42
21.65
22.78
23.73
24.37
24.58
24.28
23.34
21.73
19.43
16.47
12.92
8.94
4.71
0.41
-3.73
-7.52
-10.78
-13.38
-15.24
-16.33
-16.64
-16.25
-15.27
-13.79
-11.94
-9.82
-7.51
-5.10
-2.66
-0.22
2.07
4.14
5.95
7.46
8.72
9.76
10.64
11.41
12.17
12.84
13.41
13.92
14.49
15.26
16.39
18.04
20.35
23.43
27.01
30.92
35.06
39.39
43.96
48.83
54.10
59.79
65.96
71.99
77.55
82.45
86.72
90.63
94.51
98.62
103.07
107.85
112.01
114.85
115.90
114.97
112.09
107.14
99.52
87.54
73.80
58.36
41.01
21.72
0.87
-20.82
-42.51
-63.49
-83.41
-102.11
-120.49
-139.42
-159.95
-183.16
-209.76
-239.25
-269.24
-295.42
-312.51
-316.66
-306.44
-283.62
-252.52
-218.36
-185.35
-155.69
-129.69
-106.73
-86.59
-69.32
-55.05
-43.45
-33.47
-23.81
-13.71
-3.44
5.90
12.78
16.44
17.30
16.64
15.86
15.59
15.41
14.22
11.11
6.17
0.86
-2.37
-1.10
6.14
19.16
36.18
54.39
70.76
82.87
89.47
90.61
87.43
81.69
75.16
69.39
65.33
63.29
63.02
63.88
65.03
65.71
65.41
64.03
61.75
58.92
55.83
52.61
49.15
45.14
40.28
34.37
27.41
19.73
11.87
4.46
-1.98
-7.21
-11.39
-15.02
-18.80
-23.33
-28.85
-35.15
-41.65
-47.64
-52.46
-55.67
-57.06
-56.52
-54.09
-49.96
-44.66
-39.18
-34.80
-32.67
-33.30
-36.23
-40.11
-43.29
-44.47
-43.17
-39.86
-35.61
-31.59
-28.66
-27.29
-27.38
-28.39
-29.36
-28.97
-25.74
-18.53
-7.14
7.41
23.04
37.32
48.45
55.76
59.73
61.39
61.62
60.72
58.47
54.65
49.38
43.31
37.26
31.79
26.87
22.03
16.65
10.43
3.51
-3.71
-10.86
-17.84
-24.75
-31.81
-39.01
-45.95
-51.88
-55.96
-57.56
-56.54
-53.33
-48.69
-43.41
-37.93
-32.22
-25.95
-18.70
-10.29
-0.86
9.15
19.08
28.27
36.10
42.14
46.26
48.75
50.25
51.59
53.48
56.23
59.66
63.18
66.12
67.99
68.65
68.28
67.31
66.15
65.03
63.87
62.17
59.06
53.49
44.67
32.45
17.55
1.49
-14.00
-27.45
-38.02
-45.57
-50.41
-53.13
-54.47
-55.20
-55.97
-57.13
-58.39
-58.89
-57.35
-52.71
-44.57
-33.53
-20.83
-7.87
4.35
15.33
24.93
33.02
39.32
43.52
45.56
45.84
45.18
44.46
44.22
44.44
44.46
43.36
40.43
35.46
28.81
21.31
13.91
7.43
2.44
-0.87
-2.69
-3.53
-4.05
-4.86
-6.16
-7.63
-8.51
-7.97
-5.47
-1.12
4.42
10.15
15.17
18.88
21.11
21.88
21.27
19.32
16.10
11.92
7.38
3.37
0.77
0.14
1.47
4.17
7.25
9.64
10.55
9.65
7.10
3.45
-0.59
-4.32
-7.27
-9.18
-10.16
-10.51
-10.70
-11.25
-12.62
-15.18
-19.02
-23.96
-29.51
-35.08
-40.29
-45.22
-50.44
-56.64
-64.05
-71.97
-78.74
-82.38
-81.57
-76.33
-68.15
-59.28
-51.69
-46.26
-42.55
-39.27
-35.11
-29.36
-22.09
-13.91
-5.47
2.85
10.95
18.77
26.09
32.33
36.69
38.46
37.41
33.91
28.94
23.67
19.01
15.36
12.39
9.49
6.06
1.91
-2.73
-7.43
-11.73
-15.39
-18.32
-20.49
-21.85
-22.38
-22.28
-21.96
-21.83
-22.13
-22.65
-22.77
-21.79
-19.28
-15.37
-10.68
-6.03
-2.04
1.14
3.79
6.39
9.32
12.59
15.88
18.70
20.64
21.66
22.16
22.76
24.11
26.61
30.21
34.53
38.98
43.12
46.69
49.69
52.22
54.36
55.99
56.88
56.77
55.51
53.09
49.72
45.63
41.11
36.30
31.30
26.09
20.68
15.03
9.17
3.13
-2.99
-8.99
-14.50
-19.04
-22.11
-23.38
-22.82
-20.75
-17.78
-14.61
-11.79
-9.57
-7.78
-6.05
-3.87
-0.94
2.77
7.05
11.46
15.59
19.10
21.90
24.07
25.85
27.54
29.40
31.62
34.28
37.34
40.57
43.50
45.44
45.59
43.36
38.64
31.94
24.34
17.12
11.32
7.47
5.52
5.07
5.64
6.89
8.62
10.68
12.89
14.91
16.35
16.77
15.80
13.08
8.46
2.15
-5.11
-12.07
-17.25
-19.42
-18.13
-13.95
-8.30
-3.03
0.15
0.19
-3.11
-8.99
-16.01
-22.29
-26.03
-25.85
-21.23
-12.63
-1.42
10.46
21.01
28.58
32.15
31.45
26.97
19.84
11.59
3.80
-2.32
-6.28
-8.35
-9.36
-10.24
-11.59
-13.49
-15.66
-17.77
-19.77
-22.15
-25.71
-31.32
-39.45
-49.85
-61.33
-72.00
-79.62
-82.42
-79.70
-72.29
-62.36
-52.76
-45.96
-43.28
-44.53
-48.48
-53.58
-58.68
-63.27
-67.21
-70.21
-71.46
-69.78
-64.06
-53.87
-39.74
-23.13
-5.93
10.02
23.31
33.14
39.19
41.54
40.48
36.49
30.20
22.43
14.14
6.40
0.24
-3.61
-4.89
-3.95
-1.65
0.88
2.56
2.74
1.24
-1.53
-4.76
-7.44
-8.60
-7.60
-4.33
0.77
6.89
13.09
18.54
22.77
25.59
27.04
27.31
26.68
25.53
24.26
23.23
22.66
22.63
23.14
24.23
25.94
28.26
30.96
33.64
35.73
36.83
36.85
36.08
35.05
34.32
34.21
34.72
35.67
36.75
37.69
38.23
38.03
36.69
33.89
29.47
23.67
17.16
10.82
5.49
1.60
-0.99
-2.82
-4.58
-6.70
-9.20
-11.77
-14.02
-15.76
-17.04
-18.01
-18.84
-19.63
-20.60
-22.18
-25.04
-29.73
-36.05
-42.75
-47.64
-48.37
-43.46
-32.97
-18.56
-2.80
11.78
23.45
31.52
36.04
37.42
36.17
32.90
28.43
23.82
20.14
18.14
17.94
19.09
20.86
22.61
23.99
25.01
25.80
26.42
26.83
26.88
26.40
25.26
23.33
20.44
16.30
10.67
3.53
-4.76
-13.44
-21.52
-28.11
-32.64
-35.07
-35.75
-35.25
-34.19
-32.97
-31.85
-30.99
-30.56
-30.79
-31.87
-33.88
-36.65
-39.68
-42.27
-43.73
-43.68
-42.14
-39.59
-36.62
-33.73
-31.07
-28.46
-25.64
-22.54
-19.51
-17.19
-16.24
-17.00
-19.24
-22.30
-25.32
-27.60
-28.76
-28.79
-27.74
-25.67
-22.45
-18.00
-12.34
-5.73
1.33
8.21
14.30
18.98
21.66
21.86
19.34
14.30
7.50
0.15
-6.41
-11.07
-13.34
-13.42
-12.15
-10.73
-10.33
-11.60
-14.42
-17.78
-20.08
-19.69
-15.66
-8.13
1.54
11.23
18.70
22.25
21.10
15.41
6.13
-5.28
-17.18
-28.11
-37.03
-43.59
-48.08
-51.19
-53.68
-56.01
-58.17
-59.69
-59.91
-58.29
-54.53
-48.78
-41.44
-33.06
-24.18
-15.29
-6.79
0.99
7.83
13.61
18.38
22.33
25.68
28.61
31.16
33.32
35.03
36.33
37.38
38.43
39.70
41.21
42.77
44.03
44.57
44.16
42.81
40.82
38.61
36.51
34.66
32.99
31.21
29.04
26.24
22.73
18.54
13.80
8.73
3.50
-1.77
-7.07
-12.53
-18.23
-23.97
-29.23
-33.11
-34.64
-33.12
-28.42
-21.21
-12.72
-4.44
2.39
7.11
9.83
11.24
12.27
13.66
15.75
18.46
21.41
24.26
26.82
29.12
31.24
33.21
34.94
36.16
36.63
36.25
35.12
33.54
31.97
30.75
30.03
29.64
29.17
28.12
26.14
23.13
19.34
15.24
11.36
8.07
5.51
3.43
1.38
-1.23
-4.92
-9.99
-16.44
-23.89
-31.67
-38.85
-44.47
-47.64
-47.84
-45.05
-39.75
-32.83
-25.32
-18.05
-11.44
-5.53
-0.08
5.20
10.47
15.75
20.86
25.55
29.61
32.91
35.51
37.61
39.54
41.55
43.73
46.01
48.13
49.87
51.12
51.97
52.64
53.38
54.34
55.52
56.81
58.04
59.10
59.95
60.62
61.14
61.51
61.61
61.36
60.76
59.86
58.64
56.78
53.43
47.36
37.28
22.34
2.75
-20.15
-44.14
-66.70
-85.69
-99.74
-108.27
-111.30
-109.33
-103.18
-94.02
-83.29
-72.58
-63.29
-56.34
-51.97
-49.91
-49.51
-50.13
-51.34
-52.88
-54.59
-56.18
-57.22
-57.16
-55.50
-52.03
-46.97
-40.92
-34.69
-28.94
-24.03
-19.98
-16.63
-13.90
-11.91
-10.87
-10.92
-11.86
-13.19
-14.24
-14.51
-13.84
-12.41
-10.65
-9.06
-8.11
-8.24
-9.77
-12.75
-16.81
-21.11
-24.52
-26.00
-24.97
-21.54
-16.35
-10.29
-4.11
1.73
7.06
11.86
16.06
19.55
22.21
24.04
25.22
26.04
26.88
28.02
29.60
31.59
33.83
36.10
38.16
39.83
40.97
41.43
41.10
39.94
38.08
35.85
33.76
32.27
31.67
31.89
32.49
32.85
32.37
30.74
28.02
24.66
21.22
18.27
16.10
14.70
13.81
13.00
11.84
10.03
7.54
4.65
2.03
0.55
1.12
4.35
10.39
18.81
28.71
38.98
48.52
56.54
62.52
66.38
68.32
68.69
67.87
66.09
63.36
59.56
54.62
48.62
41.90
34.94
28.25
22.28
17.42
13.99
12.25
12.37
14.25
17.45
21.09
24.13
25.57
24.89
22.11
17.83
12.93
8.27
4.35
1.23
-1.45
-4.31
-8.05
-13.31
-20.63
-30.28
-42.25
-56.00
-70.38
-83.84
-94.70
-101.72
-104.52
-103.65
-100.38
-96.26
-92.66
-90.42
-89.92
-91.15
-93.74
-96.99
-99.74
-100.40
-97.33
-89.34
-76.26
-59.25
-40.52
-22.59
-7.61
3.33
10.31
14.17
16.03
16.78
16.87
16.40
15.32
13.67
11.66
9.63
7.99
7.10
7.28
8.64
11.00
13.84
16.29
17.43
16.56
13.50
8.66
2.95
-2.59
-7.16
-10.52
-13.12
-16.03
-20.61
-27.95
-38.33
-50.87
-63.56
-73.82
-79.19
-78.21
-70.81
-58.31
-42.97
-27.28
-13.37
-2.51
4.88
9.20
11.32
12.27
13.01
14.25
16.39
19.55
23.61
28.30
33.21
37.93
42.20
45.97
49.37
52.65
56.00
59.50
63.19
67.03
71.03
75.19
79.43
83.50
87.11
90.01
92.08
93.41
94.07
94.02
92.85
89.93
84.47
75.84
63.79
48.47
30.58
11.43
-6.94
-22.03
-31.26
-32.85
-26.58
-14.09
1.40
16.07
26.52
30.66
28.11
20.10
9.16
-1.43
-8.46
-9.61
-4.28
6.03
18.19
28.55
34.38
34.63
29.93
21.63
10.74
-2.45
-17.92
-34.86
-50.96
-62.69
-66.62
-61.15
-47.78
-30.99
-16.95
-11.32
-17.27
-34.63
-60.10
-88.31
-113.20
-129.23
-132.28
-120.33
-94.10
-57.10
-15.29
24.26
55.07
73.03
77.22
69.74
54.35
34.98
14.74
-4.22
-20.16
-31.12
-34.83
-29.33
-13.93
10.02
39.05
68.22
92.35
107.35
111.16
103.99
88.14
67.24
45.36
26.21
12.51
5.72
5.99
12.33
22.79
34.72
45.17
51.34
51.04
43.12
27.75
6.44
-18.21
-42.90
-64.28
-79.59
-87.33
-87.58
-81.92
-72.89
-63.18
-54.88
-49.11
-46.08
-45.39
-46.41
-48.40
-50.55
-51.97
-51.78
-49.35
-44.50
-37.70
-29.97
-22.61
-16.82
-13.42
-12.64
-14.05
-16.87
-20.24
-23.60
-26.78
-30.03
-33.65
-37.72
-41.94
-45.66
-48.24
-49.28
-48.79
-47.19
-45.09
-43.07
-41.63
-41.15
-41.87
-43.86
-47.02
-51.05
-55.51
-59.87
-63.65
-66.42
-67.83
-67.66
-65.90
-62.72
-58.51
-53.65
-48.42
-42.85
-36.76
-30.02
-22.60
-14.74
-6.71
1.29
9.30
17.51
26.00
34.50
42.28
48.45
52.24
53.50
52.66
50.56
48.06
45.68
43.65
41.99
40.72
40.00
39.97
40.60
41.60
42.53
42.97
42.71
41.76
40.28
38.43
36.43
34.53
33.03
32.20
32.14
32.60
33.08
33.06
32.12
30.03
26.73
22.16
16.37
9.55
2.23
-4.86
-10.99
-15.74
-19.09
-21.29
-22.54
-22.74
-21.55
-18.68
-14.32
-9.27
-4.62
-1.21
0.81
2.07
3.58
6.10
9.83
14.34
18.89
22.87
26.06
28.58
30.71
32.70
34.64
36.54
38.39
40.18
41.85
43.25
44.16
44.36
43.80
42.59
40.97
39.26
37.68
36.32
35.03
33.34
30.62
26.20
19.81
11.71
2.90
-5.26
-11.54
-15.35
-17.05
-17.68
-18.52
-20.43
-23.57
-27.51
-31.59
-35.26
-38.09
-39.74
-39.65
-37.10
-31.23
-21.43
-7.42
10.49
31.27
53.01
72.75
87.01
92.47
87.26
71.77
48.76
22.50
-2.77
-24.33
-41.76
-56.75
-72.09
-90.37
-112.82
-138.52
-164.37
-185.53
-196.66
-193.37
-173.80
-139.53
-95.60
-49.28
-8.22
21.48
36.67
37.65
27.59
11.35
-5.97
-20.34
-29.57
-33.48
-33.40
-31.36
-29.28
-28.38
-29.17
-31.51
-34.82
-38.25
-40.68
-40.75
-37.12
-28.73
-15.23
2.81
23.94
46.18
67.45
85.97
100.44
110.04
114.28
112.91
106.09
94.55
79.67
63.36
47.68
34.23
23.70
15.84
9.58
3.69
-2.76
-10.12
-18.22
-26.61
-34.92
-42.86
-50.12
-56.24
-60.47
-62.02
-60.41
-55.73
-48.60
-40.01
-30.86
-21.98
-14.22
-8.77
-7.00
-9.83
-16.84
-25.96
-33.85
-37.19
-34.16
-25.13
-12.32
1.50
14.32
25.58
35.73
45.39
54.56
62.46
68.10
70.91
71.16
69.81
67.98
66.45
65.38
64.42
62.97
60.55
57.09
52.95
48.83
45.50
43.50
42.86
43.04
43.08
41.87
38.65
33.20
25.96
17.91
10.24
4.03
-0.00
-1.70
-1.50
-0.29
0.69
0.25
-2.44
-7.46
-14.12
-21.08
-26.81
-30.13
-30.57
-28.51
-24.89
-20.79
-17.03
-13.92
-11.31
-8.81
-6.11
-3.03
0.41
4.22
8.47
13.23
18.40
23.60
28.08
30.95
31.61
30.00
26.79
23.14
20.25
18.95
19.44
21.28
23.64
25.72
26.98
27.23
26.58
25.21
23.28
20.84
17.93
14.70
11.50
8.88
7.44
7.64
9.58
12.92
16.90
20.54
22.88
23.29
21.60
18.13
13.54
8.58
3.93
-0.03
-3.17
-5.64
-7.71
-9.70
-11.82
-14.03
-16.08
-17.53
-17.92
-16.94
-14.57
-11.10
-7.11
-3.29
-0.24
1.66
2.41
2.34
1.95
1.74
1.97
2.56
3.19
3.46
3.15
2.32
1.23
0.17
-0.70
-1.46
-2.33
-3.58
-5.32
-7.55
-10.17
-13.10
-16.34
-19.87
-23.52
-26.85
-29.19
-29.86
-28.49
-25.17
-20.57
-15.62
-11.25
-7.99
-5.96
-4.87
-4.32
-3.94
-3.55
-3.12
-2.70
-2.34
-2.05
-1.80
-1.51
-1.10
-0.52
0.25
1.20
2.20
3.09
3.75
4.11
4.17
3.99
3.65
3.16
2.53
1.82
1.12
0.57
0.21
-0.02
-0.39
-1.17
-2.59
-4.62
-7.03
-9.50
-11.75
-13.74
-15.66
-17.87
-20.70
-24.31
-28.63
-33.33
-38.00
-42.11
-45.12
-46.45
-45.52
-41.94
-35.80
-27.79
-19.17
-11.41
-5.70
-2.49
-1.44
-1.65
-2.17
-2.45
-2.46
-2.56
-3.14
-4.29
-5.80
-7.16
-7.90
-7.72
-6.59
-4.71
-2.33
0.28
2.90
5.37
7.56
9.38
10.87
12.28
14.14
17.15
21.96
28.94
38.01
48.68
60.26
72.10
83.69
94.65
104.50
112.54
117.85
119.60
117.37
111.43
102.76
92.79
83.08
75.00
69.44
66.70
66.28
67.00
67.26
65.59
61.23
54.42
46.27
38.13
30.93
25.01
20.52
18.02
18.67
23.73
33.45
46.29
59.04
67.99
70.52
66.25
56.96
45.53
34.49
25.08
17.14
9.72
1.95
-6.56
-15.67
-25.09
-34.60
-44.16
-53.81
-63.48
-72.79
-81.01
-87.22
-90.64
-90.95
-88.53
-84.34
-79.59
-75.35
-72.27
-70.53
-69.96
-70.22
-70.87
-71.40
-71.26
-69.93
-67.19
-63.15
-58.37
-53.60
-49.55
-46.63
-44.88
-43.97
-43.44
-42.84
-41.88
-40.42
-38.43
-35.92
-32.92
-29.50
-25.81
-22.12
-18.77
-16.08
-14.17
-12.91
-11.95
-10.87
-9.31
-7.23
-4.82
-2.49
-0.58
0.74
1.58
2.25
3.09
4.37
6.17
8.44
10.94
13.41
15.54
17.12
18.17
18.94
19.99
21.92
25.27
30.20
36.48
43.55
50.90
58.30
65.96
74.35
83.81
94.19
104.63
113.75
120.04
122.33
120.09
113.36
102.55
88.12
70.52
50.27
28.23
5.74
-15.37
-33.16
-45.96
-52.81
-53.84
-50.27
-44.24
-38.24
-34.41
-33.90
-36.62
-41.34
-46.36
-50.11
-51.69
-50.95
-48.26
-44.20
-39.26
-34.00
-29.03
-25.21
-23.51
-24.63
-28.68
-34.90
-41.68
-47.06
-49.17
-46.87
-40.04
-29.66
-17.47
-5.39
5.11
13.27
19.23
23.64
27.35
30.95
34.63
38.15
40.97
42.49
42.34
40.49
37.43
34.00
31.06
29.18
28.27
27.55
25.82
22.01
15.63
7.07
-2.57
-11.90
-19.73
-25.51
-29.41
-32.20
-34.85
-38.26
-42.95
-49.01
-56.05
-63.40
-70.25
-75.93
-80.05
-82.68
-84.33
-85.74
-87.56
-89.96
-92.56
-94.53
-95.02
-93.68
-90.90
-87.77
-85.67
-85.66
-88.23
-93.10
-99.39
-105.92
-111.29
-114.17
-113.54
-109.22
-102.25
-94.74
-88.86
-85.56
-83.56
-79.78
-70.93
-55.71
-36.22
-17.46
-5.36
-4.00
-13.81
-31.58
-51.98
-69.82
-81.54
-85.55
-81.59
-69.90
-51.01
-26.02
2.83
32.22
58.30
77.85
89.32
93.18
91.59
87.32
82.67
78.81
75.73
72.76
69.23
64.84
59.80
54.56
49.62
45.28
41.60
38.44
35.57
32.71
29.70
26.41
22.88
19.16
15.44
11.91
8.78
6.21
4.19
2.57
0.91
-1.31
-4.60
-9.23
-15.03
-21.29
-26.96
-30.85
-32.10
-30.50
-26.47
-20.99
-15.13
-9.73
-5.13
-1.31
2.00
5.04
7.96
10.77
13.44
15.94
18.19
20.09
21.54
22.50
23.12
23.63
24.36
25.45
26.88
28.41
29.74
30.59
30.91
30.78
30.34
29.70
28.86
27.73
26.26
24.43
22.31
19.97
17.50
14.91
12.22
9.48
6.82
4.39
2.24
0.26
-1.84
-4.48
-8.03
-12.58
-17.79
-22.90
-26.86
-28.72
-27.89
-24.39
-18.86
-12.37
-6.00
-0.54
3.69
6.86
9.35
11.52
13.53
15.35
16.86
18.00
18.78
19.33
19.78
20.18
20.53
20.81
21.01
21.24
21.64
22.30
23.22
24.26
25.12
25.49
25.14
24.00
22.21
20.10
18.02
16.20
14.68
13.28
11.77
9.97
7.87
5.56
3.23
0.97
-1.27
-3.62
-6.19
-9.08
-12.25
-15.61
-19.03
-22.36
-25.33
-27.49
-28.37
-27.53
-24.89
-20.77
-15.84
-10.83
-6.26
-2.31
1.16
4.40
7.52
10.44
12.99
15.02
16.54
17.72
18.75
19.78
20.81
21.70
22.33
22.56
22.38
21.84
21.11
20.40
19.86
19.52
19.29
18.94
18.28
17.22
15.82
14.24
12.60
10.91
9.15
7.21
5.12
2.95
0.86
-1.09
-2.95
-4.86
-7.00
-9.43
-12.08
-14.69
-16.86
-18.18
-18.24
-16.87
-14.10
-10.31
-6.03
-1.83
1.96
5.21
8.04
10.55
12.73
14.39
15.34
15.52
15.16
14.65
14.39
14.62
15.27
16.13
16.93
17.56
17.99
18.29
18.46
18.39
17.94
17.02
15.65
14.00
12.30
10.71
9.27
7.88
6.45
4.96
3.50
2.18
0.98
-0.28
-1.93
-4.23
-7.20
-10.48
-13.47
-15.43
-15.81
-14.37
-11.27
-6.98
-2.14
2.55
6.59
9.66
11.71
12.89
13.49
13.77
13.89
13.94
13.96
13.99
14.08
14.29
14.62
15.05
15.47
15.80
16.02
16.11
16.06
15.90
15.55
14.93
13.95
12.53
10.72
8.66
6.62
4.83
3.44
2.38
1.44
0.28
-1.37
-3.57
-6.19
-8.92
-11.41
-13.39
-14.67
-15.10
-14.49
-12.70
-9.75
-5.82
-1.40
2.90
6.50
9.04
10.49
11.04
11.03
10.77
10.46
10.19
10.02
9.95
9.99
10.14
10.41
10.79
11.25
11.75
12.23
12.61
12.86
12.93
12.77
12.33
11.49
10.18
8.40
6.28
4.08
2.08
0.51
-0.59
-1.35
-2.05
-3.01
-4.52
-6.68
-9.47
-12.66
-15.78
-18.34
-19.81
-19.81
-18.24
-15.24
-11.25
-6.86
-2.64
0.95
3.66
5.50
6.62
7.29
7.74
8.12
8.51
8.95
9.41
9.86
10.26
10.53
10.64
10.63
10.55
10.51
10.56
10.66
10.74
10.69
10.42
9.89
9.11
8.00
6.53
4.65
2.44
0.05
-2.28
-4.32
-5.95
-7.18
-8.16
-9.12
-10.32
-11.98
-14.12
-16.57
-18.88
-20.44
-20.71
-19.41
-16.74
-13.26
-9.67
-6.48
-3.90
-1.82
0.03
1.83
3.58
5.22
6.68
7.98
9.21
10.37
11.38
12.11
12.46
12.48
12.38
12.38
12.59
12.99
13.40
13.64
13.58
13.24
12.72
12.12
11.52
10.88
10.14
9.21
8.08
6.76
5.31
3.81
2.27
0.69
-0.97
-2.69
-4.45
-6.20
-7.89
-9.57
-11.37
-13.49
-16.01
-18.77
-21.29
-22.94
-23.11
-21.56
-18.52
-14.60
-10.57
-6.99
-4.11
-1.84
0.06
1.80
3.52
5.23
6.90
8.51
10.02
11.37
12.51
13.36
13.89
14.13
14.12
13.97
13.80
13.75
13.96
14.45
15.12
15.73
15.98
15.66
14.76
13.45
12.02
10.72
9.64
8.67
7.63
6.33
4.69
2.80
0.80
-1.19
-3.05
-4.73
-6.23
-7.55
-8.75
-9.95
-11.29
-12.95
-15.00
-17.38
-19.94
-22.41
-24.47
-25.81
-26.07
-25.02
-22.58
-18.99
-14.73
-10.47
-6.79
-3.96
-1.94
-0.43
0.95
2.46
4.18
6.01
7.76
9.25
10.35
10.97
11.15
11.04
10.81
10.69
10.84
11.28
11.96
12.73
13.46
14.02
14.30
14.16
13.53
12.43
11.03
9.57
8.30
7.31
6.54
5.80
4.89
3.72
2.33
0.85
-0.59
-1.93
-3.14
-4.25
-5.23
-6.14
-7.08
-8.25
-9.93
-12.30
-15.40
-19.00
-22.67
-25.82
-27.86
-28.35
-27.11
-24.31
-20.39
-15.94
-11.57
-7.76
-4.72
-2.47
-0.81
0.50
1.70
2.93
4.19
5.43
6.55
7.52
8.34
9.05
9.61
9.98
10.10
9.97
9.72
9.51
9.55
9.91
10.52
11.20
11.75
12.03
11.98
11.59
10.85
9.78
8.43
6.87
5.27
3.72
2.33
1.15
0.15
-0.71
-1.54
-2.44
-3.49
-4.70
-6.06
-7.48
-8.96
-10.57
-12.49
-14.89
-17.78
-20.96
-24.03
-26.45
-27.78
-27.77
-26.42
-23.94
-20.68
-17.02
-13.27
-9.68
-6.43
-3.63
-1.35
0.42
1.80
2.97
4.14
5.46
7.01
8.72
10.35
11.65
12.36
12.36
11.74
10.81
9.98
9.59
9.83
10.59
11.51
12.13
12.10
11.32
9.93
8.26
6.64
5.29
4.21
3.31
2.45
1.53
0.50
-0.60
-1.77
-2.96
-4.17
-5.43
-6.78
-8.29
-10.02
-12.00
-14.18
-16.40
-18.43
-20.03
-20.99
-21.11
-20.27
-18.42
-15.61
-12.06
-8.10
-4.14
-0.61
2.18
4.08
5.17
5.67
5.86
5.97
6.11
6.25
6.31
6.24
6.12
6.12
6.38
6.95
7.64
8.19
8.36
8.16
7.79
7.49
7.39
7.33
6.97
5.98
4.28
2.11
-0.06
-1.76
-2.79
-3.26
-3.51
-3.94
-4.80
-6.15
-7.90
-9.91
-12.05
-14.17
-16.02
-17.32
-17.71
-16.92
-14.89
-11.80
-8.07
-4.24
-0.80
1.98
4.05
5.55
6.65
7.50
8.10
8.40
8.37
8.08
7.71
7.48
7.53
7.82
8.19
8.44
8.47
8.35
8.26
8.34
8.62
8.99
9.25
9.17
8.64
7.64
6.21
4.46
2.52
0.53
-1.36
-3.05
-4.48
-5.75
-7.04
-8.55
-10.44
-12.66
-14.97
-16.96
-18.16
-18.16
-16.74
-13.98
-10.23
-6.02
-1.90
1.64
4.39
6.33
7.66
8.61
9.39
10.07
10.64
11.01
11.17
11.17
11.15
11.23
11.50
11.91
12.38
12.81
13.11
13.28
13.31
13.16
12.76
11.94
10.58
8.64
6.19
3.46
0.70
-1.79
-3.84
-5.41
-6.61
-7.68
-8.88
-10.42
-12.40
-14.74
-17.17
-19.27
-20.56
-20.62
-19.22
-16.40
-12.48
-8.01
-3.54
0.44
3.71
6.27
8.27
9.85
11.14
12.13
12.84
13.33
13.75
14.23
14.81
15.43
15.90
16.06
15.84
15.34
14.76
14.27
13.91
13.61
13.24
12.66
11.80
10.62
9.08
7.23
5.14
3.00
1.10
-0.33
-1.24
-1.80
-2.39
-3.42
-5.19
-7.80
-11.09
-14.74
-18.36
-21.49
-23.67
-24.49
-23.68
-21.20
-17.38
-12.76
-8.06
-3.87
-0.56
1.90
3.75
5.33
6.89
8.46
9.95
11.16
12.00
12.47
12.70
12.84
13.03
13.34
13.72
14.12
14.45
14.65
14.67
14.52
14.22
13.77
13.15
12.36
11.41
10.33
9.16
7.92
6.61
5.18
3.59
1.87
0.08
-1.67
-3.32
-4.88
-6.40
-8.03
-9.90
-12.18
-14.90
-17.95
-21.05
-23.76
-25.52
-25.89
-24.67
-21.96
-18.19
-13.90
-9.70
-6.02
-3.08
-0.90
0.68
1.88
2.96
4.06
5.22
6.38
7.45
8.31
8.89
9.23
9.42
9.61
9.89
10.28
10.77
11.24
11.61
11.76
11.63
11.16
10.36
9.31
8.13
7.00
6.05
5.33
4.75
4.19
3.46
2.51
1.36
0.11
-1.14
-2.30
-3.40
-4.49
-5.65
-6.90
-8.30
-9.90
-11.76
-13.97
-16.50
-19.17
-21.63
-23.38
-23.96
-23.07
-20.77
-17.42
-13.64
-10.04
-7.07
-4.84
-3.19
-1.83
-0.47
1.01
2.60
4.17
5.61
6.80
7.68
8.17
8.26
8.03
7.65
7.40
7.49
8.01
8.85
9.79
10.56
11.00
11.04
10.70
10.01
8.96
7.63
6.13
4.69
3.50
2.67
2.16
1.84
1.57
1.21
0.68
-0.11
-1.17
-2.50
-4.00
-5.49
-6.84
-8.01
-9.13
-10.40
-12.06
-14.15
-16.52
-18.80
-20.53
-21.29
-20.89
-19.35
-16.96
-14.12
-11.26
-8.68
-6.52
-4.78
-3.42
-2.35
-1.51
-0.83
-0.20
0.49
1.30
2.26
3.34
4.45
5.50
6.43
7.15
7.65
7.94
8.06
8.10
8.08
8.00
7.78
7.38
6.82
6.19
5.61
5.17
4.85
4.55
4.07
3.28
2.17
0.85
-0.51
-1.69
-2.60
-3.26
-3.78
-4.36
-5.16
-6.26
-7.66
-9.24
-10.89
-12.43
-13.66
-14.37
-14.39
-13.62
-12.09
-9.96
-7.54
-5.12
-2.95
-1.19
0.11
1.02
1.62
2.05
2.38
2.65
2.81
2.81
2.65
2.40
2.18
2.08
2.15
2.32
2.56
2.82
3.14
3.50
3.90
4.18
4.19
3.79
3.00
1.99
0.95
0.04
-0.69
-1.31
-1.90
-2.54
-3.26
-4.05
-4.92
-5.90
-7.01
-8.21
-9.40
-10.40
-11.05
-11.18
-10.71
-9.61
-7.97
-5.93
-3.74
-1.69
-0.06
1.02
1.52
1.62
1.52
1.44
1.48
1.66
1.88
2.08
2.20
2.23
2.19
2.12
2.04
1.99
2.00
2.03
2.04
1.97
1.80
1.55
1.28
1.04
0.81
0.49
-0.08
-0.99
-2.23
-3.67
-5.09
-6.36
-7.46
-8.52
-9.66
-10.94
-12.17
-13.03
-13.13
-12.20
-10.28
-7.67
-4.87
-2.34
-0.41
0.90
1.73
2.28
2.68
2.93
2.98
2.84
2.59
2.36
2.27
2.27
2.26
2.13
1.85
1.51
1.32
1.42
1.84
2.43
2.93
3.10
2.82
2.13
1.18
0.18
-0.70
-1.34
-1.72
-1.91
-2.08
-2.40
-3.06
-4.18
-5.74
-7.60
-9.53
-11.23
-12.37
-12.71
-12.13
-10.71
-8.69
-6.40
-4.17
-2.22
-0.63
0.62
1.64
2.49
3.21
3.76
4.09
4.19
4.11
3.98
3.93
4.08
4.43
4.89
5.29
5.46
5.35
5.02
4.61
4.25
3.98
3.72
3.36
2.78
1.91
0.79
-0.49
-1.78
-2.94
-3.84
-4.49
-5.01
-5.65
-6.65
-8.12
-9.97
-11.91
-13.58
-14.65
-14.90
-14.28
-12.85
-10.77
-8.29
-5.70
-3.27
-1.21
0.42
1.71
2.80
3.84
4.83
5.74
6.48
7.04
7.49
7.94
8.48
9.08
9.65
10.06
10.23
10.15
9.88
9.55
9.20
8.83
8.41
7.88
7.19
6.34
5.29
3.99
2.40
0.55
-1.45
-3.41
-5.16
-6.58
-7.74
-8.84
-10.16
-11.87
-13.95
-16.14
-17.99
-19.07
-19.05
-17.88
-15.78
-13.13
-10.32
-7.64
-5.21
-3.06
-1.15
0.55
2.06
3.49
4.94
6.52
8.21
9.87
11.26
12.19
12.64
12.74
12.71
12.75
12.90
13.16
13.41
13.60
13.69
13.64
13.39
12.84
11.86
10.44
8.68
6.77
4.97
3.40
2.09
0.97
-0.08
-1.17
-2.38
-3.73
-5.24
-6.95
-8.89
-11.09
-13.52
-16.12
-18.73
-21.10
-22.91
-23.83
-23.56
-21.99
-19.25
-15.71
-11.89
-8.25
-5.09
-2.45
-0.23
1.78
3.70
5.53
7.28
8.87
10.34
11.71
13.01
14.21
15.21
15.89
16.18
16.11
15.81
15.47
15.29
15.33
15.54
15.73
15.65
15.11
14.05
12.56
10.87
9.20
7.71
6.42
5.23
3.99
2.54
0.89
-0.87
-2.59
-4.17
-5.58
-6.93
-8.41
-10.18
-12.37
-14.93
-17.73
-20.46
-22.74
-24.23
-24.67
-23.96
-22.18
-19.52
-16.29
-12.82
-9.42
-6.31
-3.63
-1.36
0.59
2.36
4.03
5.62
7.06
8.28
9.25
9.98
10.56
11.06
11.46
11.71
11.75
11.59
11.35
11.20
11.30
11.67
12.20
12.63
12.72
12.34
11.49
10.29
8.95
7.61
6.37
5.27
4.26
3.30
2.31
1.23
0.09
-1.04
-2.08
-3.02
-3.97
-5.11
-6.63
-8.62
-11.03
-13.65
-16.27
-18.68
-20.65
-21.94
-22.26
-21.38
-19.29
-16.24
-12.68
-9.17
-6.07
-3.56
-1.62
-0.11
1.12
2.20
3.26
4.42
5.75
7.23
8.70
9.95
10.84
11.34
11.54
11.59
11.60
11.59
11.59
11.57
11.58
11.64
11.74
11.78
11.62
11.12
10.21
8.93
7.41
5.88
4.49
3.35
2.43
1.61
0.72
-0.32
-1.51
-2.79
-4.09
-5.39
-6.74
-8.21
-9.85
-11.63
-13.46
-15.29
-17.06
-18.73
-20.18
-21.16
-21.36
-20.56
-18.68
-15.96
-12.77
-9.55
-6.62
-4.15
-2.16
-0.56
0.76
1.93
3.02
4.05
5.01
5.83
6.47
6.92
7.26
7.58
7.97
8.42
8.88
9.26
9.52
9.65
9.62
9.38
8.84
7.96
6.85
5.73
4.84
4.32
4.08
3.92
3.56
2.86
1.84
0.70
-0.41
-1.41
-2.34
-3.29
-4.34
-5.53
-6.88
-8.39
-10.03
-11.70
-13.18
-14.12
-14.23
-13.29
-11.39
-8.81
-6.06
-3.55
-1.59
-0.23
0.68
1.35
1.91
2.41
2.79
2.99
3.04
3.05
3.20
3.59
4.17
4.74
5.11
5.11
4.79
4.36
4.06
4.07
4.33
4.69
4.87
4.67
4.01
2.99
1.82
0.69
-0.26
-1.04
-1.72
-2.39
-3.05
-3.69
-4.28
-4.85
-5.50
-6.37
-7.54
-8.94
-10.31
-11.30
-11.63
-11.11
-9.80
-7.93
-5.80
-3.74
-1.99
-0.63
0.34
1.04
1.56
1.93
2.11
2.01
1.65
1.14
0.80
0.91
1.61
2.79
4.12
5.20
5.81
5.94
5.80
5.64
5.63
5.68
5.59
5.12
4.13
2.71
1.10
-0.40
-1.58
-2.37
-2.90
-3.40
-4.09
-5.09
-6.39
-7.84
-9.26
-10.46
-11.30
-11.61
-11.30
-10.31
-8.69
-6.65
-4.47
-2.46
-0.85
0.26
0.97
1.44
1.85
2.30
2.81
3.33
3.76
4.02
4.06
3.90
3.61
3.32
3.11
3.05
3.17
3.42
3.77
4.21
4.67
5.06
5.24
5.06
4.40
3.29
1.87
0.37
-0.97
-2.02
-2.74
-3.23
-3.66
-4.21
-5.05
-6.27
-7.88
-9.68
-11.40
-12.69
-13.21
-12.82
-11.54
-9.59
-7.23
-4.81
-2.54
-0.62
0.91
2.08
3.05
3.93
4.80
5.63
6.29
6.66
6.68
6.38
5.97
5.66
5.60
5.85
6.32
6.84
7.23
7.35
7.21
6.84
6.33
5.76
5.12
4.39
3.54
2.53
1.38
0.14
-1.13
-2.35
-3.45
-4.40
-5.26
-6.21
-7.49
-9.30
-11.66
-14.30
-16.75
-18.42
-18.87
-17.93
-15.76
-12.74
-9.36
-6.06
-3.14
-0.81
0.92
2.10
2.86
3.44
4.03
4.81
5.83
7.05
8.32
9.50
10.42
11.03
11.30
11.27
10.98
10.51
9.98
9.51
9.24
9.19
9.30
9.37
9.16
8.49
7.38
5.96
4.45
3.03
1.76
0.62
-0.41
-1.32
-2.08
-2.71
-3.32
-4.07
-5.11
-6.54
-8.33
-10.40
-12.63
-14.92
-17.10
-18.89
-19.97
-20.00
-18.86
-16.69
-13.84
-10.80
-7.92
-5.36
-3.09
-0.99
1.04
2.99
4.78
6.34
7.62
8.63
9.44
10.12
10.73
11.34
11.94
12.51
12.98
13.30
13.47
13.53
13.57
13.62
13.67
13.64
13.39
12.81
11.84
10.56
9.11
7.71
6.52
5.58
4.81
4.04
3.07
1.79
0.18
-1.59
-3.35
-4.96
-6.40
-7.75
-9.16
-10.80
-12.74
-15.03
-17.62
-20.36
-23.01
-25.20
-26.52
-26.58
-25.18
-22.40
-18.63
-14.42
-10.34
-6.77
-3.80
-1.31
0.90
2.96
4.90
6.66
8.20
9.54
10.71
11.69
12.38
12.69
12.57
12.15
11.68
11.45
11.65
12.28
13.15
13.99
14.56
14.71
14.39
13.63
12.49
11.08
9.56
8.10
6.86
5.92
5.27
4.75
4.15
3.29
2.10
0.65
-0.94
-2.52
-3.98
-5.36
-6.75
-8.26
-10.00
-12.04
-14.40
-17.10
-20.08
-23.11
-25.80
-27.65
-28.16
-27.04
-24.36
-20.52
-16.14
-11.83
-8.02
-4.87
-2.36
-0.35
1.32
2.80
4.25
5.76
7.39
9.08
10.73
12.21
13.46
14.47
15.30
16.01
16.61
17.13
17.55
17.87
18.02
17.91
17.43
16.53
15.25
13.76
12.21
10.75
9.44
8.26
7.20
6.20
5.27
4.35
3.38
2.30
1.08
-0.31
-1.88
-3.58
-5.35
-7.07
-8.59
-9.81
-10.79
-11.78
-13.13
-15.17
-17.97
-21.30
-24.61
-27.21
-28.54
-28.22
-26.28
-23.03
-18.99
-14.74
-10.77
-7.39
-4.70
-2.63
-0.98
0.44
1.82
3.24
4.77
6.39
8.07
9.75
11.32
12.69
13.79
14.62
15.18
15.55
15.81
15.96
15.99
15.81
15.30
14.39
13.15
11.70
10.26
9.00
7.98
7.13
6.34
5.47
4.47
3.31
2.02
0.62
-0.80
-2.19
-3.45
-4.54
-5.48
-6.40
-7.49
-8.95
-10.90
-13.30
-15.95
-18.47
-20.40
-21.28
-20.75
-18.74
-15.48
-11.48
-7.34
-3.67
-0.82
1.12
2.32
3.09
3.70
4.34
5.04
5.73
6.28
6.65
6.89
7.09
7.30
7.50
7.59
7.50
7.29
7.11
7.16
7.52
8.08
8.55
8.61
8.09
7.01
5.60
4.14
2.85
1.79
0.92
0.10
-0.80
-1.89
-3.20
-4.74
-6.50
-8.45
-10.52
-12.65
-14.64
-16.28
-17.27
-17.38
-16.51
-14.71
-12.21
-9.35
-6.43
-3.70
-1.28
0.79
2.53
4.03
5.31
6.34
7.04
7.32
7.20
6.81
6.41
6.27
6.56
7.24
8.09
8.84
9.29
9.43
9.34
9.15
8.93
8.61
8.05
7.13
5.83
4.27
2.66
1.23
0.12
-0.66
-1.27
-1.91
-2.76
-3.89
-5.32
-6.99
-8.87
-10.87
-12.83
-14.46
-15.42
-15.42
-14.29
-12.16
-9.31
-6.14
-3.03
-0.23
2.15
4.08
5.57
6.63
7.26
7.48
7.30
6.82
6.14
5.42
4.81
4.49
4.54
4.97
5.69
6.49
7.17
7.61
7.79
7.80
7.70
7.51
7.11
6.36
5.20
3.69
2.06
0.54
-0.72
-1.73
-2.65
-3.72
-5.10
-6.83
-8.82
-10.89
-12.78
-14.28
-15.13
-15.14
-14.23
-12.44
-9.93
-6.95
-3.80
-0.76
1.94
4.19
5.94
7.24
8.16
8.80
9.16
9.28
9.16
8.90
8.66
8.64
8.96
9.59
10.32
10.86
11.01
10.72
10.12
9.39
8.67
7.95
7.14
6.12
4.83
3.35
1.82
0.45
-0.64
-1.41
-1.99
-2.61
-3.50
-4.85
-6.70
-8.97
-11.49
-14.02
-16.28
-18.00
-18.87
-18.65
-17.23
-14.73
-11.52
-8.07
-4.83
-2.06
0.19
2.05
3.69
5.20
6.54
7.63
8.40
8.87
9.18
9.49
9.94
10.51
11.09
11.49
11.57
11.31
10.84
10.37
10.04
9.88
9.80
9.60
9.14
8.30
7.09
5.56
3.82
2.02
0.35
-1.04
-2.08
-2.84
-3.51
-4.32
-5.46
-7.01
-8.97
-11.28
-13.84
-16.46
-18.89
-20.74
-21.55
-20.99
-18.93
-15.62
-11.57
-7.44
-3.75
-0.78
1.50
3.26
4.73
6.05
7.29
8.46
9.54
10.55
11.48
12.28
12.92
13.33
13.55
13.61
13.59
13.53
13.41
13.18
12.82
12.33
11.80
11.25
10.69
10.08
9.35
8.41
7.26
5.92
4.45
2.88
1.26
-0.34
-1.89
-3.26
-4.43
-5.38
-6.20
-7.09
-8.27
-9.91
-12.09
-14.68
-17.39
-19.78
-21.39
-21.85
-20.96
-18.78
-15.63
-11.95
-8.24
-4.96
-2.36
-0.48
0.83
1.83
2.79
3.86
5.06
6.32
7.54
8.67
9.68
10.60
11.34
11.85
12.06
11.96
11.65
11.26
10.93
10.73
10.68
10.71
10.76
10.72
10.50
10.02
9.24
8.19
6.97
5.68
4.34
2.91
1.31
-0.47
-2.30
-3.94
-5.17
-5.89
-6.26
-6.63
-7.38
-8.82
-11.02
-13.83
-16.91
-19.88
-22.31
-23.83
-24.14
-23.11
-20.83
-17.64
-14.02
-10.47
-7.35
-4.80
-2.75
-1.07
0.40
1.75
2.99
4.14
5.15
6.04
6.81
7.51
8.21
8.96
9.76
10.55
11.25
11.81
12.26
12.62
12.90
13.06
12.95
12.49
11.65
10.52
9.26
8.00
6.80
5.63
4.41
3.10
1.67
0.13
-1.48
-3.13
-4.71
-6.10
-7.16
-7.86
-8.33
-8.78
-9.53
-10.75
-12.52
-14.68
-16.92
-18.91
-20.31
-20.86
-20.44
-19.06
-16.85
-14.09
-11.09
-8.20
-5.63
-3.48
-1.77
-0.38
0.78
1.79
2.69
3.53
4.33
5.13
5.94
6.74
7.51
8.21
8.83
9.35
9.76
10.09
10.36
10.62
10.86
11.00
10.97
10.63
9.95
9.01
7.97
7.02
6.26
5.66
5.08
4.34
3.29
1.95
0.38
-1.26
-2.86
-4.29
-5.49
-6.42
-7.08
-7.55
-7.99
-8.63
-9.68
-11.25
-13.25
-15.37
-17.14
-18.06
-17.83
-16.37
-13.94
-10.97
-7.94
-5.23
-3.03
-1.36
-0.08
0.96
1.92
2.81
3.60
4.18
4.43
4.34
4.00
3.58
3.31
3.40
3.89
4.72
5.73
6.72
7.54
8.11
8.41
8.44
8.19
7.66
6.93
6.14
5.45
4.96
4.65
4.36
3.89
3.11
2.04
0.85
-0.24
-1.10
-1.76
-2.36
-3.04
-3.91
-4.98
-6.21
-7.61
-9.21
-11.07
-13.10
-15.07
-16.61
-17.30
-16.84
-15.17
-12.50
-9.24
-5.87
-2.79
-0.26
1.64
2.91
3.63
3.97
4.06
4.07
4.12
4.27
4.53
4.82
5.07
5.20
5.24
5.26
5.39
5.71
6.19
6.71
7.11
7.24
7.03
6.52
5.79
4.94
4.07
3.23
2.46
1.73
0.97
0.10
-0.94
-2.14
-3.40
-4.58
-5.64
-6.61
-7.64
-8.84
-10.18
-11.42
-12.24
-12.40
-11.84
-10.72
-9.28
-7.69
-6.01
-4.24
-2.41
-0.68
0.74
1.63
1.96
1.89
1.71
1.70
1.97
2.46
3.05
3.59
4.11
4.66
5.28
5.91
6.41
6.65
6.62
6.40
6.16
6.01
5.90
5.65
5.08
4.12
2.92
1.81
1.08
0.90
1.18
1.65
1.93
1.69
0.82
-0.57
-2.11
-3.33
-3.68
-2.79
-0.52
2.99
7.40
12.37
17.75
23.60
30.22
37.91
46.88
57.05
68.03
79.03
88.96
96.58
100.76
100.86
96.94
89.86
81.07
72.15
64.31
58.11
53.41
49.58
45.87
41.69
36.70
30.88
24.47
17.85
11.47
5.75
0.89
-3.11
-6.52
-9.85
-13.63
-18.33
-24.15
-31.03
-38.65
-46.57
-54.23
-61.12
-66.78
-70.86
-73.24
-74.02
-73.53
-72.18
-70.30
-67.93
-64.83
-60.57
-54.82
-47.59
-39.38
-31.05
-23.53
-17.51
-13.24
-10.54
-8.86
-7.60
-6.29
-4.72
-2.99
-1.42
-0.46
-0.63
-2.46
-6.30
-12.16
-19.45
-26.96
-33.07
-36.28
-35.73
-31.56
-24.88
-17.27
-10.25
-4.79
-1.20
0.64
0.97
-0.01
-2.06
-4.77
-7.43
-9.27
-9.73
-8.77
-6.87
-4.85
-3.46
-3.04
-3.51
-4.47
-5.53
-6.53
-7.51
-8.65
-9.94
-11.15
-11.84
-11.64
-10.39
-8.34
-5.94
-3.70
-1.89
