1520261628.00
64.000000
-0.00
-0.00
-0.00
-0.00
-0.00
-0.00
-0.00
-0.00
-0.00
-0.00
0.00
0.01
0.01
-0.00
-0.03
-0.05
-0.05
0.00
0.13
0.36
0.66
1.01
1.37
1.72
2.06
2.40
2.79
3.24
3.80
4.42
5.06
5.66
6.20
6.68
7.15
7.68
8.31
9.14
10.09
11.04
11.88
12.56
13.14
13.76
14.65
15.96
17.91
20.32
22.90
25.38
27.58
29.57
31.68
34.32
37.81
42.54
48.15
54.10
59.83
64.97
69.58
74.14
79.34
85.71
93.76
103.00
112.62
121.73
129.77
136.75
143.30
150.75
157.77
166.64
177.95
191.79
206.97
220.57
228.25
225.36
208.53
176.87
132.76
80.05
23.07
-34.94
-92.44
-149.16
-205.23
-260.37
-313.74
-363.87
-409.83
-450.91
-486.50
-515.74
-537.23
-549.22
-549.96
-538.37
-514.21
-478.67
-433.88
-382.45
-327.02
-269.84
-212.63
-156.66
-102.95
-52.37
-5.90
35.58
71.43
101.35
125.50
144.38
158.69
169.15
176.37
180.75
182.57
182.07
179.51
175.23
169.65
163.18
156.15
148.81
141.30
133.69
126.02
118.33
110.69
103.16
95.80
88.68
81.83
75.25
68.95
62.95
57.25
51.86
46.78
42.03
37.59
33.45
29.61
26.07
22.81
19.83
17.11
14.67
12.48
10.54
8.83
7.35
6.07
4.97
4.05
3.27
2.62
2.09
1.65
1.30
1.01
0.79
0.61
0.48
0.37
0.29
0.24
0.20
0.18
0.17
0.17
0.19
0.21
0.24
0.26
0.30
0.34
0.38
0.44
0.50
0.56
0.60
0.61
0.58
0.54
0.49
0.48
0.51
0.59
0.70
0.80
0.88
0.93
0.95
0.99
1.08
1.24
1.47
1.73
1.97
2.15
2.27
2.36
2.48
2.72
3.13
3.69
4.29
4.81
5.12
5.21
5.15
5.14
5.38
5.99
6.92
7.97
8.83
9.27
9.22
8.85
8.52
8.60
9.29
10.48
11.72
12.40
11.99
10.26
7.36
3.76
-0.04
-3.74
-7.32
-11.13
-15.52
-20.76
-26.97
-34.20
-42.32
-50.77
-58.29
-62.91
-62.59
-56.06
-43.72
-27.87
-11.90
0.94
8.85
11.95
11.77
10.24
8.73
7.68
6.97
6.52
6.59
7.68
10.01
13.16
16.11
17.66
17.00
14.12
9.84
5.40
2.01
0.34
0.43
1.75
3.59
5.38
6.87
8.23
9.73
11.66
14.11
16.88
19.64
22.02
23.71
24.57
24.64
24.04
22.89
21.21
18.94
16.02
12.46
8.40
4.09
-0.11
-3.88
-7.02
-9.48
-11.41
-13.09
-14.55
-15.94
-17.38
-18.99
-20.76
-22.42
-23.50
-23.38
-21.59
-17.99
-12.97
-7.26
-1.77
2.75
5.92
7.77
8.59
8.77
8.66
8.36
7.92
7.28
6.43
5.40
4.33
3.45
2.95
2.99
3.53
4.39
5.32
6.02
6.30
6.10
5.43
4.36
2.98
1.35
-0.51
-2.49
-4.42
-6.14
-7.57
-8.79
-10.06
-11.69
-13.95
-16.81
-19.88
-22.55
-24.16
-24.29
-22.87
-20.17
-16.63
-12.63
-8.40
-3.96
0.76
5.70
10.63
15.06
18.46
20.44
20.97
20.36
19.16
17.94
17.00
16.42
15.98
15.42
14.54
13.36
12.05
10.87
10.00
9.51
9.28
9.03
8.43
7.19
5.16
2.44
-0.71
-3.88
-6.76
-9.19
-11.23
-13.05
-14.83
-16.66
-18.51
-20.26
-21.75
-22.83
-23.27
-22.81
-21.19
-18.26
-14.11
-9.12
-3.84
1.14
5.39
8.75
11.25
12.96
13.95
14.31
14.14
13.65
13.14
12.87
12.97
13.39
13.95
14.42
14.66
14.62
14.37
14.06
13.88
13.88
14.03
14.15
13.93
13.08
11.47
9.17
6.40
3.42
0.42
-2.54
-5.44
-8.23
-10.81
-13.05
-14.93
-16.54
-18.01
-19.41
-20.55
-21.06
-20.45
-18.40
-14.90
-10.33
-5.27
-0.36
3.93
7.35
9.85
11.52
12.57
13.28
13.86
14.46
15.10
15.68
16.03
16.08
15.80
15.32
14.83
14.49
14.33
14.26
14.11
13.78
13.24
12.57
11.88
11.20
10.49
9.66
8.57
7.14
5.40
3.46
1.42
-0.64
-2.71
-4.82
-7.01
-9.25
-11.47
-13.56
-15.44
-17.06
-18.45
-19.71
-20.92
-22.01
-22.83
-23.08
-22.42
-20.66
-17.81
-14.15
-10.12
-6.21
-2.82
-0.16
1.75
3.00
3.76
4.18
4.40
4.58
4.84
5.27
5.89
6.52
6.92
6.88
6.28
5.28
4.21
3.50
3.40
3.94
4.90
5.91
6.60
6.75
6.32
5.37
4.06
2.53
0.95
-0.64
-2.22
-3.89
-5.73
-7.82
-10.20
-12.83
-15.53
-18.02
-19.88
-20.64
-19.93
-17.67
-14.16
-10.03
-6.02
-2.70
-0.27
1.38
2.54
3.41
3.98
4.18
4.00
3.56
3.12
2.88
2.93
3.20
3.56
3.96
4.43
5.01
5.73
6.48
7.13
7.48
7.37
6.66
5.29
3.31
0.86
-1.75
-4.21
-6.25
-7.75
-8.83
-9.69
-10.56
-11.59
-12.82
-14.24
-15.82
-17.54
-19.31
-20.92
-22.04
-22.26
-21.25
-18.88
-15.29
-10.88
-6.19
-1.71
2.19
5.37
7.80
9.55
10.73
11.45
11.80
11.86
11.70
11.38
10.95
10.48
10.00
9.58
9.24
8.98
8.71
8.32
7.76
7.02
6.21
5.45
4.83
4.32
3.80
3.12
2.15
0.88
-0.56
-2.08
-3.58
-5.15
-6.90
-8.96
-11.29
-13.69
-15.92
-17.80
-19.35
-20.74
-22.17
-23.73
-25.22
-26.26
-26.38
-25.21
-22.70
-19.06
-14.76
-10.27
-5.96
-1.99
1.59
4.79
7.58
9.88
11.62
12.84
13.60
14.05
14.34
14.48
14.45
14.18
13.71
13.20
13.02
13.48
14.75
16.71
18.96
21.07
22.65
23.56
23.73
23.24
22.05
20.16
17.65
14.70
11.63
8.74
6.16
3.84
1.60
-0.70
-3.07
-5.40
-7.64
-9.84
-12.16
-14.73
-17.48
-20.11
-22.15
-23.13
-22.81
-21.24
-18.75
-15.84
-13.01
-10.58
-8.63
-6.98
-5.33
-3.38
-0.96
1.88
4.87
7.58
9.51
10.26
9.69
7.99
5.72
3.62
2.32
2.19
3.15
4.80
6.64
8.26
9.41
9.96
9.93
9.35
8.35
7.19
6.19
5.52
5.17
4.89
4.30
3.17
1.50
-0.44
-2.35
-4.07
-5.73
-7.60
-9.90
-12.57
-15.26
-17.40
-18.52
-18.42
-17.13
-14.89
-11.96
-8.54
-4.80
-0.93
2.69
5.70
7.79
8.85
9.05
8.71
8.15
7.57
7.12
6.82
6.76
7.06
7.76
8.81
9.99
10.96
11.39
11.09
10.04
8.50
6.79
5.18
3.78
2.44
0.93
-1.00
-3.33
-5.85
-8.18
-9.94
-11.02
-11.56
-12.03
-12.99
-14.89
-17.84
-21.52
-25.18
-27.85
-28.65
-27.10
-23.37
-18.14
-12.34
-6.79
-1.93
2.12
5.47
8.20
10.24
11.47
11.84
11.44
10.56
9.47
8.34
7.25
6.23
5.41
5.01
5.17
5.87
6.79
7.42
7.30
6.27
4.48
2.34
0.22
-1.71
-3.46
-5.10
-6.60
-7.83
-8.70
-9.32
-10.04
-11.28
-13.17
-15.44
-17.42
-18.33
-17.61
-15.13
-11.23
-6.44
-1.42
3.35
7.47
10.66
12.74
13.61
13.24
11.69
9.12
5.86
2.38
-0.76
-3.02
-4.16
-4.23
-3.62
-2.82
-2.23
-2.08
-2.43
-3.31
-4.69
-6.54
-8.60
-10.51
-11.85
-12.46
-12.59
-12.95
-14.35
-17.30
-21.75
-27.01
-32.01
-35.64
-37.09
-35.94
-32.12
-25.87
-17.63
-8.07
1.92
11.30
19.14
24.76
28.03
29.33
29.42
29.19
29.32
30.10
31.42
32.88
33.99
34.42
34.04
32.94
31.38
29.65
28.05
26.77
25.82
25.11
24.34
23.09
20.99
17.88
13.84
9.25
4.63
0.47
-2.96
-5.65
-7.85
-9.84
-11.78
-13.66
-15.19
-16.08
-16.06
-15.08
-13.29
-10.93
-8.31
-5.74
-3.46
-1.62
-0.26
0.74
1.54
2.23
2.69
2.66
1.81
-0.06
-2.88
-6.25
-9.65
-12.54
-14.59
-15.70
-16.00
-15.76
-15.32
-14.91
-14.66
-14.52
-14.37
-14.03
-13.41
-12.47
-11.27
-9.92
-8.66
-7.82
-7.75
-8.73
-10.81
-13.65
-16.62
-18.85
-19.57
-18.34
-15.28
-11.10
-6.91
-3.90
-2.98
-4.41
-7.68
-11.63
-14.78
-15.84
-14.13
-9.79
-3.70
2.89
8.73
13.02
15.53
16.63
17.10
17.72
18.98
20.95
23.29
25.49
27.22
28.45
29.45
30.59
32.10
33.84
35.43
36.45
36.73
36.53
36.57
37.74
40.83
46.26
54.02
63.66
74.32
84.86
94.02
100.69
104.09
104.04
100.91
95.59
89.08
82.28
75.68
69.44
63.46
57.62
51.89
46.34
41.03
35.99
31.16
26.48
21.88
17.29
12.59
7.57
2.00
-4.38
-11.71
-19.93
-28.90
-38.43
-48.41
-58.70
-69.11
-79.26
-88.58
-96.34
-101.87
-104.74
-104.85
-102.50
-98.31
-93.02
-87.38
-81.97
-77.12
-72.86
-68.99
-65.10
-60.76
-55.61
-49.45
-42.25
-34.18
-25.52
-16.73
-8.31
-0.72
5.79
11.20
15.79
20.02
24.19
28.36
32.28
35.48
37.57
38.36
37.88
36.29
33.67
29.95
25.02
18.82
11.50
3.49
-4.59
-12.13
-18.68
-24.03
-28.14
-31.00
-32.45
-32.25
-30.16
-26.27
-21.09
-15.50
-10.45
-6.59
-4.10
-2.78
-2.28
-2.34
-2.85
-3.72
-4.72
-5.52
-5.86
-5.71
-5.40
-5.43
-6.13
-7.50
-9.15
-10.48
-11.04
-10.66
-9.53
-8.06
-6.69
-5.77
-5.47
-5.80
-6.65
-7.86
-9.34
-11.06
-13.05
-15.37
-18.08
-21.13
-24.33
-27.35
-29.73
-30.96
-30.66
-28.64
-25.03
-20.18
-14.59
-8.69
-2.82
2.75
7.79
12.03
15.26
17.38
18.55
19.17
19.70
20.51
21.76
23.33
24.90
26.10
26.64
26.46
25.69
24.63
23.55
22.50
21.32
19.68
17.33
14.27
10.76
7.23
3.94
0.90
-2.16
-5.56
-9.49
-13.75
-17.89
-21.34
-23.63
-24.49
-23.83
-21.66
-18.03
-13.07
-7.05
-0.48
5.97
11.60
15.91
18.76
20.38
21.18
21.59
21.88
22.11
22.17
21.91
21.23
20.16
18.76
17.18
15.57
14.06
12.75
11.69
10.86
10.16
9.45
8.55
7.34
5.71
3.60
0.98
-2.20
-5.96
-10.33
-15.18
-20.23
-24.92
-28.59
-30.59
-30.55
-28.52
-24.91
-20.39
-15.62
-11.14
-7.20
-3.92
-1.28
0.76
2.24
3.20
3.71
3.85
3.66
3.22
2.60
1.94
1.49
1.44
1.98
3.07
4.60
6.37
8.16
9.75
10.96
11.60
11.55
10.79
9.45
7.80
6.13
4.65
3.35
2.08
0.56
-1.46
-4.11
-7.35
-10.98
-14.61
-17.73
-19.81
-20.39
-19.21
-16.31
-11.97
-6.71
-1.13
4.20
8.89
12.75
15.77
18.03
19.64
20.69
21.28
21.45
21.29
20.91
20.40
19.87
19.38
18.94
18.57
18.25
17.91
17.47
16.87
16.10
15.22
14.28
13.32
12.32
11.17
9.70
7.80
5.42
2.62
-0.47
-3.66
-6.79
-9.70
-12.22
-14.27
-15.80
-16.96
-18.02
-19.31
-21.07
-23.32
-25.76
-27.84
-28.93
-28.57
-26.61
-23.24
-18.93
-14.28
-9.83
-5.99
-2.99
-0.79
0.81
2.10
3.30
4.50
5.61
6.49
7.08
7.42
7.64
7.92
8.32
8.84
9.40
9.91
10.39
10.90
11.48
12.09
12.55
12.58
11.99
10.67
8.74
6.44
4.08
1.84
-0.18
-2.03
-3.72
-5.21
-6.36
-7.09
-7.51
-7.92
-8.77
-10.47
-13.15
-16.66
-20.54
-24.17
-26.97
-28.50
-28.58
-27.26
-24.78
-21.49
-17.72
-13.75
-9.82
-6.16
-3.09
-0.87
0.32
0.62
0.39
0.15
0.26
0.80
1.53
2.15
2.54
2.90
3.60
4.95
6.91
9.09
10.99
12.25
12.86
12.96
12.73
12.18
11.20
9.72
7.90
6.07
4.58
3.53
2.77
2.04
1.13
0.11
-0.78
-1.29
-1.44
-1.51
-1.97
-3.25
-5.50
-8.62
-12.21
-15.81
-18.90
-21.05
-21.93
-21.39
-19.42
-16.23
-12.26
-8.07
-4.28
-1.38
0.38
1.08
1.05
0.66
0.18
-0.23
-0.59
-0.91
-1.10
-1.05
-0.61
0.21
1.27
2.34
3.23
3.89
4.33
4.63
4.85
4.98
4.99
4.81
4.37
3.60
2.48
1.06
-0.52
-2.03
-3.29
-4.30
-5.27
-6.53
-8.32
-10.68
-13.30
-15.72
-17.46
-18.22
-17.91
-16.64
-14.61
-12.04
-9.10
-5.95
-2.79
0.20
2.88
5.14
6.92
8.17
8.86
9.05
8.85
8.50
8.27
8.35
8.73
9.28
9.74
9.92
9.76
9.37
8.87
8.33
7.71
6.84
5.54
3.78
1.73
-0.31
-2.00
-3.19
-3.99
-4.71
-5.80
-7.59
-10.14
-13.26
-16.42
-19.02
-20.56
-20.70
-19.41
-16.87
-13.41
-9.38
-5.18
-1.11
2.58
5.68
8.11
9.86
10.96
11.48
11.49
11.09
10.39
9.52
8.58
7.68
6.84
6.05
5.35
4.76
4.33
4.08
3.99
4.03
4.12
4.13
3.94
3.37
2.23
0.45
-1.94
-4.66
-7.31
-9.46
-10.91
-11.78
-12.46
-13.46
-15.12
-17.51
-20.36
-23.24
-25.63
-27.09
-27.34
-26.19
-23.65
-19.84
-15.08
-9.84
-4.73
-0.27
3.18
5.51
6.83
7.39
7.45
7.24
6.94
6.64
6.35
6.06
5.73
5.45
5.39
5.85
7.08
9.19
12.08
15.43
18.83
21.86
24.23
25.77
26.40
26.09
24.91
23.06
20.83
18.60
16.59
14.81
13.06
11.08
8.65
5.82
2.89
0.16
-2.19
-4.26
-6.39
-8.92
-12.01
-15.55
-19.20
-22.56
-25.33
-27.31
-28.33
-28.24
-26.91
-24.33
-20.72
-16.54
-12.42
-8.87
-6.12
-4.10
-2.44
-0.78
1.10
3.18
5.20
6.94
8.28
9.30
10.19
11.10
12.11
13.11
13.95
14.57
14.97
15.28
15.54
15.77
15.88
15.82
15.56
15.10
14.44
13.54
12.36
10.86
9.08
7.13
5.19
3.36
1.78
0.44
-0.69
-1.70
-2.70
-3.75
-4.96
-6.37
-7.95
-9.64
-11.30
-12.77
-13.87
-14.56
-14.97
-15.41
-16.39
-18.34
-21.47
-25.54
-29.93
-33.80
-36.39
-37.22
-36.17
-33.46
-29.46
-24.64
-19.42
-14.25
-9.60
-5.82
-3.11
-1.36
-0.15
0.95
2.30
3.98
5.85
7.63
9.15
10.36
11.36
12.34
13.45
14.75
16.21
17.66
18.96
19.97
20.63
20.95
20.98
20.76
20.23
19.28
17.86
16.05
14.07
12.24
10.81
9.80
8.98
8.03
6.72
4.97
2.92
0.73
-1.43
-3.51
-5.50
-7.32
-8.87
-9.99
-10.72
-11.29
-12.16
-13.82
-16.54
-20.32
-24.74
-29.20
-33.03
-35.59
-36.40
-35.15
-31.81
-26.73
-20.58
-14.23
-8.41
-3.49
0.57
4.04
7.15
9.90
12.16
13.78
14.86
15.65
16.49
17.51
18.58
19.41
19.83
19.88
19.86
20.10
20.80
21.87
22.98
23.69
23.72
22.92
21.40
19.43
17.34
15.36
13.63
12.13
10.86
9.76
8.86
8.12
7.47
6.75
5.77
4.36
2.45
0.09
-2.50
-5.10
-7.45
-9.39
-10.91
-12.24
-13.73
-15.79
-18.65
-22.32
-26.57
-31.02
-35.32
-39.14
-42.10
-43.76
-43.66
-41.52
-37.38
-31.70
-25.21
-18.66
-12.66
-7.48
-3.12
0.60
3.91
7.01
10.00
12.85
15.41
17.43
18.71
19.12
18.78
17.96
17.08
16.46
16.32
16.66
17.27
17.88
18.26
18.27
17.95
17.35
16.55
15.54
14.26
12.66
10.74
8.48
5.86
2.87
-0.39
-3.55
-5.96
-6.89
-5.77
-2.51
2.42
8.07
13.34
17.18
18.86
18.03
14.71
9.16
1.84
-6.68
-15.71
-24.58
-32.59
-39.04
-43.41
-45.32
-44.68
-41.69
-36.74
-30.42
-23.35
-16.15
-9.34
-3.32
1.69
5.62
8.55
10.60
11.93
12.69
13.05
13.21
13.34
13.61
14.09
14.78
15.60
16.48
17.43
18.49
19.74
21.13
22.47
23.51
24.03
23.93
23.31
22.38
21.33
20.19
18.87
17.23
15.21
12.90
10.47
8.10
5.80
3.49
1.02
-1.67
-4.47
-7.25
-9.88
-12.35
-14.79
-17.32
-19.99
-22.79
-25.76
-29.00
-32.64
-36.69
-40.84
-44.47
-46.75
-46.98
-44.74
-40.04
-33.28
-25.10
-16.24
-7.40
0.76
7.69
13.02
16.59
18.45
18.91
18.42
17.53
16.77
16.57
17.17
18.50
20.33
22.30
24.06
25.42
26.27
26.63
26.59
26.27
25.79
25.36
25.06
24.94
24.89
24.69
24.09
22.86
20.88
18.15
14.82
11.19
7.61
4.41
1.77
-0.35
-2.20
-4.06
-6.11
-8.32
-10.50
-12.46
-14.15
-15.76
-17.68
-20.26
-23.70
-27.91
-32.52
-37.06
-41.03
-44.01
-45.70
-45.84
-44.21
-40.64
-35.13
-27.91
-19.56
-10.86
-2.70
4.13
9.17
12.36
13.96
14.51
14.58
14.72
15.25
16.28
17.70
19.29
20.85
22.24
23.44
24.43
25.17
25.57
25.58
25.28
24.86
24.56
24.52
24.66
24.68
24.19
22.90
20.76
17.95
14.80
11.65
8.74
6.13
3.73
1.45
-0.78
-2.97
-5.05
-7.05
-9.05
-11.27
-13.92
-17.12
-20.82
-24.86
-29.05
-33.28
-37.54
-41.81
-45.87
-49.26
-51.32
-51.38
-49.03
-44.21
-37.24
-28.78
-19.61
-10.58
-2.37
4.58
10.12
14.36
17.65
20.30
22.50
24.32
25.66
26.42
26.63
26.45
26.19
26.17
26.65
27.73
29.27
30.91
32.23
32.83
32.56
31.50
29.99
28.37
26.88
25.50
24.00
22.12
19.68
16.70
13.34
9.84
6.37
2.96
-0.45
-3.91
-7.39
-10.74
-13.73
-16.23
-18.22
-19.93
-21.73
-24.12
-27.45
-31.89
-37.21
-42.81
-47.86
-51.50
-53.02
-52.05
-48.55
-42.79
-35.28
-26.70
-17.79
-9.28
-1.74
4.51
9.48
13.40
16.56
19.15
21.21
22.63
23.31
23.30
22.82
22.27
22.07
22.57
23.96
26.17
28.98
32.04
34.95
37.35
38.95
39.57
39.19
37.86
35.76
33.15
30.22
27.16
24.03
20.80
17.33
13.52
9.32
4.87
0.39
-3.85
-7.66
-10.95
-13.76
-16.19
-18.37
-20.47
-22.73
-25.51
-29.18
-33.94
-39.53
-45.25
-50.06
-52.89
-53.04
-50.35
-45.13
-37.99
-29.58
-20.59
-11.62
-3.23
4.09
10.02
14.52
17.81
20.20
22.04
23.54
24.78
25.78
26.54
27.11
27.56
28.01
28.52
29.18
29.99
30.87
31.62
32.02
31.77
30.73
28.86
26.28
23.27
20.15
17.19
14.56
12.25
10.14
8.00
5.59
2.78
-0.45
-4.08
-8.04
-12.27
-16.60
-20.85
-24.85
-28.52
-32.05
-35.79
-40.12
-45.09
-50.32
-55.03
-58.26
-59.16
-57.30
-52.73
-45.92
-37.61
-28.64
-19.83
-11.82
-4.99
0.62
5.10
8.62
11.31
13.19
14.34
14.95
15.44
16.20
17.50
19.28
21.26
23.05
24.36
25.14
25.48
25.54
25.40
25.05
24.42
23.37
21.78
19.51
16.46
12.55
7.87
2.67
-2.63
-7.52
-11.54
-14.49
-16.51
-18.09
-19.86
-22.41
-26.05
-30.67
-35.79
-40.62
-44.20
-45.59
-44.04
-39.21
-31.32
-21.17
-10.05
0.70
9.90
16.91
21.52
23.91
24.47
23.69
22.12
20.38
19.08
18.68
19.29
20.74
22.55
24.20
25.25
25.51
25.05
24.10
22.91
21.71
20.58
19.46
18.16
16.41
14.03
10.95
7.21
3.02
-1.40
-5.82
-10.13
-14.36
-18.67
-23.28
-28.33
-33.81
-39.44
-44.72
-49.06
-51.85
-52.59
-50.89
-46.61
-39.86
-31.10
-21.09
-10.74
-0.96
7.53
14.30
19.24
22.47
24.34
25.33
25.98
26.75
27.90
29.42
31.08
32.53
33.56
34.13
34.33
34.24
33.91
33.29
32.36
31.16
29.82
28.43
26.98
25.31
23.12
20.16
16.34
11.76
6.73
1.63
-3.23
-7.68
-11.68
-15.34
-18.81
-22.35
-26.32
-31.05
-36.75
-43.28
-49.98
-55.76
-59.28
-59.43
-55.71
-48.39
-38.44
-27.21
-16.00
-5.84
2.70
9.42
14.48
18.33
21.51
24.58
27.88
31.45
35.07
38.30
40.75
42.24
42.86
42.93
42.84
42.88
43.16
43.57
43.89
43.84
43.31
42.28
40.84
39.09
37.00
34.51
31.55
28.16
24.56
20.99
17.65
14.51
11.42
8.14
4.54
0.63
-3.41
-7.39
-11.21
-14.84
-18.31
-21.64
-24.86
-28.08
-31.51
-35.52
-40.43
-46.30
-52.79
-59.12
-64.20
-66.96
-66.61
-62.88
-56.05
-46.82
-36.12
-24.91
-14.07
-4.32
3.90
10.36
15.17
18.66
21.37
23.83
26.39
29.12
31.81
34.09
35.67
36.48
36.71
36.76
36.99
37.61
38.55
39.59
40.37
40.65
40.24
39.16
37.53
35.45
32.99
30.14
26.90
23.35
19.74
16.43
13.77
11.86
10.48
9.11
7.16
4.21
0.28
-4.29
-8.93
-13.20
-16.89
-20.07
-23.01
-25.99
-29.27
-33.04
-37.45
-42.61
-48.45
-54.61
-60.40
-64.84
-66.92
-65.90
-61.49
-54.01
-44.30
-33.47
-22.64
-12.71
-4.26
2.55
7.84
11.92
15.17
17.96
20.52
22.98
25.33
27.50
29.39
30.92
32.04
32.75
33.17
33.49
33.91
34.58
35.52
36.51
37.18
37.20
36.32
34.60
32.24
29.50
26.56
23.51
20.38
17.27
14.36
11.80
9.59
7.59
5.51
3.09
0.27
-2.85
-6.08
-9.24
-12.28
-15.21
-18.14
-21.23
-24.67
-28.73
-33.62
-39.34
-45.49
-51.31
-55.81
-58.01
-57.28
-53.46
-46.89
-38.33
-28.74
-19.08
-10.20
-2.66
3.36
7.92
11.32
13.94
16.04
17.82
19.33
20.61
21.64
22.45
23.04
23.39
23.47
23.31
23.02
22.75
22.64
22.73
22.98
23.19
23.14
22.61
21.45
19.61
17.13
14.15
10.91
7.69
4.74
2.21
0.12
-1.72
-3.54
-5.57
-7.91
-10.56
-13.46
-16.58
-19.90
-23.46
-27.26
-31.23
-35.27
-39.22
-42.88
-45.95
-48.03
-48.65
-47.42
-44.15
-38.90
-32.02
-24.05
-15.61
-7.33
0.18
6.44
11.13
14.20
15.88
16.61
16.90
17.20
17.77
18.66
19.77
20.91
21.95
22.80
23.51
24.15
24.79
25.47
26.10
26.55
26.62
26.16
25.06
23.32
20.98
18.11
14.87
11.47
8.14
5.04
2.17
-0.59
-3.42
-6.42
-9.56
-12.66
-15.53
-18.13
-20.68
-23.57
-27.21
-31.84
-37.24
-42.78
-47.50
-50.39
-50.66
-48.01
-42.75
-35.59
-27.48
-19.30
-11.61
-4.73
1.29
6.43
10.71
14.10
16.67
18.54
19.90
20.95
21.88
22.73
23.53
24.26
24.90
25.44
25.91
26.39
26.93
27.51
28.05
28.35
28.23
27.58
26.45
24.97
23.32
21.63
19.89
18.05
16.07
13.95
11.80
9.62
7.34
4.79
1.78
-1.73
-5.61
-9.57
-13.27
-16.48
-19.11
-21.29
-23.27
-25.42
-28.15
-31.77
-36.36
-41.59
-46.76
-50.88
-52.97
-52.37
-48.93
-43.03
-35.40
-26.88
-18.29
-10.29
-3.34
2.25
6.37
9.13
10.80
11.82
12.61
13.54
14.75
16.23
17.79
19.23
20.36
21.12
21.52
21.73
21.89
22.17
22.68
23.42
24.27
24.94
25.12
24.48
22.92
20.59
17.83
15.10
12.72
10.73
8.96
7.13
5.03
2.61
-0.02
-2.68
-5.31
-7.90
-10.51
-13.13
-15.70
-18.14
-20.49
-22.99
-25.95
-29.62
-34.02
-38.72
-43.09
-46.32
-47.79
-47.14
-44.26
-39.28
-32.48
-24.37
-15.58
-7.01
0.48
6.23
10.03
12.17
13.32
14.14
15.09
16.28
17.54
18.58
19.19
19.28
18.93
18.35
17.80
17.51
17.61
18.05
18.61
19.00
19.01
18.53
17.64
16.44
15.01
13.34
11.41
9.27
7.02
4.80
2.71
0.66
-1.51
-3.92
-6.54
-9.16
-11.53
-13.43
-14.91
-16.19
-17.69
-19.75
-22.57
-26.16
-30.25
-34.37
-37.84
-39.94
-40.03
-37.78
-33.24
-26.95
-19.78
-12.69
-6.44
-1.46
2.18
4.64
6.18
6.99
7.21
7.00
6.55
6.07
5.69
5.46
5.32
5.18
5.02
4.95
5.14
5.70
6.61
7.70
8.73
9.50
9.87
9.71
8.93
7.37
4.99
1.91
-1.52
-4.89
-7.84
-10.27
-12.41
-14.68
-17.48
-21.00
-25.09
-29.31
-33.10
-35.90
-37.21
-36.68
-34.09
-29.44
-22.99
-15.33
-7.28
0.22
6.45
11.05
14.08
15.92
16.95
17.47
17.56
17.26
16.65
15.93
15.41
15.34
15.79
16.60
17.52
18.25
18.58
18.39
17.64
16.27
14.30
11.78
8.84
5.70
2.62
-0.25
-2.84
-5.23
-7.63
-10.30
-13.44
-17.17
-21.49
-26.22
-30.97
-35.25
-38.43
-39.93
-39.34
-36.57
-31.86
-25.74
-18.85
-11.83
-5.13
0.92
6.16
10.48
13.88
16.46
18.39
19.86
21.04
22.03
22.79
23.29
23.46
23.30
22.87
22.28
21.68
21.18
20.90
20.90
21.08
21.24
21.02
20.00
17.95
14.84
10.89
6.53
2.17
-1.84
-5.31
-8.21
-10.61
-12.75
-15.00
-17.81
-21.51
-26.15
-31.32
-36.25
-40.01
-41.78
-41.12
-38.05
-32.92
-26.29
-18.83
-11.26
-4.21
1.82
6.61
10.24
13.03
15.41
17.62
19.77
21.72
23.33
24.50
25.30
25.86
26.31
26.75
27.15
27.48
27.70
27.80
27.77
27.54
26.98
25.94
24.28
21.98
19.17
16.11
13.08
10.32
7.93
5.82
3.77
1.55
-1.04
-4.03
-7.32
-10.69
-13.95
-17.04
-20.05
-23.28
-27.08
-31.70
-37.07
-42.71
-47.75
-51.17
-52.17
-50.34
-45.88
-39.38
-31.67
-23.57
-15.72
-8.64
-2.65
2.09
5.71
8.56
11.14
13.81
16.64
19.37
21.55
22.96
23.64
24.03
24.69
26.03
28.05
30.37
32.42
33.68
33.95
33.36
32.28
31.12
30.12
29.24
28.30
27.06
25.41
23.40
21.17
18.91
16.67
14.43
12.10
9.63
7.03
4.33
1.58
-1.20
-4.02
-6.86
-9.63
-12.21
-14.55
-16.67
-18.77
-21.19
-24.24
-28.19
-33.08
-38.64
-44.27
-49.08
-52.17
-52.81
-50.71
-46.06
-39.47
-31.76
-23.69
-15.91
-8.82
-2.65
2.46
6.50
9.56
11.84
13.65
15.29
16.93
18.63
20.31
21.81
23.02
23.91
24.55
25.13
25.82
26.74
27.81
28.79
29.42
29.49
29.00
28.13
27.11
26.10
25.06
23.83
22.29
20.41
18.33
16.23
14.25
12.38
10.53
8.60
6.59
4.56
2.62
0.81
-0.92
-2.73
-4.76
-7.11
-9.76
-12.59
-15.47
-18.30
-21.05
-23.89
-27.03
-30.67
-34.82
-39.20
-43.26
-46.30
-47.66
-46.89
-43.89
-38.89
-32.41
-25.10
-17.61
-10.45
-4.02
1.48
5.97
9.48
12.11
14.05
15.48
16.67
17.80
18.98
20.21
21.39
22.43
23.30
24.02
24.62
25.13
25.50
25.65
25.52
25.07
24.39
23.56
22.60
21.45
19.99
18.18
16.18
14.27
12.72
11.60
10.75
9.85
8.64
7.08
5.36
3.73
2.33
1.08
-0.30
-2.12
-4.52
-7.43
-10.55
-13.59
-16.32
-18.73
-20.97
-23.30
-25.96
-29.08
-32.58
-36.12
-39.19
-41.21
-41.73
-40.50
-37.57
-33.21
-27.83
-21.90
-15.83
-9.96
-4.53
0.29
4.39
7.76
10.42
12.46
13.95
14.98
15.63
16.00
16.23
16.49
16.92
17.65
18.71
20.01
21.40
22.68
23.71
24.37
24.60
24.43
23.88
23.00
21.82
20.41
18.83
17.21
15.70
14.41
13.41
12.62
11.86
10.88
9.44
7.48
5.14
2.75
0.71
-0.67
-1.24
-1.10
-0.55
0.10
0.55
0.59
0.02
-1.39
-3.87
-7.47
-11.94
-16.61
-20.57
-22.95
-23.24
-21.45
-17.93
-13.13
-7.39
-0.98
5.75
12.19
17.56
21.12
22.56
22.12
20.43
18.10
15.47
12.51
9.12
5.46
2.00
-0.67
-2.36
-3.38
-4.40
-5.90
-7.78
-9.31
-9.61
-8.32
-5.84
-3.20
-1.39
-0.87
-1.32
-1.99
-2.31
-2.16
-1.95
-2.20
-3.16
-4.57
-5.92
-6.70
-6.85
-6.74
-7.08
-8.49
-11.28
-15.20
-19.61
-23.73
-26.94
-29.06
-30.37
-31.48
-32.98
-35.21
-38.04
-40.87
-42.83
-43.05
-41.08
-36.96
-31.23
-24.75
-18.24
-12.12
-6.48
-1.34
3.20
6.87
9.31
10.41
10.42
9.96
9.67
9.98
10.87
11.97
12.78
12.96
12.60
12.08
11.92
12.45
13.64
15.05
16.15
16.53
16.20
15.45
14.67
14.18
13.91
13.65
13.06
11.99
10.47
8.69
6.92
5.30
3.86
2.52
1.17
-0.27
-1.85
-3.51
-5.22
-6.90
-8.56
-10.24
-12.07
-14.12
-16.45
-19.07
-21.94
-24.99
-28.08
-30.96
-33.19
-34.29
-33.76
-31.32
-27.03
-21.34
-14.97
-8.72
-3.25
1.06
4.14
6.18
7.42
8.09
8.38
8.43
8.39
8.36
8.39
8.49
8.56
8.53
8.36
8.10
7.80
7.58
7.50
7.58
7.78
8.02
8.17
8.08
7.64
6.80
5.63
4.25
2.76
1.22
-0.36
-1.90
-3.28
-4.33
-4.90
-4.87
-4.24
-3.02
-1.28
0.86
3.29
5.83
8.28
10.46
12.16
13.22
13.48
12.86
11.36
9.17
6.67
4.28
2.38
1.10
0.30
-0.39
-1.37
-3.02
-5.48
-8.72
-12.55
-16.65
-20.70
-24.37
-27.36
-29.45
-30.47
-30.39
-29.26
-27.31
-24.87
-22.33
-20.07
-18.34
-17.18
-16.40
-15.67
-14.66
-13.10
-10.97
-8.38
-5.58
-2.80
-0.22
2.05
3.93
5.34
6.09
6.01
5.00
3.12
0.62
-2.20
-5.02
-7.71
-10.32
-12.97
-15.79
-18.72
-21.51
-23.75
-25.03
-24.99
-23.43
-20.39
-16.10
-11.01
-5.61
-0.35
4.51
8.90
12.82
16.41
19.80
23.19
26.77
30.68
34.80
38.83
42.45
45.52
48.42
51.93
56.84
63.35
70.83
77.82
82.71
84.32
82.36
77.35
70.22
61.83
52.74
43.27
33.80
24.82
16.90
10.28
4.64
-0.91
-7.36
-15.20
-24.05
-32.70
-39.58
-43.42
-43.82
-41.26
-36.90
-32.01
-27.54
-24.04
-21.63
-20.25
-19.82
-20.22
-21.24
-22.56
-23.74
-24.40
-24.29
-23.46
-22.13
-20.57
-19.02
-17.48
-15.83
-13.91
-11.71
-9.43
-7.48
-6.29
-6.19
-7.17
-8.95
-11.01
-12.85
-14.11
-14.71
-14.91
-15.18
-16.07
-18.01
-21.17
-25.36
-30.04
-34.41
-37.52
-38.51
-36.78
-32.26
-25.50
-17.52
-9.50
-2.40
3.33
7.79
11.42
14.66
17.66
20.29
22.28
23.43
23.79
23.60
23.10
22.42
21.54
20.36
18.90
17.32
15.92
14.97
14.60
14.75
15.16
15.52
15.52
14.93
13.66
11.68
9.10
6.06
2.73
-0.73
-4.22
-7.68
-11.08
-14.47
-17.93
-21.53
-25.23
-28.80
-31.79
-33.57
-33.59
-31.59
-27.68
-22.39
-16.35
-10.13
-4.08
1.65
6.99
11.77
15.71
18.52
20.04
20.32
19.67
18.47
17.08
15.72
14.52
13.48
12.67
12.13
12.01
12.44
13.55
15.36
17.74
20.41
22.94
24.92
26.07
26.29
25.70
24.46
22.71
20.48
17.75
14.47
10.64
6.32
1.59
-3.43
-8.54
-13.52
-18.16
-22.40
-26.35
-30.17
-33.92
-37.41
-40.12
-41.36
-40.64
-37.85
-33.31
-27.72
-21.75
-15.91
-10.43
-5.34
-0.59
3.78
7.71
11.08
13.87
16.13
18.01
19.67
21.19
22.48
23.43
23.90
23.87
23.45
22.93
22.62
22.82
23.67
25.12
26.98
28.94
30.74
32.21
33.28
33.93
34.10
33.70
32.58
30.72
28.21
25.33
22.39
19.58
16.88
14.14
11.12
7.77
4.18
0.57
-2.85
-5.97
-8.81
-11.37
-13.67
-15.71
-17.51
-19.20
-21.01
-23.22
-26.00
-29.31
-32.88
-36.21
-38.73
-39.90
-39.35
-36.97
-32.93
-27.61
-21.51
-15.12
-8.85
-3.05
1.94
5.81
8.43
9.89
10.60
11.06
11.74
12.78
14.01
15.03
15.51
15.44
15.07
14.84
15.07
15.81
16.80
17.63
18.00
17.75
17.06
16.13
15.16
14.19
13.11
11.78
10.15
8.32
6.54
5.03
3.91
3.16
2.61
2.10
1.47
0.64
-0.41
-1.66
-3.05
-4.55
-6.15
-7.83
-9.58
-11.36
-13.21
-15.17
-17.39
-20.05
-23.26
-26.92
-30.66
-33.88
-35.91
-36.25
-34.71
-31.50
-27.04
-21.82
-16.26
-10.73
-5.48
-0.81
3.05
5.92
7.80
8.86
9.36
9.60
9.85
10.27
10.96
11.94
13.15
14.44
15.55
16.22
16.27
15.73
14.87
14.06
13.63
13.75
14.36
15.29
16.23
16.91
17.07
16.56
15.33
13.51
11.34
9.06
6.84
4.69
2.62
0.66
-1.02
-2.26
-3.04
-3.57
-4.24
-5.37
-6.96
-8.64
-9.87
-10.32
-10.15
-9.98
-10.60
-12.54
-15.76
-19.70
-23.54
-26.53
-28.21
-28.41
-27.15
-24.48
-20.58
-15.70
-10.32
-5.05
-0.47
3.02
5.32
6.52
6.89
6.75
6.38
6.03
5.90
6.02
6.30
6.54
6.56
6.32
5.91
5.56
5.42
5.57
5.93
6.39
6.93
7.57
8.36
9.23
9.97
10.30
9.98
8.95
7.35
5.44
3.48
1.58
-0.28
-2.17
-4.14
-6.15
-8.10
-9.92
-11.58
-13.10
-14.52
-15.92
-17.33
-18.83
-20.47
-22.26
-24.16
-25.99
-27.47
-28.24
-27.98
-26.49
-23.79
-20.07
-15.72
-11.21
-6.96
-3.30
-0.40
1.70
3.06
3.80
4.06
4.00
3.82
3.72
3.83
4.22
4.88
5.71
6.61
7.47
8.21
8.84
9.33
9.68
9.87
9.86
9.66
9.28
8.78
8.30
7.99
7.90
7.93
7.88
7.44
6.38
4.60
2.22
-0.55
-3.42
-6.20
-8.71
-10.87
-12.69
-14.29
-15.95
-18.02
-20.76
-24.17
-27.84
-31.09
-33.13
-33.40
-31.71
-28.27
-23.55
-18.09
-12.43
-7.04
-2.32
1.42
4.06
5.72
6.69
7.35
8.08
9.12
10.54
12.29
14.18
15.96
17.37
18.24
18.49
18.21
17.61
16.95
16.49
16.39
16.65
17.12
17.57
17.72
17.42
16.69
15.72
14.72
13.82
12.98
12.02
10.76
9.13
7.19
5.10
3.03
1.06
-0.85
-2.77
-4.78
-6.88
-9.00
-10.99
-12.72
-14.17
-15.44
-16.82
-18.57
-20.85
-23.62
-26.58
-29.26
-31.22
-32.10
-31.68
-29.92
-26.89
-22.79
-17.87
-12.49
-7.13
-2.24
1.78
4.71
6.60
7.75
8.55
9.38
10.43
11.64
12.81
13.73
14.32
14.64
14.87
15.18
15.64
16.18
16.71
17.09
17.32
17.40
17.40
17.38
17.32
17.15
16.81
16.24
15.44
14.42
13.20
11.80
10.23
8.52
6.79
5.18
3.75
2.45
1.14
-0.44
-2.43
-4.85
-7.51
-10.13
-12.38
-14.06
-15.16
-15.88
-16.55
-17.53
-19.11
-21.41
-24.38
-27.83
-31.52
-35.17
-38.50
-41.15
-42.77
-42.95
-41.41
-38.06
-33.10
-27.00
-20.35
-13.75
-7.63
-2.22
2.44
6.37
9.68
12.40
14.59
16.30
17.55
18.38
18.73
18.63
18.17
17.58
17.15
17.17
17.74
18.69
19.69
20.34
20.51
20.28
19.91
19.67
19.64
19.75
19.83
19.76
19.52
19.18
18.83
18.48
18.07
17.47
16.51
15.04
12.93
10.16
6.84
3.28
-0.18
-3.23
-5.78
-7.91
-9.81
-11.59
-13.27
-14.82
-16.30
-17.93
-20.07
-22.97
-26.59
-30.44
-33.70
-35.48
-35.18
-32.68
-28.36
-22.90
-16.97
-11.05
-5.40
-0.22
4.28
7.80
10.13
11.32
11.70
11.84
12.24
13.19
14.59
16.14
17.43
18.25
18.58
18.53
18.31
18.08
17.91
17.83
17.85
17.96
18.20
18.58
19.06
19.41
19.28
18.35
16.50
13.92
11.08
8.52
6.60
5.30
4.30
3.13
1.37
-1.11
-4.21
-7.64
-11.08
-14.27
-17.09
-19.52
-21.72
-23.94
-26.54
-29.79
-33.85
-38.54
-43.37
-47.57
-50.27
-50.77
-48.68
-44.06
-37.43
-29.62
-21.60
-14.25
-8.17
-3.54
-0.15
2.50
4.90
7.39
9.96
12.37
14.30
15.49
15.89
15.58
14.76
13.65
12.49
11.53
11.03
11.12
11.74
12.67
13.56
14.13
14.24
13.89
13.12
11.93
10.22
7.87
4.91
1.54
-1.87
-4.95
-7.53
-9.68
-11.70
-13.95
-16.69
-20.03
-23.91
-28.15
-32.51
-36.64
-39.99
-41.97
-41.95
-39.56
-34.80
-28.14
-20.34
-12.30
-4.77
1.75
7.06
11.17
14.16
16.18
17.41
18.10
18.55
19.00
19.63
20.42
21.26
22.02
22.66
23.21
23.82
24.57
25.50
26.57
27.68
28.68
29.34
29.43
28.76
27.28
25.15
22.64
20.01
17.33
14.58
11.70
8.73
5.76
2.96
0.38
-2.04
-4.38
-6.65
-8.72
-10.50
-11.98
-13.39
-15.09
-17.50
-20.91
-25.38
-30.79
-36.71
-42.43
-47.01
-49.45
-48.98
-45.44
-39.29
-31.52
-23.22
-15.29
-8.21
-2.11
3.07
7.45
11.11
14.19
16.87
19.29
21.51
23.42
24.87
25.75
26.13
26.25
26.43
26.86
27.63
28.67
29.89
31.20
32.54
33.75
34.64
34.98
34.61
33.57
32.04
30.29
28.53
26.78
24.96
22.89
20.51
17.95
15.43
13.19
11.35
9.81
8.28
6.49
4.25
1.55
-1.43
-4.48
-7.47
-10.39
-13.36
-16.56
-20.08
-23.88
-27.91
-32.09
-36.39
-40.77
-45.05
-48.86
-51.61
-52.62
-51.38
-47.62
-41.52
-33.60
-24.64
-15.53
-7.09
0.09
5.75
9.94
13.03
15.45
17.62
19.73
21.82
23.74
25.29
26.40
27.10
27.53
27.96
28.60
29.57
30.79
32.06
33.11
33.72
33.86
33.57
32.97
32.07
30.85
29.28
27.43
25.48
23.67
22.14
20.80
19.40
17.65
15.35
12.62
9.73
7.08
5.01
3.65
2.83
2.19
1.26
-0.34
-2.76
-5.93
-9.51
-13.15
-16.54
-19.61
-22.44
-25.27
-28.35
-31.92
-36.13
-40.95
-46.06
-50.85
-54.48
-56.04
-54.87
-50.73
-43.93
-35.21
-25.53
-15.90
-7.15
0.17
5.88
10.12
13.25
15.74
17.89
19.82
21.43
22.54
23.17
23.48
23.72
24.09
24.62
25.20
25.75
26.29
26.96
27.86
28.90
29.80
30.19
29.83
28.70
27.06
25.28
23.69
22.48
21.65
21.05
20.49
19.69
18.47
16.72
14.51
11.98
9.30
6.61
3.96
1.29
-1.47
-4.33
-7.26
-10.21
-13.06
-15.73
-18.18
-20.51
-22.87
-25.53
-28.68
-32.44
-36.75
-41.30
-45.65
-49.22
-51.38
-51.60
-49.56
-45.24
-38.99
-31.42
-23.28
-15.32
-8.17
-2.25
2.30
5.54
7.85
9.69
11.53
13.66
16.04
18.37
20.28
21.50
22.04
22.14
22.13
22.29
22.69
23.25
23.85
24.42
25.02
25.71
26.50
27.22
27.58
27.26
26.14
24.34
22.21
20.15
18.43
17.10
15.93
14.59
12.84
10.65
8.21
5.80
3.60
1.57
-0.51
-2.88
-5.67
-8.79
-11.95
-14.90
-17.51
-19.85
-22.18
-24.76
-27.78
-31.27
-35.21
-39.48
-43.90
-48.14
-51.72
-54.02
-54.42
-52.44
-47.97
-41.31
-33.16
-24.41
-15.91
-8.31
-1.94
3.18
7.19
10.33
12.82
14.81
16.47
17.83
18.93
19.72
20.13
20.23
20.13
20.13
20.47
21.27
22.44
23.71
24.75
25.38
25.59
25.57
25.49
25.37
25.05
24.29
22.96
21.13
19.08
17.09
15.27
13.52
11.60
9.37
6.87
4.40
2.25
0.48
-1.10
-2.96
-5.40
-8.47
-11.83
-15.04
-17.75
-19.96
-21.98
-24.25
-27.14
-30.81
-35.13
-39.78
-44.26
-47.89
-49.93
-49.71
-46.84
-41.38
-33.87
-25.29
-16.72
-9.07
-2.83
1.92
5.44
8.14
10.39
12.38
14.17
15.74
17.03
18.06
18.90
19.59
20.17
20.70
21.25
21.97
23.03
24.51
26.34
28.26
29.88
30.81
30.84
29.92
28.23
26.03
23.59
21.13
18.76
16.48
14.17
11.68
8.87
5.74
2.38
-1.04
-4.38
-7.56
-10.63
-13.67
-16.73
-19.78
-22.84
-25.91
-29.13
-32.64
-36.57
-40.80
-45.00
-48.61
-50.98
-51.47
-49.66
-45.47
-39.16
-31.35
-22.89
-14.73
-7.71
-2.34
1.26
3.33
4.31
4.67
4.74
4.65
4.49
4.27
4.16
4.31
4.86
5.80
6.94
7.96
8.55
8.55
8.07
7.36
6.71
6.24
5.82
5.13
3.80
1.66
-1.13
-4.23
-7.27
-10.13
-12.92
-15.89
-19.16
-22.61
-25.91
-28.83
-31.42
-34.02
-37.04
-40.55
-44.09
-46.69
-47.23
-44.93
-39.66
-32.02
-23.05
-13.84
-5.25
2.26
8.56
13.74
17.94
21.34
24.12
26.43
28.42
30.19
31.88
33.55
35.25
36.95
38.53
39.79
40.57
40.82
40.64
40.26
39.82
39.28
38.36
36.64
33.77
29.75
24.98
20.17
16.03
12.97
10.97
9.63
8.38
6.80
4.68
2.11
-0.73
-3.65
-6.57
-9.51
-12.53
-15.75
-19.33
-23.48
-28.37
-33.98
-39.94
-45.57
-50.00
-52.43
-52.29
-49.43
-44.04
-36.62
-27.91
-18.74
-9.96
-2.28
3.93
8.66
12.23
15.17
17.86
20.49
22.99
25.21
27.06
28.60
29.99
31.39
32.81
34.24
35.57
36.79
37.90
38.94
39.77
40.23
40.10
39.22
37.58
35.27
32.45
29.30
25.93
22.41
18.73
14.88
10.77
6.40
1.91
-2.51
-6.62
-10.31
-13.68
-17.01
-20.60
-24.66
-29.20
-34.08
-39.16
-44.26
-49.21
-53.57
-56.74
-57.94
-56.52
-52.21
-45.24
-36.36
-26.55
-16.83
-7.97
-0.45
5.58
10.24
13.76
16.41
18.43
19.99
21.22
22.23
23.14
24.08
25.04
25.94
26.63
26.94
26.82
26.33
25.62
24.87
24.25
23.76
23.32
22.71
21.66
20.00
17.63
14.63
11.16
7.45
3.70
0.04
-3.47
-6.80
-9.96
-13.05
-16.26
-19.86
-24.13
-29.18
-34.84
-40.54
-45.46
-48.66
-49.36
-47.24
-42.44
-35.61
-27.63
-19.44
-11.78
-5.12
0.39
4.84
8.44
11.42
13.94
16.06
17.79
19.10
20.00
20.59
21.01
21.37
21.75
22.14
22.51
22.85
23.25
23.81
24.58
25.41
25.92
25.61
24.03
21.03
16.79
11.80
6.67
1.93
-2.12
-5.43
-8.18
-10.72
-13.51
-16.99
-21.45
-26.90
-32.92
-38.73
-43.33
-45.85
-45.67
-42.64
-37.02
-29.45
-20.75
-11.80
-3.37
3.93
9.77
14.06
17.00
18.94
20.33
21.52
22.69
23.82
24.84
25.69
26.39
27.02
27.69
28.47
29.38
30.45
31.66
32.90
33.94
34.41
33.92
32.21
29.34
25.63
21.55
17.54
13.86
10.53
7.40
4.30
1.03
-2.56
-6.49
-10.72
-15.12
-19.60
-24.20
-29.06
-34.39
-40.33
-46.67
-52.82
-57.82
-60.66
-60.56
-57.26
-51.10
-42.91
-33.74
-24.53
-15.92
-8.19
-1.37
4.62
9.86
14.40
18.36
21.92
25.25
28.43
31.36
33.80
35.47
36.27
36.35
36.07
35.80
35.82
36.15
36.63
37.04
37.18
36.89
36.07
34.64
32.58
29.96
27.04
24.13
21.46
19.11
16.90
14.52
11.69
8.36
4.68
1.00
-2.41
-5.44
-8.18
-10.82
-13.58
-16.61
-20.00
-23.87
-28.35
-33.48
-39.02
-44.33
-48.42
-50.20
-48.90
-44.34
-37.08
-28.22
-19.09
-10.79
-3.99
1.18
4.95
7.73
9.92
11.76
13.38
14.84
16.16
17.29
18.16
18.65
18.70
18.33
17.73
17.21
17.05
17.33
17.97
18.67
19.19
19.38
19.24
18.84
18.13
16.99
15.23
12.80
9.84
6.61
3.44
0.53
-2.02
-4.25
-6.21
-7.96
-9.57
-11.20
-13.11
-15.61
-18.94
-23.17
-28.15
-33.53
-38.77
-43.23
-46.21
-47.07
-45.39
-41.14
-34.74
-26.99
-18.85
-11.18
-4.56
0.84
5.14
8.55
11.23
13.23
14.55
15.23
15.45
15.49
15.65
16.11
16.90
17.92
19.03
20.15
21.25
22.30
23.26
24.03
24.60
25.00
25.35
25.74
26.10
26.17
25.60
24.11
21.62
18.38
14.81
11.33
8.18
5.37
2.68
-0.17
-3.32
-6.72
-10.12
-13.20
-15.76
-17.79
-19.51
-21.33
-23.64
-26.68
-30.44
-34.60
-38.58
-41.70
-43.29
-42.82
-40.03
-34.99
-28.08
-19.97
-11.50
-3.60
2.98
7.74
10.62
11.99
12.47
12.79
13.47
14.73
16.46
18.31
19.97
21.23
22.06
22.52
22.71
22.70
22.52
22.28
22.10
22.16
22.54
23.19
23.81
24.06
23.59
22.30
20.35
18.08
15.90
14.04
12.54
11.20
9.74
7.93
5.69
3.10
0.31
-2.52
-5.31
-8.06
-10.73
-13.26
-15.54
-17.47
-19.04
-20.43
-21.94
-23.90
-26.52
-29.74
-33.16
-36.14
-37.96
-38.01
-35.97
-31.85
-26.03
-19.16
-11.94
-5.12
0.78
5.46
8.91
11.29
12.91
14.04
14.88
15.50
15.88
16.04
16.06
16.06
16.14
16.32
16.49
16.45
16.08
15.35
14.43
13.56
12.92
12.53
12.21
11.73
10.86
9.54
7.85
5.95
4.00
2.08
0.26
-1.40
-2.82
-3.98
-4.89
-5.73
-6.71
-8.09
-9.96
-12.28
-14.85
-17.42
-19.86
-22.18
-24.57
-27.23
-30.30
-33.65
-36.94
-39.69
-41.38
-41.60
-40.16
-37.04
-32.48
-26.88
-20.73
-14.55
-8.77
-3.72
0.40
3.50
5.62
6.94
7.68
8.11
8.44
8.75
8.99
9.05
8.83
8.41
7.97
7.77
8.02
8.73
9.76
10.82
11.64
12.02
11.89
11.31
10.32
9.00
7.35
5.40
3.22
0.93
-1.32
-3.50
-5.63
-7.87
-10.33
-13.09
-16.11
-19.31
-22.60
-25.85
-28.90
-31.43
-33.04
-33.29
-31.90
-28.79
-24.20
-18.60
-12.59
-6.79
-1.67
2.45
5.50
7.57
8.93
9.86
10.57
11.23
11.93
12.72
13.54
14.32
14.88
15.07
14.86
14.38
13.94
13.90
14.40
15.38
16.57
17.55
17.98
17.69
16.66
14.99
12.82
10.32
7.70
5.26
3.23
1.73
0.67
-0.24
-1.35
-2.89
-4.88
-7.13
-9.41
-11.61
-13.75
-15.96
-18.36
-21.01
-23.91
-27.05
-30.39
-33.77
-36.82
-38.94
-39.40
-37.69
-33.75
-28.02
-21.32
-14.54
-8.35
-3.08
1.23
4.68
7.41
9.57
11.34
12.87
14.31
15.68
16.90
17.86
18.44
18.61
18.51
18.30
18.22
18.45
19.06
19.98
21.03
21.88
22.21
21.84
20.77
19.19
17.44
15.84
14.57
13.60
12.72
11.67
10.25
8.45
6.45
4.52
2.89
1.70
0.98
0.67
0.66
0.79
0.85
0.57
-0.30
-1.92
-4.21
-6.89
-9.64
-12.25
-14.75
-17.39
-20.47
-24.20
-28.57
-33.32
-38.04
-42.13
-44.93
-45.82
-44.32
-40.38
-34.36
-27.04
-19.37
-12.21
-6.03
-0.98
3.03
6.16
8.51
10.19
11.38
12.32
13.27
14.35
15.46
16.38
16.92
17.07
17.07
17.21
17.70
18.58
19.71
20.91
22.09
23.17
24.09
24.71
24.88
24.48
23.55
22.26
20.82
19.35
17.79
15.92
13.55
10.67
7.53
4.64
2.44
1.12
0.56
0.31
-0.14
-1.07
-2.40
-3.85
-5.12
-6.20
-7.38
-9.12
-11.74
-15.22
-19.21
-23.27
-27.03
-30.45
-33.72
-37.07
-40.52
-43.82
-46.47
-47.89
-47.55
-45.12
-40.59
-34.23
-26.60
-18.44
-10.58
-3.61
2.07
6.43
9.62
11.84
13.23
13.91
14.05
13.88
13.73
13.86
14.41
15.26
16.24
17.18
18.08
19.00
19.97
20.90
21.58
21.83
21.64
21.18
20.68
20.27
19.86
19.26
18.29
16.98
15.55
14.27
13.24
12.34
11.27
9.74
7.65
5.21
2.74
0.57
-1.16
-2.52
-3.80
-5.30
-7.25
-9.64
-12.33
-15.09
-17.66
-19.91
-21.88
-23.76
-25.87
-28.52
-31.86
-35.79
-39.88
-43.53
-46.01
-46.70
-45.19
-41.43
-35.67
-28.47
-20.59
-12.84
-5.90
-0.22
4.04
6.98
8.97
10.41
11.66
13.00
14.46
15.92
17.14
17.88
18.03
17.71
17.21
16.90
17.02
17.63
18.60
19.73
20.85
21.94
22.96
23.85
24.50
24.69
24.28
23.23
21.66
19.71
17.51
15.14
12.69
10.31
8.21
6.58
5.40
4.46
3.37
1.81
-0.30
-2.75
-5.17
-7.30
-9.08
-10.68
-12.39
-14.43
-16.87
-19.69
-22.89
-26.51
-30.58
-35.04
-39.65
-43.92
-47.28
-49.10
-48.96
-46.63
-42.18
-35.89
-28.28
-19.99
-11.75
-4.27
1.94
6.65
9.88
11.94
13.25
14.23
15.19
16.27
17.47
18.66
19.70
20.50
21.12
21.73
22.57
23.81
25.40
27.01
28.24
28.77
28.53
27.73
26.74
25.86
25.17
24.49
23.58
22.27
20.57
18.61
16.52
14.30
11.88
9.20
6.33
3.54
1.12
-0.76
-2.14
-3.38
-4.90
-7.04
-9.88
-13.20
-16.62
-19.77
-22.49
-24.79
-26.90
-29.12
-31.72
-34.94
-38.85
-43.30
-47.81
-51.62
-53.77
-53.46
-50.23
-44.19
-35.99
-26.64
-17.26
-8.75
-1.68
3.82
7.89
10.85
13.05
14.77
16.19
17.37
18.38
19.24
20.00
20.74
21.51
22.30
23.16
24.16
25.34
26.74
28.31
29.97
31.58
33.03
34.17
34.90
35.06
34.56
33.37
31.55
29.25
26.56
23.51
20.07
16.26
12.26
8.43
5.23
2.95
1.57
0.71
-0.15
-1.51
-3.59
-6.34
-9.48
-12.69
-15.73
-18.51
-21.07
-23.58
-26.22
-29.23
-32.75
-36.86
-41.41
-46.07
-50.18
-52.92
-53.49
-51.28
-46.20
-38.68
-29.65
-20.23
-11.42
-3.81
2.46
7.54
11.73
15.18
17.86
19.69
20.58
20.65
20.24
19.71
19.39
19.49
20.00
20.84
21.87
22.99
24.13
25.27
26.38
27.47
28.53
29.51
30.32
30.81
30.83
30.27
29.15
27.53
25.52
23.17
20.56
17.73
14.85
12.12
9.70
7.62
5.75
3.85
1.67
-1.00
-4.19
-7.78
-11.55
-15.14
-18.22
-20.55
-22.13
-23.23
-24.32
-26.00
-28.74
-32.76
-37.91
-43.63
-49.10
-53.33
-55.41
-54.76
-51.28
-45.30
-37.53
-28.83
-20.01
-11.76
-4.61
1.17
5.51
8.64
10.92
12.74
14.34
15.69
16.64
17.01
16.79
16.19
15.59
15.36
15.75
16.83
18.45
20.36
22.25
23.81
24.75
24.98
24.46
23.26
21.56
19.57
17.50
15.57
13.85
12.30
10.74
8.95
6.75
4.17
1.31
-1.69
-4.76
-7.91
-11.17
-14.46
-17.62
-20.42
-22.80
-24.91
-27.12
-29.81
-33.28
-37.49
-42.01
-46.15
-49.08
-50.01
-48.46
-44.32
-37.88
-29.81
-21.00
-12.31
-4.48
2.02
7.07
10.78
13.42
15.30
16.67
17.73
18.62
19.47
20.39
21.46
22.67
23.93
25.13
26.25
27.35
28.53
29.81
31.08
32.10
32.58
32.32
31.26
29.54
27.32
24.85
22.31
19.80
17.32
14.80
12.14
9.28
6.20
2.97
-0.36
-3.76
-7.25
-10.85
-14.48
-18.02
-21.26
-24.10
-26.63
-29.13
-32.01
-35.64
-40.23
-45.69
-51.59
-57.22
-61.64
-63.89
-63.18
-59.13
-51.90
-42.19
-31.15
-20.06
-10.10
-2.08
3.73
7.46
9.66
11.01
12.18
13.68
15.72
18.26
21.00
23.57
25.65
27.05
27.81
28.11
28.27
28.60
29.41
30.80
32.69
34.78
36.64
37.90
38.31
37.80
36.46
34.45
32.01
29.33
26.60
23.97
21.49
19.14
16.83
14.44
11.95
9.36
6.73
4.12
1.53
-1.09
-3.82
-6.67
-9.65
-12.67
-15.62
-18.41
-21.07
-23.83
-27.09
-31.32
-36.74
-43.19
-49.99
-56.15
-60.58
-62.43
-61.30
-57.19
-50.48
-41.84
-32.10
-22.12
-12.69
-4.41
2.47
8.02
12.56
16.51
20.11
23.42
26.25
28.31
29.41
29.60
29.20
28.69
28.58
29.22
30.69
32.86
35.40
37.94
40.17
41.81
42.61
42.48
41.45
39.72
37.63
35.50
33.53
31.68
29.81
27.71
25.23
22.27
18.87
15.15
11.34
7.71
4.50
1.81
-0.51
-2.78
-5.40
-8.63
-12.43
-16.56
-20.64
-24.45
-27.93
-31.29
-34.78
-38.60
-42.81
-47.25
-51.63
-55.49
-58.25
-59.33
-58.19
-54.47
-48.11
-39.49
-29.33
-18.64
-8.45
0.42
7.51
12.85
16.82
19.89
22.47
24.77
26.89
28.85
30.68
32.44
34.10
35.61
36.90
37.93
38.77
39.51
40.19
40.71
40.95
40.81
40.29
39.49
38.44
37.12
35.41
33.25
30.75
28.08
25.37
22.60
19.62
16.22
12.39
8.34
4.40
0.77
-2.52
-5.67
-8.91
-12.37
-16.01
-19.65
-23.19
-26.65
-30.18
-34.03
-38.37
-43.29
-48.66
-54.14
-59.13
-62.90
-64.62
-63.67
-59.79
-53.20
-44.52
-34.65
-24.57
-15.03
-6.56
0.62
6.46
10.99
14.26
16.33
17.35
17.51
17.16
16.60
16.15
15.97
16.11
16.53
17.20
18.05
19.02
20.04
20.99
21.78
22.32
22.61
22.67
22.50
22.00
21.04
19.46
17.14
14.07
10.35
6.16
1.77
-2.55
-6.56
-10.14
-13.33
-16.34
-19.49
-23.11
-27.46
-32.57
-38.22
-43.90
-48.92
-52.49
-53.87
-52.54
-48.33
-41.49
-32.63
-22.69
-12.70
-3.59
3.96
9.69
13.71
16.42
18.29
19.70
20.81
21.62
22.02
22.01
21.68
21.26
20.98
21.05
21.51
22.26
23.16
24.05
24.86
25.60
26.31
26.99
27.53
27.69
27.22
25.97
23.99
21.54
18.92
16.31
13.67
10.75
7.32
3.31
-1.14
-5.69
-10.01
-13.90
-17.31
-20.35
-23.27
-26.37
-30.05
-34.64
-40.30
-46.75
-53.24
-58.70
-61.99
-62.31
-59.36
-53.35
-44.89
-34.85
-24.14
-13.73
-4.44
3.16
8.97
13.27
16.65
19.71
22.82
26.04
29.19
31.96
34.15
35.65
36.49
36.82
36.82
36.71
36.70
36.89
37.27
37.64
37.78
37.49
36.74
35.65
34.38
33.06
31.62
29.95
27.85
25.24
22.14
18.70
15.17
11.76
8.64
5.85
3.28
0.72
-2.05
-5.20
-8.72
-12.49
-16.27
-19.84
-23.11
-26.18
-29.31
-32.85
-37.12
-42.24
-48.02
-53.93
-59.15
-62.71
-63.71
-61.58
-56.29
-48.23
-38.26
-27.38
-16.62
-6.79
1.59
8.33
13.53
17.55
20.79
23.65
26.36
28.98
31.39
33.39
34.75
35.39
35.35
34.84
34.17
33.64
33.52
33.98
34.96
36.20
37.29
37.80
37.42
36.14
34.22
32.02
29.86
27.82
25.78
23.48
20.76
17.67
14.51
11.59
9.05
6.81
4.60
2.13
-0.68
-3.72
-6.83
-9.92
-13.04
-16.35
-19.97
-23.87
-27.88
-31.88
-35.92
-40.27
-45.24
-50.86
-56.69
-61.82
-65.09
-65.49
-62.58
-56.53
-48.11
-38.30
-28.13
-18.39
-9.55
-1.84
4.66
10.00
14.28
17.60
20.12
21.91
23.12
23.84
24.22
24.43
24.64
24.95
25.43
26.03
26.70
27.35
27.91
28.24
28.22
27.72
26.70
25.23
23.42
21.38
19.16
16.73
14.04
11.06
7.82
4.38
0.77
-3.02
-6.98
-11.01
-14.93
-18.51
-21.64
-24.38
-27.02
-29.94
-33.42
-37.51
-41.94
-46.19
-49.62
-51.62
-51.68
-49.50
-45.04
-38.54
-30.57
-21.89
-13.31
-5.50
1.16
6.64
11.09
14.73
17.62
19.73
20.95
21.27
20.83
19.93
18.94
18.13
17.68
17.65
17.97
18.52
19.09
19.47
19.48
19.06
18.31
17.41
16.53
15.64
14.49
12.78
10.25
6.90
2.99
-1.12
-5.10
-8.79
-12.26
-15.65
-19.16
-22.94
-27.17
-31.97
-37.41
-43.31
-49.12
-54.01
-56.94
-57.08
-54.03
-47.96
-39.61
-29.98
-20.10
-10.83
-2.70
4.04
9.32
13.24
16.06
18.13
19.85
21.56
23.39
25.32
27.16
28.67
29.72
30.31
30.60
30.78
31.04
31.47
32.02
32.56
32.83
32.58
31.64
29.95
27.62
24.87
21.96
19.06
16.17
13.20
9.97
6.40
2.54
-1.45
-5.39
-9.16
-12.73
-16.11
-19.34
-22.53
-25.88
-29.76
-34.55
-40.48
-47.28
-54.18
-59.96
-63.39
-63.55
-60.20
-53.72
-45.00
-35.14
-25.22
-16.08
-8.23
-1.77
3.57
8.30
12.89
17.56
22.14
26.25
29.50
31.74
33.13
34.02
34.73
35.42
36.10
36.73
37.33
38.00
38.85
39.85
40.81
41.39
41.31
40.42
38.70
36.28
33.32
29.93
26.30
22.60
19.08
15.89
13.08
10.53
7.97
5.17
2.03
-1.43
-5.07
-8.75
-12.37
-15.90
-19.32
-22.62
-25.77
-28.84
-32.00
-35.51
-39.69
-44.74
-50.48
-56.31
-61.26
-64.18
-64.19
-60.91
-54.59
-46.02
-36.21
-26.10
-16.39
-7.56
0.11
6.44
11.43
15.27
18.35
21.10
23.78
26.38
28.72
30.59
31.94
32.95
33.84
34.73
35.57
36.20
36.45
36.37
36.13
36.00
36.12
36.41
36.60
36.38
35.50
33.88
31.63
28.93
25.99
22.93
19.82
16.66
13.49
10.41
7.52
4.93
2.61
0.36
-2.07
-4.94
-8.35
-12.20
-16.28
-20.38
-24.51
-28.86
-33.78
-39.42
-45.63
-51.76
-56.81
-59.71
-59.61
-56.24
-49.90
-41.46
-32.01
-22.61
-14.07
-6.81
-0.98
3.50
6.85
9.30
11.12
12.60
13.94
15.26
16.53
17.60
18.35
18.72
18.79
18.77
18.89
19.30
20.03
20.96
21.86
22.50
22.65
22.17
20.98
19.13
16.73
13.97
11.05
8.10
5.17
2.21
-0.88
-4.18
-7.69
-11.27
-14.72
-17.90
-20.80
-23.61
-26.65
-30.26
-34.60
-39.51
-44.42
-48.46
-50.64
-50.15
-46.64
-40.31
-31.87
-22.34
-12.75
-3.92
3.58
9.51
13.87
16.88
18.85
20.13
21.01
21.67
22.10
22.27
22.18
21.94
21.69
21.57
21.57
21.63
21.70
21.84
22.17
22.76
23.46
23.94
23.81
22.83
21.05
18.69
15.97
12.98
9.65
5.90
1.83
-2.30
-6.19
-9.69
-12.87
-15.96
-19.20
-22.73
-26.57
-30.73
-35.31
-40.44
-46.04
-51.62
-56.30
-59.00
-58.80
-55.37
-48.96
-40.36
-30.58
-20.58
-11.17
-2.87
3.96
9.24
13.14
16.03
18.41
20.57
22.65
24.52
26.01
27.08
27.83
28.44
29.04
29.63
30.12
30.43
30.52
30.42
30.12
29.53
28.49
26.86
24.66
22.02
19.21
16.51
14.06
11.84
9.69
7.38
4.68
1.51
-2.02
-5.65
-9.07
-12.05
-14.52
-16.62
-18.67
-21.08
-24.31
-28.66
-34.18
-40.44
-46.53
-51.16
-53.03
-51.26
-45.70
-37.05
-26.63
-15.92
-6.20
1.81
7.99
12.56
15.95
18.56
20.74
22.70
24.60
26.52
28.45
30.28
31.84
32.94
33.50
33.61
33.55
33.69
34.31
35.45
36.88
38.20
38.99
38.97
38.12
36.59
34.57
32.16
29.46
26.49
23.44
20.55
18.08
16.04
14.19
12.07
9.25
5.55
1.14
-3.55
-8.06
-12.05
-15.42
-18.26
-20.73
-23.06
-25.53
-28.48
-32.17
-36.61
-41.39
-45.65
-48.30
-48.40
-45.53
-39.93
-32.43
-24.10
-15.98
-8.78
-2.90
1.56
4.71
6.73
7.91
8.57
9.02
9.52
10.21
11.09
12.05
12.98
13.75
14.37
14.89
15.42
16.06
16.84
17.64
18.24
18.39
17.90
16.74
15.01
12.91
10.59
8.11
5.44
2.57
-0.51
-3.68
-6.81
-9.78
-12.58
-15.32
-18.14
-21.23
-24.67
-28.53
-32.74
-37.03
-40.92
-43.73
-44.74
-43.41
-39.50
-33.21
-25.18
-16.25
-7.39
0.57
7.00
11.64
14.54
16.01
16.53
16.53
16.33
16.07
15.76
15.36
14.82
14.14
13.31
12.38
11.45
10.72
10.42
10.69
11.53
12.65
13.59
13.88
13.20
11.51
8.93
5.73
2.11
-1.74
-5.70
-9.62
-13.44
-17.24
-21.27
-25.89
-31.23
-37.01
-42.48
-46.59
-48.36
-47.28
-43.35
-37.06
-29.11
-20.25
-11.23
-2.78
4.48
10.10
13.91
16.07
16.93
16.85
16.12
14.89
13.31
11.61
10.15
9.26
9.09
9.56
10.34
11.11
11.69
12.08
12.35
12.50
12.33
11.54
9.90
7.39
4.24
0.82
-2.58
-5.89
-9.30
-13.10
-17.53
-22.63
-28.27
-34.10
-39.68
-44.42
-47.67
-48.74
-47.14
-42.70
-35.78
-27.17
-17.93
-9.14
-1.56
4.45
8.98
12.43
15.25
17.82
20.26
22.48
24.24
25.31
25.61
25.25
24.46
23.45
22.34
21.13
19.84
18.49
17.23
16.14
15.16
14.01
12.34
9.89
6.65
2.93
-0.79
-4.13
-7.06
-9.91
-13.23
-17.59
-23.15
-29.61
-36.15
-41.68
-45.16
-45.84
-43.52
-38.40
-31.06
-22.25
-12.78
-3.49
4.87
11.72
16.80
20.17
22.22
23.44
24.22
24.77
25.15
25.35
25.39
25.35
25.23
24.96
24.42
23.54
22.35
21.09
20.02
19.32
18.99
18.73
18.16
16.86
14.57
11.22
7.07
2.51
-1.98
-6.04
-9.60
-12.88
-16.41
-20.69
-26.06
-32.36
-38.96
-44.81
-48.74
-49.82
-47.57
-42.14
-34.19
-24.69
-14.66
-5.02
3.53
10.54
15.85
19.62
22.21
24.09
25.65
27.05
28.31
29.36
30.19
30.87
31.53
32.14
32.59
32.68
32.29
31.47
30.40
29.23
27.97
26.52
24.73
22.55
20.11
17.56
15.03
12.52
9.87
6.90
3.51
-0.28
-4.33
-8.51
-12.73
-17.00
-21.39
-25.94
-30.60
-35.28
-39.82
-44.05
-47.73
-50.45
-51.70
-50.89
-47.57
-41.65
-33.58
-24.21
-14.62
-5.78
1.69
7.62
12.15
15.61
18.35
20.60
22.56
24.29
25.79
27.00
27.89
28.40
28.56
28.43
28.13
27.74
27.32
26.89
26.41
25.89
25.30
24.60
23.73
22.62
21.23
19.57
17.66
15.47
12.97
10.14
7.01
3.73
0.48
-2.60
-5.52
-8.45
-11.60
-15.16
-19.22
-23.72
-28.58
-33.64
-38.62
-42.97
-45.91
-46.56
-44.30
-38.97
-31.15
-21.91
-12.54
-4.16
2.63
7.70
11.34
13.94
15.84
17.21
18.10
18.53
18.52
18.14
17.48
16.70
16.02
15.70
15.95
16.91
18.50
20.41
22.25
23.67
24.50
24.75
24.52
23.89
22.76
21.01
18.53
15.40
11.91
8.39
5.08
1.99
-1.06
-4.32
-7.89
-11.64
-15.22
-18.28
-20.62
-22.40
-23.99
-25.84
-28.26
-31.32
-34.92
-38.76
-42.50
-45.63
-47.50
-47.38
-44.65
-39.09
-31.08
-21.54
-11.68
-2.58
5.10
11.16
15.77
19.21
21.71
23.46
24.59
25.25
25.65
26.00
26.41
26.95
27.64
28.48
29.43
30.47
31.51
32.40
32.96
32.97
32.27
30.73
28.36
25.31
21.85
18.32
15.00
11.98
9.13
6.17
2.80
-1.12
-5.42
-9.68
-13.39
-16.21
-18.11
-19.35
-20.39
-21.66
-23.43
-25.79
-28.76
-32.32
-36.43
-40.94
-45.42
-49.19
-51.44
-51.41
-48.67
-43.26
-35.64
-26.72
-17.49
-8.87
-1.45
4.54
9.18
12.76
15.55
17.78
19.53
20.82
21.73
22.36
22.88
23.44
24.14
24.94
25.73
26.27
26.39
25.98
25.03
23.67
22.10
20.51
18.95
17.42
15.76
13.82
11.48
8.74
5.75
2.73
-0.03
-2.38
-4.29
-5.94
-7.65
-9.73
-12.40
-15.69
-19.43
-23.28
-26.81
-29.47
-30.74
-30.17
-27.54
-22.99
-17.06
-10.57
-4.44
0.53
3.90
5.62
6.03
5.64
4.97
4.37
3.94
3.58
3.14
2.57
1.99
1.59
1.53
1.81
2.29
2.73
2.97
2.92
2.62
2.10
1.34
0.26
-1.15
-2.85
-4.71
-6.64
-8.71
-11.10
-14.07
-17.78
-22.15
-26.83
-31.14
-34.29
-35.55
-34.43
-30.89
-25.31
-18.37
-10.88
-3.62
2.83
8.07
11.86
14.13
14.96
14.60
13.45
12.05
10.84
10.10
9.90
10.12
10.52
10.85
10.96
10.83
10.53
10.16
9.80
9.37
8.66
7.48
5.72
3.50
1.11
-1.10
-2.98
-4.67
-6.58
-9.17
-12.72
-17.18
-22.16
-27.12
-31.54
-34.98
-37.07
-37.50
-36.04
-32.68
-27.61
-21.38
-14.68
-8.18
-2.42
2.37
6.15
9.04
11.18
12.70
13.71
14.35
14.75
15.10
15.51
16.00
16.46
16.73
16.60
16.01
15.03
13.87
12.73
11.71
10.78
9.79
8.55
6.92
4.87
2.43
-0.22
-2.91
-5.41
-7.63
-9.65
-11.74
-14.23
-17.37
-21.17
-25.42
-29.75
-33.73
-36.87
-38.68
-38.70
-36.61
-32.40
-26.51
-19.68
-12.75
-6.36
-0.80
3.92
7.89
11.19
13.79
15.70
16.99
17.78
18.15
18.14
17.76
17.19
16.68
16.56
16.93
17.64
18.30
18.52
18.07
17.01
15.56
13.94
12.28
10.56
8.78
6.99
5.25
3.59
1.92
0.08
-2.07
-4.58
-7.39
-10.34
-13.24
-16.00
-18.69
-21.48
-24.64
-28.33
-32.39
-36.33
-39.29
-40.45
-39.25
-35.60
-29.89
-22.85
-15.29
-7.91
-1.23
4.44
8.98
12.41
14.94
16.77
18.17
19.33
20.37
21.32
22.16
22.89
23.45
23.85
24.12
24.28
24.40
24.50
24.52
24.40
24.07
23.52
22.79
21.96
21.07
20.09
18.92
17.43
15.57
13.27
10.56
7.49
4.18
0.75
-2.60
-5.69
-8.36
-10.51
-12.14
-13.39
-14.53
-15.98
-18.24
-21.74
-26.62
-32.60
-38.91
-44.46
-48.12
-49.03
-46.82
-41.71
-34.36
-25.80
-17.10
-9.24
-2.83
1.97
5.38
7.93
10.15
12.42
14.83
17.28
19.51
21.28
22.41
22.90
22.83
22.43
22.01
21.83
22.10
22.83
23.91
25.07
25.98
26.29
25.69
24.04
21.38
18.01
14.44
11.14
8.46
6.38
4.69
2.98
0.97
-1.52
-4.44
-7.65
-10.98
-14.30
-17.55
-20.74
-23.99
-27.44
-31.16
-34.99
-38.43
-40.73
-41.10
-38.97
-34.24
-27.41
-19.34
-11.10
-3.62
2.54
7.20
10.55
12.89
14.53
15.62
16.21
16.38
16.30
16.31
16.70
17.65
19.08
20.68
22.11
23.12
23.63
23.75
23.61
23.24
22.63
21.69
20.38
18.68
16.68
14.47
12.20
10.01
7.93
5.90
3.73
1.23
-1.74
-5.09
-8.57
-11.82
-14.59
-16.83
-18.71
-20.48
-22.40
-24.58
-27.00
-29.61
-32.30
-34.85
-36.84
-37.61
-36.39
-32.56
-25.79
-16.22
-4.22
9.81
25.54
42.71
61.02
80.00
99.03
117.50
135.02
151.41
166.48
179.75
190.21
196.30
196.23
188.49
172.65
149.71
122.13
93.14
65.72
41.68
21.16
3.03
-14.35
-32.12
-50.38
-68.30
-84.54
-97.99
-107.99
-114.59
-118.20
-119.47
-119.07
-117.61
-115.58
-113.28
-110.94
-108.63
-106.48
-104.59
-103.04
-101.91
-101.23
-101.05
-101.43
-102.39
-103.84
-105.45
-106.59
-106.51
-104.50
-100.15
-93.50
-85.07
-75.75
-66.52
-58.19
-51.21
-45.63
-41.26
-37.82
-35.17
-33.29
-32.20
-31.74
-31.47
-30.72
-28.74
-25.04
-19.53
-12.55
-4.69
3.37
11.06
18.04
24.12
29.22
33.39
36.73
39.38
41.45
42.96
43.85
43.99
43.26
41.60
39.03
35.67
31.69
27.36
23.00
18.97
15.60
13.09
11.54
10.88
11.00
11.73
12.94
14.44
16.09
17.71
19.11
20.19
20.98
21.60
22.27
23.19
24.45
26.03
27.84
29.77
31.75
33.76
35.71
37.47
38.87
39.84
40.51
41.22
42.37
44.25
46.96
50.39
54.32
58.63
63.22
68.03
72.89
77.49
81.43
84.38
86.17
86.73
86.00
83.76
79.62
73.04
63.52
50.71
34.59
15.59
-5.36
-26.93
-47.67
-66.40
-82.66
-96.81
-109.78
-122.33
-134.38
-144.70
-151.13
-151.42
-144.18
-129.48
-108.90
-84.92
-60.24
-37.08
-16.97
-0.73
11.28
19.07
23.04
24.01
23.16
21.84
21.09
21.31
22.26
23.23
23.63
23.30
22.59
22.00
21.82
21.78
21.27
19.66
16.74
12.76
8.20
3.53
-1.09
-5.65
-10.19
-14.64
-18.77
-22.49
-25.86
-29.17
-32.82
-37.11
-42.03
-47.27
-52.20
-55.95
-57.64
-56.58
-52.50
-45.68
-36.78
-26.67
-16.04
-5.21
5.89
17.59
30.14
43.42
56.68
68.46
76.81
79.63
75.28
63.09
43.67
18.94
-8.37
-35.33
-59.56
-79.65
-95.28
-106.89
-115.21
-120.87
-124.11
-124.77
-122.42
-116.46
-106.23
-91.24
-71.44
-47.69
-21.94
2.92
23.78
38.32
45.83
47.36
45.14
41.49
37.85
34.38
30.29
24.49
16.40
6.15
-5.57
-17.78
-29.53
-40.00
-48.44
-54.14
-56.49
-55.14
-50.08
-41.74
-30.72
-17.62
-2.94
12.98
29.75
46.76
63.15
77.85
89.84
98.46
103.50
105.27
104.48
102.03
98.86
95.78
93.45
92.26
92.25
93.13
94.27
94.94
94.47
92.46
88.97
84.43
79.47
74.78
70.86
67.98
66.20
65.42
65.49
66.31
67.89
70.26
73.50
77.50
82.01
86.64
90.93
94.47
96.95
98.15
97.94
96.44
94.01
91.32
89.15
88.20
88.66
90.11
91.56
91.68
89.22
83.32
73.66
60.50
44.61
27.10
9.29
-7.57
-22.53
-35.07
-45.10
-52.97
-59.10
-63.87
-67.44
-69.81
-70.93
-70.86
-69.80
-68.09
-66.01
-63.78
-61.51
-59.27
-57.24
-55.71
-54.96
-55.09
-55.87
-56.77
-57.17
-56.75
-55.64
-54.38
-53.66
-53.86
-54.93
-56.41
-57.78
-58.73
-59.39
-60.22
-61.67
-63.94
-66.94
-70.38
-74.04
-77.85
-81.85
-85.88
-89.47
-91.74
-91.75
-88.85
-83.09
-75.16
-66.26
-57.60
-50.04
-43.93
-39.18
-35.47
-32.49
-30.00
-27.81
-25.71
-23.43
-20.68
-17.29
-13.27
-8.87
-4.49
-0.56
2.65
5.09
7.00
8.83
11.15
14.38
18.66
23.71
28.94
33.64
37.19
39.27
39.84
39.02
36.92
33.47
28.41
21.43
12.38
1.48
-10.59
-22.84
-34.20
-43.88
-51.48
-57.09
-61.26
-64.80
-68.58
-73.31
-79.31
-86.40
-93.89
-100.70
-105.75
-108.30
-108.28
-106.35
-103.56
-100.86
-98.63
-96.42
-93.11
-87.31
-77.95
-64.62
-47.84
-28.70
-8.59
11.36
30.71
49.94
70.37
93.50
119.91
148.28
175.10
195.36
204.31
199.36
181.31
154.08
123.17
93.55
68.24
47.95
31.87
18.78
7.81
-1.43
-9.25
-16.06
-22.33
-28.29
-33.59
-37.43
-38.98
-37.78
-34.24
-29.51
-25.06
-22.17
-21.47
-22.71
-24.93
-26.81
-27.08
-24.82
-19.56
-11.30
-0.56
11.74
24.24
35.42
44.05
49.49
51.89
51.95
50.46
47.77
43.77
38.10
30.74
22.32
14.18
7.86
4.54
4.56
7.39
11.96
17.07
21.82
25.74
28.73
30.83
32.12
32.62
32.35
31.40
29.91
28.04
25.98
23.83
21.66
19.51
17.43
15.47
13.70
12.15
10.84
9.71
8.68
7.64
6.50
5.23
3.81
2.23
0.49
-1.49
-3.83
-6.69
-10.14
-14.19
-18.69
-23.32
-27.66
-31.18
-33.35
-33.72
-32.07
-28.43
-23.19
-16.97
-10.53
-4.53
0.62
4.80
8.16
11.02
13.63
16.07
18.21
19.78
20.61
20.66
20.15
19.42
18.88
18.74
19.04
19.62
20.23
20.62
20.66
20.38
19.90
19.39
18.97
18.67
18.45
18.18
17.72
17.00
16.01
14.82
13.55
12.31
11.15
10.05
8.94
7.73
6.37
4.79
2.97
0.96
-1.21
-3.47
-5.80
-8.25
-10.87
-13.79
-17.07
-20.79
-24.92
-29.30
-33.60
-37.32
-39.87
-40.70
-39.43
-36.00
-30.69
-24.04
-16.74
-9.48
-2.84
2.76
7.11
10.26
12.43
13.97
15.20
16.34
17.48
18.59
19.61
20.47
21.13
21.56
21.74
21.76
21.69
21.62
21.59
21.50
21.19
20.47
19.27
17.63
15.69
13.56
11.25
8.74
5.97
2.93
-0.31
-3.64
-7.01
-10.44
-14.07
-18.06
-22.51
-27.42
-32.61
-37.78
-42.67
-47.20
-51.45
-55.66
-60.01
-64.53
-69.03
-73.09
-76.22
-77.92
-77.70
-75.06
-69.50
-60.70
-48.59
-33.54
-16.41
1.63
19.25
35.32
49.00
59.86
67.87
73.24
76.37
77.68
77.58
76.39
74.35
71.63
68.38
64.74
60.92
57.16
53.68
50.65
48.08
45.87
43.82
41.78
39.71
37.65
35.71
33.94
32.32
30.72
28.99
27.01
24.72
22.16
19.45
16.67
13.94
11.32
8.84
6.49
4.20
1.93
-0.37
-2.66
-4.84
-6.78
-8.44
-9.83
-11.11
-12.50
-14.21
-16.33
-18.85
-21.63
-24.37
-26.70
-28.17
-28.31
-26.83
-23.70
-19.26
-14.10
-8.90
-4.26
-0.53
2.19
3.99
5.08
5.74
6.23
6.80
7.60
8.57
9.54
10.24
10.49
10.32
9.92
9.57
9.49
9.79
10.45
11.31
12.21
12.95
13.30
13.09
12.23
10.79
9.00
7.14
5.51
4.29
3.45
2.83
2.19
1.33
0.14
-1.36
-3.03
-4.71
-6.20
-7.43
-8.44
-9.37
-10.39
-11.65
-13.15
-14.77
-16.40
-18.06
-19.86
-21.97
-24.40
-26.90
-28.92
-29.84
-29.22
-26.93
-23.27
-18.73
-13.83
-8.98
-4.44
-0.34
3.15
5.89
7.78
8.84
9.22
9.19
9.04
9.00
9.23
9.74
10.45
11.24
12.02
12.73
13.32
13.75
14.00
14.05
13.96
13.86
13.85
14.00
14.22
14.30
13.92
12.84
10.99
8.58
6.00
3.66
1.83
0.54
-0.38
-1.21
-2.17
-3.36
-4.74
-6.18
-7.54
-8.71
-9.70
-10.53
-11.32
-12.24
-13.41
-14.93
-16.85
-19.10
-21.54
-24.05
-26.40
-28.34
-29.50
-29.49
-27.99
-24.96
-20.69
-15.75
-10.85
-6.58
-3.35
-1.24
-0.17
0.05
-0.34
-1.05
-1.79
-2.22
-2.06
-1.24
0.10
1.63
3.01
4.01
4.58
4.86
5.00
5.07
5.04
4.78
4.29
3.67
3.20
3.15
3.68
4.69
5.92
7.03
7.77
8.02
7.83
7.30
6.48
5.36
3.92
2.09
-0.12
-2.58
-5.06
-7.27
-8.91
-9.83
-10.07
-9.98
-10.04
-10.77
-12.43
-14.93
-17.84
-20.50
-22.29
-22.80
-21.95
-19.90
-16.98
-13.61
-10.13
-6.83
-3.90
