1520862905.00
64.000000
-0.00
-0.00
-0.00
-0.00
-0.00
-0.00
-0.00
-0.00
-0.00
-0.00
0.00
0.01
0.01
-0.00
-0.03
-0.05
-0.05
0.00
0.13
0.36
0.66
1.01
1.37
1.72
2.06
2.40
2.79
3.24
3.80
4.42
5.06
5.66
6.20
6.68
7.15
7.68
8.31
9.14
10.09
11.04
11.88
12.56
13.14
13.76
14.65
15.96
17.91
20.32
22.90
25.38
27.58
29.57
31.68
34.32
37.81
42.54
48.15
54.10
59.83
64.97
69.58
74.14
79.34
85.71
93.76
103.00
112.62
121.73
129.77
136.75
143.30
150.75
157.77
166.64
177.95
191.79
206.97
220.57
228.25
225.36
208.53
176.87
132.76
80.05
23.07
-34.94
-92.44
-149.16
-205.23
-260.37
-313.74
-363.87
-409.83
-450.91
-486.50
-515.74
-537.23
-549.22
-549.96
-538.37
-514.21
-478.67
-433.88
-382.45
-327.02
-269.84
-212.63
-156.66
-102.95
-52.37
-5.90
35.58
71.43
101.35
125.50
144.38
158.69
169.15
176.37
180.75
182.57
182.07
179.51
175.23
169.65
163.18
156.15
148.81
141.30
133.69
126.02
118.33
110.69
103.16
95.80
88.68
81.83
75.25
68.95
62.95
57.25
51.86
46.78
42.03
37.59
33.45
29.61
26.07
22.81
19.83
17.11
14.67
12.48
10.54
8.83
7.35
6.07
4.97
4.05
3.27
2.62
2.09
1.65
1.30
1.01
0.79
0.61
0.47
0.37
0.29
0.23
0.19
0.16
0.15
0.15
0.16
0.17
0.20
0.23
0.26
0.30
0.34
0.38
0.43
0.48
0.52
0.57
0.62
0.68
0.74
0.80
0.87
0.94
1.03
1.12
1.22
1.33
1.46
1.61
1.77
1.95
2.14
2.37
2.61
2.88
3.18
3.51
3.87
4.26
4.68
5.15
5.65
6.18
6.76
7.39
8.05
8.76
9.52
10.32
11.17
12.06
13.00
13.99
15.05
16.16
17.34
18.59
19.87
21.17
22.43
23.58
24.52
25.14
25.30
24.90
23.84
22.06
19.56
16.38
12.59
8.36
3.89
-0.63
-4.98
-8.95
-12.37
-15.13
-17.13
-18.37
-18.86
-18.71
-18.07
-17.07
-15.87
-14.57
-13.23
-11.87
-10.49
-9.05
-7.59
-6.16
-4.78
-3.44
-2.13
-0.78
0.70
2.41
4.44
6.70
9.06
11.41
13.68
15.88
18.07
20.42
23.11
26.31
29.75
33.16
36.30
39.01
41.31
43.43
45.74
48.70
52.61
57.04
61.44
65.25
68.09
69.88
70.95
71.91
73.39
75.82
78.50
80.48
80.70
78.28
72.72
63.91
51.70
35.31
17.95
0.22
-18.03
-37.38
-58.59
-82.51
-109.67
-139.78
-171.05
-199.94
-222.38
-234.26
-233.08
-219.09
-195.28
-166.18
-136.19
-108.22
-83.28
-61.56
-42.78
-26.85
-14.07
-4.71
1.42
5.01
6.97
8.03
7.99
6.33
2.39
-4.09
-12.66
-22.12
-30.93
-37.66
-41.46
-42.52
-41.71
-40.24
-39.18
-39.05
-39.68
-40.28
-39.83
-37.47
-32.84
-26.14
-18.00
-9.23
-0.55
7.54
14.65
20.43
24.55
26.78
27.18
26.17
24.48
22.91
22.07
22.29
23.52
25.49
27.77
29.89
31.40
31.99
31.51
30.06
27.95
25.56
23.24
21.19
19.47
18.11
17.16
16.63
16.43
16.28
15.75
14.42
11.96
8.30
3.62
-1.75
-7.42
-12.94
-17.78
-21.36
-23.13
-22.71
-20.09
-15.57
-9.67
-2.92
4.27
11.69
19.17
26.47
33.17
38.66
42.21
43.25
41.53
37.38
31.73
25.94
21.41
19.16
19.53
22.13
26.11
30.45
34.34
37.32
39.27
40.26
40.50
40.23
39.75
39.39
39.42
39.99
41.10
42.51
43.81
44.47
43.93
41.75
37.88
32.65
26.83
21.34
17.04
14.43
13.57
14.06
15.16
15.87
15.16
12.15
6.35
-2.14
-12.55
-23.53
-33.45
-40.81
-44.46
-43.93
-39.37
-31.56
-21.76
-11.58
-2.77
2.95
4.31
0.84
-6.90
-17.28
-27.98
-36.66
-41.62
-42.26
-39.12
-33.61
-27.44
-22.10
-18.55
-17.19
-17.89
-20.16
-23.20
-26.06
-27.70
-27.28
-24.29
-18.74
-11.17
-2.55
5.93
13.11
18.13
20.60
20.53
18.28
14.32
9.18
3.39
-2.56
-8.17
-13.01
-16.77
-19.36
-20.91
-21.71
-22.12
-22.49
-23.01
-23.76
-24.68
-25.69
-26.75
-27.85
-28.97
-29.94
-30.55
-30.55
-29.81
-28.49
-26.96
-25.69
-25.05
-25.13
-25.72
-26.45
-26.91
-26.75
-25.77
-23.84
-20.91
-16.98
-12.18
-6.75
-1.09
4.37
9.21
13.22
16.49
19.40
22.52
26.33
30.89
35.67
39.62
41.61
40.85
37.46
32.42
27.31
23.65
22.36
23.47
26.24
29.58
32.53
34.57
35.63
36.01
36.07
36.14
36.41
36.93
37.58
37.99
37.56
35.45
30.84
23.21
12.61
-0.19
-13.87
-26.89
-37.91
-46.16
-51.60
-54.76
-56.50
-57.65
-58.70
-59.77
-60.60
-60.81
-60.04
-58.10
-54.95
-50.66
-45.36
-39.25
-32.57
-25.61
-18.63
-11.83
-5.33
0.78
6.40
11.30
15.23
17.97
19.38
19.44
18.22
15.81
12.40
8.27
3.86
-0.37
-4.02
-6.92
-9.11
-10.75
-12.00
-12.92
-13.57
-14.22
-15.36
-17.69
-21.80
-27.83
-35.25
-42.86
-49.11
-52.56
-52.28
-48.07
-40.49
-30.56
-19.47
-8.29
2.21
11.61
19.73
26.56
32.13
36.50
39.73
42.03
43.72
45.21
46.86
48.81
50.94
52.90
54.34
55.07
55.17
54.94
54.75
54.81
55.07
55.26
55.00
53.92
51.89
49.01
45.54
41.88
38.38
35.26
32.60
30.28
28.09
25.74
22.97
19.51
15.19
10.03
4.33
-1.33
-6.23
-9.90
-12.39
-14.26
-16.41
-19.53
-23.77
-28.61
-33.12
-36.48
-38.28
-38.69
-38.16
-37.16
-35.91
-34.33
-32.25
-29.58
-26.40
-22.92
-19.44
-16.22
-13.42
-11.17
-9.48
-8.36
-7.77
-7.71
-8.19
-9.28
-11.00
-13.31
-16.03
-18.87
-21.46
-23.46
-24.73
-25.29
-25.36
-25.24
-25.28
-25.82
-27.13
-29.43
-32.69
-36.60
-40.45
-43.28
-44.01
-41.85
-36.50
-28.28
-18.11
-7.24
3.03
11.68
18.11
22.25
24.43
25.16
24.99
24.38
23.72
23.43
23.91
25.53
28.48
32.69
37.77
43.19
48.40
52.97
56.57
58.93
59.66
58.31
54.49
48.10
39.45
29.34
18.85
9.04
0.74
-5.71
-10.45
-13.99
-16.98
-19.97
-23.18
-26.35
-28.86
-29.86
-28.69
-25.05
-19.18
-11.69
-3.27
5.55
14.38
22.90
30.68
37.14
41.81
44.46
45.38
45.18
44.62
44.21
44.02
43.79
43.12
41.76
39.66
36.99
33.94
30.58
26.89
22.70
17.94
12.66
7.07
1.56
-3.48
-7.79
-11.34
-14.40
-17.46
-21.09
-25.74
-31.57
-38.35
-45.43
-51.84
-56.50
-58.47
-57.16
-52.55
-45.10
-35.72
-25.43
-15.20
-5.79
2.35
8.98
14.08
17.72
20.10
21.43
22.00
22.06
21.77
21.28
20.68
20.11
19.74
19.66
19.85
20.13
20.21
19.74
18.46
16.21
12.96
8.78
3.83
-1.67
-7.36
-12.87
-17.87
-22.23
-26.14
-30.05
-34.50
-39.83
-45.88
-51.91
-56.70
-58.96
-57.73
-52.79
-44.72
-34.63
-23.79
-13.19
-3.37
5.45
13.23
19.77
24.80
28.08
29.65
29.92
29.56
29.31
29.60
30.49
31.64
32.56
32.90
32.51
31.62
30.52
29.48
28.50
27.33
25.57
22.92
19.33
14.97
10.21
5.35
0.60
-4.03
-8.60
-13.18
-17.84
-22.69
-27.91
-33.65
-39.91
-46.24
-51.79
-55.44
-56.10
-53.18
-46.84
-37.92
-27.70
-17.45
-8.14
-0.18
6.34
11.59
15.67
18.63
20.48
21.29
21.30
20.88
20.45
20.33
20.64
21.30
22.10
22.80
23.27
23.45
23.31
22.76
21.61
19.65
16.70
12.80
8.18
3.25
-1.54
-5.85
-9.55
-12.81
-16.02
-19.70
-24.32
-29.97
-36.26
-42.27
-46.78
-48.66
-47.24
-42.52
-35.17
-26.24
-16.83
-7.85
0.08
6.55
11.37
14.47
15.97
16.17
15.54
14.61
13.86
13.56
13.77
14.34
15.06
15.74
16.26
16.58
16.63
16.29
15.45
13.95
11.76
8.94
5.67
2.13
-1.51
-5.18
-8.90
-12.78
-16.96
-21.63
-26.90
-32.63
-38.34
-43.18
-46.13
-46.32
-43.34
-37.36
-29.17
-19.84
-10.41
-1.61
6.19
12.90
18.51
23.00
26.21
28.07
28.63
28.26
27.50
26.95
26.98
27.65
28.64
29.50
29.85
29.59
28.84
27.82
26.64
25.22
23.29
20.60
17.04
12.74
8.05
3.35
-1.07
-5.05
-8.65
-12.05
-15.54
-19.42
-24.03
-29.56
-35.95
-42.74
-48.98
-53.49
-55.12
-53.17
-47.65
-39.29
-29.25
-18.75
-8.74
0.27
8.10
14.77
20.26
24.50
27.39
28.96
29.44
29.25
28.91
28.82
29.17
29.83
30.46
30.68
30.23
29.14
27.61
25.99
24.52
23.25
21.94
20.12
17.38
13.50
8.58
3.10
-2.35
-7.27
-11.37
-14.76
-17.80
-20.96
-24.66
-29.21
-34.64
-40.64
-46.55
-51.38
-54.08
-53.80
-50.19
-43.53
-34.61
-24.44
-14.01
-4.10
4.74
12.21
18.12
22.42
25.24
26.86
27.68
28.10
28.47
29.01
29.79
30.75
31.75
32.58
33.06
33.03
32.42
31.21
29.50
27.43
25.12
22.66
20.06
17.22
14.02
10.37
6.27
1.89
-2.52
-6.71
-10.49
-13.78
-16.66
-19.35
-22.12
-25.37
-29.38
-34.31
-39.96
-45.73
-50.59
-53.39
-53.15
-49.43
-42.52
-33.36
-23.20
-13.26
-4.31
3.35
9.81
15.27
19.88
23.60
26.33
28.03
28.79
28.89
28.67
28.45
28.45
28.70
29.14
29.63
30.00
30.11
29.82
29.03
27.66
25.71
23.23
20.35
17.26
14.13
11.07
8.05
4.96
1.63
-2.03
-5.95
-9.93
-13.70
-17.07
-20.05
-22.93
-26.14
-30.06
-34.79
-39.95
-44.77
-48.26
-49.49
-47.88
-43.37
-36.37
-27.63
-18.05
-8.51
0.27
7.76
13.62
17.76
20.18
21.12
20.97
20.22
19.42
19.02
19.30
20.21
21.47
22.67
23.46
23.68
23.37
22.72
21.91
21.02
19.94
18.45
16.37
13.61
10.30
6.68
3.04
-0.43
-3.64
-6.65
-9.61
-12.71
-16.14
-20.08
-24.60
-29.59
-34.61
-38.92
-41.57
-41.71
-38.84
-33.06
-25.06
-15.92
-6.77
1.47
8.22
13.23
16.46
18.08
18.39
17.84
16.92
16.06
15.50
15.24
15.11
14.91
14.55
14.05
13.54
13.12
12.78
12.36
11.60
10.28
8.30
5.69
2.56
-0.98
-4.82
-8.89
-13.08
-17.30
-21.47
-25.65
-29.99
-34.60
-39.32
-43.55
-46.32
-46.58
-43.66
-37.55
-28.99
-19.20
-9.44
-0.67
6.63
12.35
16.61
19.58
21.41
22.28
22.41
22.10
21.67
21.34
21.17
21.09
20.96
20.68
20.25
19.77
19.33
18.94
18.42
17.47
15.74
12.98
9.18
4.62
-0.23
-4.91
-9.06
-12.65
-15.92
-19.28
-23.18
-27.85
-33.17
-38.66
-43.43
-46.48
-46.90
-44.21
-38.49
-30.49
-21.28
-12.03
-3.60
3.59
9.49
14.22
17.84
20.35
21.71
22.00
21.54
20.75
20.06
19.72
19.70
19.77
19.69
19.31
18.69
18.01
17.45
17.03
16.59
15.76
14.17
11.59
8.03
3.83
-0.57
-4.74
-8.44
-11.67
-14.66
-17.79
-21.43
-25.86
-31.09
-36.74
-42.01
-45.83
-47.16
-45.26
-40.02
-31.97
-22.16
-11.84
-2.14
6.14
12.63
17.30
20.38
22.26
23.28
23.70
23.73
23.49
23.17
22.90
22.84
22.93
23.02
22.87
22.33
21.38
20.15
18.84
17.51
16.08
14.32
12.01
9.05
5.51
1.57
-2.51
-6.49
-10.21
-13.63
-16.79
-19.89
-23.18
-26.92
-31.22
-35.93
-40.55
-44.30
-46.28
-45.76
-42.37
-36.24
-28.07
-18.83
-9.55
-1.14
5.88
11.28
15.15
17.69
19.20
19.96
20.24
20.21
19.93
19.41
18.65
17.74
16.87
16.28
16.13
16.38
16.75
16.82
16.19
14.65
12.21
9.16
5.83
2.51
-0.68
-3.77
-6.89
-10.17
-13.76
-17.78
-22.31
-27.31
-32.49
-37.26
-40.71
-41.89
-40.07
-35.07
-27.35
-17.95
-8.12
1.05
8.79
14.81
19.10
21.86
23.30
23.70
23.32
22.51
21.61
20.91
20.51
20.40
20.40
20.34
20.07
19.53
18.71
17.59
16.05
13.98
11.27
7.94
4.18
0.22
-3.70
-7.47
-11.09
-14.75
-18.63
-22.97
-27.92
-33.41
-39.02
-44.00
-47.30
-47.93
-45.27
-39.36
-30.94
-21.22
-11.47
-2.69
4.67
10.56
15.24
18.94
21.81
23.84
25.04
25.48
25.39
25.08
24.80
24.66
24.66
24.66
24.55
24.25
23.75
23.02
22.05
20.74
18.96
16.51
13.26
9.18
4.46
-0.56
-5.43
-9.78
-13.45
-16.55
-19.45
-22.61
-26.49
-31.32
-37.01
-43.02
-48.42
-52.03
-52.80
-50.16
-44.20
-35.69
-25.78
-15.58
-5.94
2.61
9.84
15.67
20.11
23.26
25.32
26.56
27.28
27.71
28.00
28.29
28.65
29.08
29.53
29.82
29.78
29.28
28.34
27.11
25.72
24.24
22.56
20.48
17.75
14.23
10.05
5.47
0.91
-3.29
-6.99
-10.27
-13.37
-16.59
-20.23
-24.50
-29.51
-35.15
-41.00
-46.22
-49.76
-50.51
-47.83
-41.77
-33.09
-23.03
-12.84
-3.42
4.77
11.67
17.32
21.77
25.01
27.05
28.06
28.35
28.33
28.39
28.78
29.52
30.44
31.24
31.71
31.70
31.28
30.60
29.80
28.91
27.83
26.40
24.48
22.01
19.01
15.55
11.68
7.42
2.86
-1.82
-6.37
-10.54
-14.14
-17.25
-20.12
-23.20
-26.98
-31.75
-37.47
-43.53
-48.91
-52.36
-52.78
-49.64
-43.10
-34.03
-23.65
-13.20
-3.63
4.52
11.07
16.09
19.68
21.97
23.13
23.37
23.02
22.47
22.06
22.05
22.49
23.22
23.97
24.42
24.36
23.74
22.71
21.42
20.00
18.42
16.52
14.13
11.16
7.69
4.02
0.52
-2.55
-5.16
-7.55
-10.15
-13.40
-17.56
-22.62
-28.19
-33.57
-37.86
-40.18
-39.85
-36.55
-30.42
-22.09
-12.52
-2.79
6.04
13.21
18.32
21.33
22.55
22.43
21.55
20.36
19.20
18.23
17.50
17.02
16.77
16.75
16.93
17.20
17.36
17.17
16.38
14.85
12.55
9.58
6.13
2.39
-1.40
-5.08
-8.53
-11.76
-14.96
-18.43
-22.58
-27.62
-33.42
-39.37
-44.41
-47.32
-47.08
-43.26
-36.13
-26.63
-16.07
-5.70
3.50
10.96
16.50
20.16
22.15
22.78
22.47
21.69
20.86
20.28
20.00
19.91
19.82
19.63
19.31
18.93
18.56
18.17
17.63
16.69
15.14
12.79
9.64
5.84
1.65
-2.60
-6.63
-10.31
-13.69
-16.96
-20.45
-24.48
-29.28
-34.85
-40.82
-46.45
-50.64
-52.28
-50.50
-45.09
-36.59
-26.15
-15.23
-5.13
3.34
9.95
14.90
18.60
21.35
23.31
24.50
24.98
24.87
24.41
23.81
23.22
22.66
22.10
21.59
21.21
21.00
20.91
20.68
19.98
18.49
16.08
12.85
9.02
4.87
0.61
-3.56
-7.53
-11.27
-14.90
-18.74
-23.17
-28.46
-34.43
-40.40
-45.25
-47.72
-46.92
-42.60
-35.22
-25.84
-15.68
-5.89
2.74
9.82
15.23
19.05
21.47
22.69
23.00
22.76
22.40
22.28
22.62
23.36
24.25
24.93
25.15
24.82
24.09
23.15
22.18
21.18
19.99
18.33
15.97
12.83
9.00
4.73
0.30
-4.02
-8.10
-11.95
-15.72
-19.67
-24.04
-29.02
-34.53
-40.19
-45.27
-48.84
-49.92
-47.85
-42.51
-34.40
-24.58
-14.29
-4.72
3.35
9.56
13.94
16.79
18.46
19.33
19.70
19.84
19.90
19.97
20.03
20.03
19.93
19.74
19.56
19.41
19.24
18.86
18.05
16.58
14.40
11.61
8.39
4.99
1.62
-1.59
-4.66
-7.74
-11.08
-14.99
-19.66
-25.06
-30.83
-36.22
-40.29
-42.10
-40.96
-36.67
-29.60
-20.64
-10.98
-1.82
5.92
11.74
15.61
17.75
18.56
18.41
17.66
16.65
15.71
15.13
15.11
15.69
16.74
17.97
19.04
19.68
19.71
19.07
17.82
16.01
13.66
10.75
7.28
3.33
-0.90
-5.12
-9.12
-12.89
-16.70
-20.95
-25.91
-31.48
-36.99
-41.40
-43.64
-42.97
-39.25
-32.94
-24.93
-16.19
-7.58
0.35
7.28
13.12
17.87
21.54
24.13
25.73
26.50
26.70
26.67
26.74
27.09
27.69
28.33
28.73
28.67
28.07
27.06
25.78
24.33
22.65
20.59
17.95
14.63
10.71
6.42
2.03
-2.16
-6.01
-9.50
-12.81
-16.21
-20.07
-24.68
-30.20
-36.45
-42.86
-48.48
-52.23
-53.17
-50.76
-45.13
-36.98
-27.41
-17.61
-8.52
-0.62
5.98
11.44
15.99
19.76
22.78
25.05
26.60
27.59
28.26
28.84
29.48
30.21
30.95
31.51
31.73
31.45
30.56
29.08
27.14
24.97
22.79
20.70
18.61
16.32
13.57
10.19
6.24
2.00
-2.21
-6.13
-9.68
-12.96
-16.24
-19.79
-23.91
-28.76
-34.34
-40.35
-46.11
-50.65
-52.95
-52.20
-48.10
-40.99
-31.68
-21.31
-10.94
-1.42
6.72
13.21
18.05
21.33
23.33
24.40
24.91
25.22
25.59
26.12
26.78
27.50
28.13
28.58
28.78
28.70
28.31
27.57
26.45
24.98
23.24
21.31
19.24
16.99
14.44
11.42
7.88
3.94
-0.13
-4.02
-7.54
-10.67
-13.55
-16.45
-19.64
-23.37
-27.79
-32.89
-38.47
-44.01
-48.67
-51.44
-51.39
-48.05
-41.56
-32.71
-22.67
-12.60
-3.41
4.45
10.88
15.99
19.88
22.62
24.24
24.83
24.68
24.21
23.93
24.16
25.00
26.23
27.45
28.23
28.28
27.52
26.07
24.24
22.27
20.35
18.51
16.64
14.50
11.86
8.63
4.87
0.83
-3.16
-6.83
-10.08
-13.00
-15.86
-18.97
-22.64
-27.03
-32.10
-37.48
-42.51
-46.24
-47.73
-46.27
-41.67
-34.31
-25.08
-15.12
-5.49
3.00
9.88
14.98
18.36
20.20
20.76
20.42
19.57
18.66
18.06
17.98
18.44
19.25
20.10
20.66
20.73
20.25
19.31
18.07
16.65
15.06
13.29
11.22
8.81
6.01
2.87
-0.52
-3.99
-7.34
-10.47
-13.42
-16.48
-20.04
-24.41
-29.57
-34.97
-39.64
-42.42
-42.36
-39.04
-32.75
-24.31
-14.86
-5.55
2.78
9.61
14.83
18.51
20.82
21.95
22.07
21.43
20.40
19.47
19.03
19.32
20.24
21.42
22.42
22.89
22.75
22.16
21.34
20.45
19.49
18.25
16.54
14.18
11.15
7.51
3.40
-0.96
-5.31
-9.41
-13.04
-16.13
-18.81
-21.34
-24.09
-27.42
-31.55
-36.45
-41.77
-46.83
-50.61
-52.03
-50.25
-45.02
-36.84
-26.83
-16.31
-6.47
1.97
8.79
14.05
17.92
20.51
21.93
22.34
22.05
21.50
21.11
21.16
21.72
22.64
23.61
24.28
24.42
23.94
22.96
21.71
20.46
19.31
18.15
16.76
14.87
12.34
9.24
5.80
2.26
-1.19
-4.53
-7.78
-11.02
-14.34
-17.83
-21.63
-25.96
-30.91
-36.26
-41.40
-45.31
-46.94
-45.48
-40.70
-33.07
-23.51
-13.22
-3.29
5.45
12.53
17.79
21.33
23.37
24.23
24.21
23.66
22.96
22.47
22.53
23.25
24.44
25.68
26.47
26.47
25.70
24.44
23.05
21.77
20.58
19.24
17.41
14.90
11.68
7.91
3.86
-0.25
-4.26
-8.10
-11.74
-15.26
-18.72
-22.31
-26.23
-30.65
-35.57
-40.70
-45.36
-48.57
-49.33
-46.95
-41.31
-32.97
-23.01
-12.65
-2.94
5.42
12.09
16.99
20.17
21.80
22.17
21.69
20.88
20.19
19.85
19.86
20.03
20.13
20.05
19.84
19.67
19.60
19.60
19.42
18.75
17.31
15.01
11.96
8.44
4.79
1.32
-1.85
-4.75
-7.55
-10.56
-14.08
-18.31
-23.29
-28.77
-34.15
-38.49
-40.78
-40.12
-36.12
-29.03
-19.73
-9.47
0.47
9.16
16.09
21.18
24.61
26.59
27.34
27.04
25.87
24.16
22.32
20.73
19.68
19.24
19.22
19.35
19.35
19.01
18.24
17.00
15.26
12.93
9.98
6.42
2.42
-1.74
-5.75
-9.38
-12.65
-15.84
-19.38
-23.73
-29.04
-34.99
-40.77
-45.26
-47.36
-46.35
-42.08
-35.03
-26.07
-16.26
-6.54
2.31
9.78
15.55
19.51
21.73
22.49
22.16
21.23
20.14
19.19
18.51
18.04
17.68
17.33
16.99
16.72
16.59
16.56
16.45
15.95
14.76
12.64
9.63
5.95
1.99
-1.87
-5.37
-8.53
-11.53
-14.72
-18.45
-23.01
-28.43
-34.44
-40.36
-45.22
-47.93
-47.59
-43.81
-36.84
-27.57
-17.23
-7.08
1.92
9.23
14.74
18.59
21.02
22.35
22.84
22.79
22.49
22.19
22.05
22.10
22.28
22.40
22.31
21.91
21.19
20.26
19.20
18.01
16.58
14.76
12.41
9.50
6.08
2.29
-1.73
-5.87
-9.98
-13.92
-17.65
-21.24
-24.96
-29.17
-33.99
-39.13
-43.75
-46.69
-46.90
-43.82
-37.63
-29.21
-19.71
-10.25
-1.59
5.90
12.08
16.88
20.20
21.98
22.31
21.47
19.95
18.32
17.00
16.22
15.91
15.92
16.05
16.16
16.18
16.03
15.60
14.71
13.21
11.05
8.28
5.06
1.59
-1.93
-5.34
-8.60
-11.73
-14.87
-18.26
-22.19
-26.79
-31.94
-37.09
-41.36
-43.70
-43.22
-39.46
-32.67
-23.66
-13.66
-3.93
4.56
11.26
16.05
19.10
20.75
21.30
20.96
19.91
18.35
16.55
14.86
13.64
13.14
13.36
14.01
14.62
14.72
14.01
12.47
10.29
7.74
5.04
2.26
-0.62
-3.62
-6.73
-9.92
-13.23
-16.77
-20.69
-25.07
-29.73
-34.10
-37.33
-38.43
-36.62
-31.65
-23.95
-14.58
-4.87
3.91
10.97
16.07
19.39
21.32
22.16
22.11
21.24
19.69
17.73
15.74
14.09
12.99
12.46
12.27
12.15
11.82
11.10
9.93
8.29
6.22
3.74
0.92
-2.25
-5.73
-9.51
-13.58
-17.94
-22.59
-27.55
-32.71
-37.73
-42.02
-44.74
-45.08
-42.52
-37.06
-29.26
-20.08
-10.57
-1.60
6.22
12.58
17.42
20.74
22.72
23.61
23.70
23.27
22.48
21.40
20.11
18.69
17.30
16.15
15.33
14.77
14.23
13.41
12.08
10.17
7.74
4.92
1.81
-1.51
-5.04
-8.77
-12.73
-16.97
-21.62
-26.79
-32.46
-38.32
-43.70
-47.55
-48.77
-46.53
-40.66
-31.73
-21.00
-9.94
0.19
8.62
15.21
20.15
23.76
26.19
27.45
27.56
26.74
25.46
24.26
23.55
23.41
23.60
23.76
23.63
23.17
22.56
21.98
21.44
20.73
19.50
17.43
14.39
10.51
6.15
1.75
-2.28
-5.78
-8.81
-11.69
-14.89
-18.84
-23.82
-29.77
-36.22
-42.31
-46.94
-49.05
-47.88
-43.30
-35.76
-26.28
-16.01
-6.03
2.98
10.67
16.98
21.96
25.60
27.90
28.92
28.87
28.13
27.22
26.61
26.60
27.23
28.24
29.23
29.78
29.65
28.85
27.57
26.06
24.44
22.66
20.50
17.75
14.32
10.35
6.12
1.96
-1.91
-5.49
-8.88
-12.27
-15.86
-19.85
-24.40
-29.60
-35.36
-41.22
-46.42
-49.91
-50.69
-48.11
-42.14
-33.43
-23.06
-12.26
-2.07
6.83
14.18
19.94
24.16
26.93
28.35
28.63
28.14
27.29
26.52
26.08
26.01
26.10
26.07
25.69
24.94
23.98
23.07
22.39
21.90
21.30
20.15
18.07
14.95
10.96
6.54
2.18
-1.76
-5.16
-8.07
-10.67
-13.20
-15.92
-19.14
-23.12
-27.94
-33.33
-38.46
-42.17
-43.24
-40.88
-35.05
-26.54
-16.64
-6.74
2.16
9.57
15.41
19.79
22.72
24.15
24.10
22.80
20.77
18.72
17.19
16.44
16.37
16.60
16.78
16.71
16.47
16.25
16.19
16.21
15.99
15.07
13.11
10.06
6.17
1.91
-2.26
-6.11
-9.64
-13.06
-16.71
-20.77
-25.32
-30.11
-34.61
-38.06
-39.57
-38.43
-34.30
-27.42
-18.56
-8.83
0.66
9.01
15.69
20.51
23.49
24.78
24.60
23.29
21.28
19.11
17.35
16.40
16.43
17.29
18.57
19.78
20.52
20.62
20.13
19.22
18.08
16.77
15.21
13.25
10.70
7.48
3.63
-0.62
-4.94
-8.99
-12.57
-15.66
-18.48
-21.48
-25.10
-29.65
-35.06
-40.86
-46.14
-49.79
-50.81
-48.61
-43.21
-35.19
-25.51
-15.28
-5.46
3.27
10.46
15.92
19.65
21.81
22.78
22.97
22.82
22.65
22.54
22.46
22.30
21.97
21.49
20.95
20.50
20.26
20.26
20.37
20.36
19.91
18.72
16.59
13.53
9.74
5.54
1.33
-2.61
-6.15
-9.33
-12.35
-15.49
-19.08
-23.31
-28.15
-33.21
-37.75
-40.72
-41.15
-38.44
-32.62
-24.39
-14.89
-5.31
3.38
10.66
16.39
20.61
23.37
24.76
24.80
23.74
21.98
20.08
18.55
17.73
17.66
18.06
18.58
18.83
18.60
17.91
16.90
15.81
14.78
13.78
12.60
10.92
8.51
5.33
1.60
-2.28
-5.92
-9.12
-11.94
-14.67
-17.73
-21.50
-26.13
-31.46
-36.89
-41.45
-44.01
-43.58
-39.74
-32.78
-23.74
-14.02
-4.87
2.88
8.99
13.61
17.00
19.31
20.57
20.69
19.75
17.98
15.82
13.77
12.25
11.49
11.47
11.97
12.64
13.15
13.23
12.78
11.75
10.18
8.15
5.72
3.00
0.07
-2.99
-6.17
-9.56
-13.30
-17.50
-22.12
-26.81
-30.97
-33.81
-34.54
-32.65
-28.04
-21.12
-12.74
-3.96
4.17
10.87
15.77
18.88
20.43
20.79
20.24
18.99
17.26
15.27
13.27
11.56
10.31
9.57
9.22
9.12
9.05
8.85
8.35
7.38
5.83
3.69
1.09
-1.73
-4.51
-7.14
-9.63
-12.15
-14.93
-18.20
-22.13
-26.71
-31.67
-36.35
-39.85
-41.10
-39.34
-34.33
-26.58
-17.20
-7.52
1.22
8.22
13.22
16.37
18.06
18.70
18.68
18.21
17.45
16.51
15.51
14.57
13.86
13.48
13.45
13.70
14.07
14.33
14.24
13.60
12.27
10.23
7.50
4.20
0.52
-3.29
-6.98
-10.37
-13.45
-16.41
-19.61
-23.33
-27.56
-31.87
-35.40
-37.16
-36.36
-32.70
-26.51
-18.59
-10.01
-1.74
5.49
11.27
15.50
18.28
19.75
20.11
19.60
18.50
17.21
16.13
15.61
15.76
16.44
17.30
17.97
18.16
17.80
16.94
15.72
14.20
12.37
10.20
7.71
4.97
2.14
-0.62
-3.27
-5.85
-8.57
-11.71
-15.55
-20.22
-25.56
-30.97
-35.47
-37.92
-37.43
-33.73
-27.27
-19.11
-10.51
-2.48
4.39
9.98
14.33
17.55
19.65
20.62
20.54
19.63
18.29
16.93
15.91
15.45
15.52
15.93
16.33
16.48
16.23
15.63
14.79
13.86
12.81
11.48
9.63
7.09
3.88
0.19
-3.65
-7.26
-10.39
-12.90
-14.93
-16.82
-19.12
-22.28
-26.46
-31.28
-35.87
-39.03
-39.66
-37.17
-31.68
-23.95
-15.15
-6.43
1.39
7.86
12.90
16.53
18.81
19.81
19.68
18.70
17.30
15.92
14.91
14.37
14.25
14.30
14.36
14.33
14.20
13.97
13.58
12.90
11.76
10.09
7.87
5.22
2.31
-0.68
-3.61
-6.44
-9.21
-12.07
-15.20
-18.80
-22.88
-27.23
-31.28
-34.21
-35.22
-33.72
-29.62
-23.34
-15.69
-7.60
0.16
7.05
12.75
17.05
19.81
20.97
20.66
19.27
17.40
15.67
14.46
13.86
13.62
13.43
13.08
12.54
11.96
11.44
10.98
10.37
9.38
7.79
5.59
2.94
0.06
-2.84
-5.67
-8.37
-11.02
-13.72
-16.68
-20.17
-24.38
-29.23
-34.31
-38.75
-41.54
-41.78
-39.01
-33.40
-25.64
-16.75
-7.82
0.29
7.03
12.15
15.62
17.56
18.25
18.03
17.38
16.71
16.40
16.61
17.29
18.24
19.16
19.76
19.87
19.46
18.59
17.44
16.14
14.77
13.25
11.38
8.95
5.85
2.21
-1.63
-5.29
-8.52
-11.32
-14.00
-16.99
-20.67
-25.17
-30.20
-35.10
-38.93
-40.77
-39.97
-36.36
-30.34
-22.70
-14.39
-6.20
1.35
8.01
13.67
18.21
21.51
23.44
24.07
23.66
22.66
21.57
20.75
20.35
20.34
20.49
20.64
20.64
20.43
20.04
19.51
18.88
18.10
17.08
15.66
13.76
11.29
8.28
4.86
1.17
-2.55
-6.10
-9.32
-12.21
-14.94
-17.91
-21.52
-26.01
-31.23
-36.57
-41.01
-43.49
-43.22
-39.91
-33.87
-25.84
-16.73
-7.52
1.06
8.47
14.44
18.87
21.79
23.31
23.57
22.85
21.50
19.94
18.66
18.02
18.19
19.04
20.20
21.18
21.56
21.14
19.97
18.32
16.47
14.64
12.86
10.97
8.74
5.98
2.71
-0.86
-4.41
-7.68
-10.56
-13.15
-15.68
-18.46
-21.72
-25.57
-29.97
-34.64
-39.08
-42.60
-44.35
-43.63
-40.08
-33.84
-25.52
-16.09
-6.53
2.36
10.06
16.28
20.89
23.85
25.21
25.17
24.10
22.53
20.93
19.70
18.99
18.73
18.75
18.88
18.99
19.08
19.20
19.36
19.50
19.48
19.03
17.86
15.71
12.48
8.34
3.72
-0.82
-4.76
-7.84
-10.16
-12.16
-14.38
-17.34
-21.25
-25.90
-30.76
-34.99
-37.71
-38.21
-36.06
-31.26
-24.27
-15.86
-6.96
1.50
8.85
14.61
18.62
20.92
21.76
21.48
20.49
19.16
17.85
16.83
16.27
16.21
16.56
17.17
17.83
18.40
18.78
18.93
18.80
18.28
17.22
15.44
12.86
9.51
5.61
1.47
-2.52
-6.06
-8.98
-11.33
-13.39
-15.60
-18.44
-22.22
-26.92
-32.12
-37.04
-40.71
-42.21
-40.88
-36.54
-29.56
-20.76
-11.23
-2.07
5.87
12.10
16.48
19.12
20.30
20.33
19.57
18.44
17.34
16.64
16.53
16.92
17.54
18.03
18.11
17.75
17.17
16.64
16.37
16.31
16.11
15.26
13.34
10.21
6.07
1.44
-3.13
-7.24
-10.80
-14.05
-17.34
-21.09
-25.48
-30.46
-35.69
-40.56
-44.29
-46.00
-44.99
-40.90
-33.96
-24.96
-15.08
-5.57
2.60
8.95
13.47
16.39
18.07
18.74
18.61
17.90
16.89
15.88
15.14
14.73
14.58
14.55
14.57
14.65
14.82
15.05
15.20
14.98
14.08
12.39
9.94
7.02
3.97
1.07
-1.59
-4.11
-6.70
-9.62
-13.12
-17.34
-22.20
-27.34
-32.05
-35.38
-36.38
-34.43
-29.44
-21.92
-12.82
-3.29
5.67
13.34
19.32
23.50
25.97
27.00
26.96
26.30
25.43
24.67
24.17
23.92
23.82
23.68
23.39
22.93
22.33
21.70
21.08
20.42
19.53
18.14
15.99
13.00
9.29
5.19
1.09
-2.67
-6.04
-9.15
-12.38
-16.10
-20.60
-25.88
-31.63
-37.19
-41.69
-44.21
-44.02
-40.78
-34.71
-26.50
-17.17
-7.79
0.77
7.95
13.48
17.34
19.58
20.36
19.90
18.53
16.74
15.10
14.06
13.85
14.37
15.19
15.82
15.88
15.32
14.38
13.42
12.69
12.17
11.52
10.31
8.19
5.10
1.22
-3.09
-7.44
-11.56
-15.35
-18.90
-22.48
-26.40
-30.86
-35.81
-40.80
-44.97
-47.27
-46.78
-43.04
-36.28
-27.27
-17.16
-7.06
2.13
9.87
15.87
20.03
22.35
22.95
22.11
20.33
18.16
16.18
14.78
14.13
14.16
14.65
15.32
15.96
16.31
16.19
15.36
13.63
10.93
7.37
3.24
-1.04
-5.09
-8.75
-12.16
-15.74
-19.96
-25.14
-31.18
-37.50
-43.18
-47.12
-48.38
-46.35
-40.96
-32.69
-22.47
-11.49
-0.92
8.31
15.67
21.01
24.48
26.33
26.89
26.49
25.53
24.39
23.43
22.89
22.76
22.88
23.01
22.91
22.49
21.79
20.84
19.68
18.21
16.26
13.67
10.35
6.37
1.95
-2.63
-7.13
-11.47
-15.78
-20.39
-25.66
-31.75
-38.46
-45.10
-50.62
-53.81
-53.69
-49.78
-42.30
-32.10
-20.43
-8.58
2.37
11.68
19.00
24.26
27.59
29.27
29.68
29.26
28.41
27.53
26.87
26.54
26.52
26.67
26.79
26.71
26.35
25.74
24.99
24.16
23.20
21.86
19.80
16.76
12.69
7.85
2.72
-2.21
-6.62
-10.50
-14.14
-18.01
-22.55
-28.02
-34.31
-40.88
-46.79
-50.89
-52.08
-49.64
-43.48
-34.25
-23.13
-11.50
-0.59
8.81
16.36
22.09
26.18
28.82
30.17
30.43
29.88
28.92
28.03
27.57
27.74
28.47
29.46
30.32
30.69
30.40
29.45
28.01
26.32
24.54
22.68
20.63
18.15
15.04
11.24
6.88
2.26
-2.26
-6.46
-10.26
-13.79
-17.26
-20.96
-25.16
-30.06
-35.69
-41.74
-47.49
-51.84
-53.54
-51.62
-45.75
-36.48
-25.06
-13.07
-1.90
7.52
14.91
20.40
24.35
27.06
28.68
29.27
28.89
27.79
26.39
25.20
24.63
24.82
25.58
26.51
27.17
27.27
26.79
25.86
24.65
23.25
21.61
19.59
17.05
13.96
10.37
6.47
2.43
-1.56
-5.44
-9.23
-12.99
-16.79
-20.68
-24.75
-29.11
-33.92
-39.11
-44.30
-48.63
-50.98
-50.28
-45.98
-38.33
-28.30
-17.34
-6.82
2.31
9.65
15.19
19.13
21.60
22.73
22.62
21.58
20.08
18.70
17.94
18.05
18.91
20.16
21.30
22.02
22.26
22.18
21.97
21.66
21.07
19.83
17.63
14.42
10.46
6.18
2.06
-1.60
-4.70
-7.34
-9.74
-12.22
-15.12
-18.73
-23.21
-28.33
-33.49
-37.68
-39.81
-39.01
-34.99
-28.14
-19.42
-9.98
-0.85
7.27
14.02
19.20
22.72
24.50
24.62
23.36
21.23
18.89
16.92
15.76
15.55
16.23
17.53
19.08
20.48
21.38
21.60
21.13
20.12
18.80
17.29
15.53
13.32
10.47
6.90
2.73
-1.75
-6.21
-10.44
-14.37
-18.08
-21.75
-25.61
-29.90
-34.84
-40.39
-46.20
-51.45
-55.00
-55.70
-52.83
-46.39
-37.13
-26.28
-15.17
-4.89
3.91
10.97
16.29
19.99
22.19
23.04
22.79
21.80
20.53
19.48
19.03
19.31
20.14
21.16
21.97
22.36
22.35
22.12
21.86
21.58
21.14
20.23
18.53
15.86
12.25
7.93
3.28
-1.27
-5.40
-8.92
-11.91
-14.59
-17.31
-20.48
-24.43
-29.28
-34.80
-40.31
-44.72
-46.87
-45.82
-41.32
-33.82
-24.38
-14.27
-4.54
4.06
11.28
17.04
21.34
24.19
25.62
25.79
25.03
23.82
22.65
21.94
21.85
22.34
23.12
23.83
24.17
24.00
23.41
22.58
21.73
20.90
19.98
18.67
16.65
13.72
9.87
5.38
0.69
-3.69
-7.42
-10.39
-12.83
-15.11
-17.70
-20.92
-25.00
-29.89
-35.36
-40.89
-45.64
-48.64
-48.93
-45.92
-39.62
-30.73
-20.46
-10.18
-0.99
6.46
12.03
15.91
18.38
19.70
20.11
19.85
19.24
18.62
18.28
18.35
18.71
19.09
19.21
18.95
18.40
17.82
17.48
17.49
17.62
17.45
16.51
14.52
11.51
7.78
3.75
-0.22
-3.96
-7.43
-10.67
-13.71
-16.65
-19.64
-22.98
-26.98
-31.68
-36.70
-41.15
-43.87
-43.80
-40.44
-34.04
-25.52
-16.12
-6.98
1.14
7.87
13.14
16.96
19.28
20.14
19.68
18.32
16.65
15.25
14.50
14.44
14.80
15.21
15.39
15.27
14.91
14.46
14.00
13.46
12.67
11.41
9.58
7.25
4.59
1.82
-0.92
-3.68
-6.63
-10.04
-14.11
-18.88
-24.15
-29.42
-33.99
-37.04
-37.87
-36.07
-31.71
-25.31
-17.69
-9.82
-2.45
3.87
8.90
12.53
14.76
15.64
15.35
14.19
12.58
10.91
9.53
8.58
8.11
8.11
8.52
9.25
10.16
10.98
11.38
11.05
9.82
7.69
4.86
1.64
-1.65
-4.81
-7.79
-10.73
-13.87
-17.49
-21.75
-26.57
-31.54
-35.92
-38.82
-39.39
-37.09
-31.91
-24.39
-15.48
-6.30
2.13
9.03
14.01
16.97
18.07
17.64
16.15
14.15
12.18
10.62
9.65
9.26
9.27
9.52
9.89
10.30
10.61
10.62
10.09
8.88
7.02
4.64
1.96
-0.89
-3.83
-6.86
-9.94
-13.02
-16.14
-19.53
-23.50
-28.31
-33.82
-39.33
-43.71
-45.75
-44.68
-40.42
-33.60
-25.23
-16.40
-7.91
-0.27
6.29
11.62
15.58
18.13
19.34
19.52
19.12
18.60
18.36
18.50
18.91
19.35
19.60
19.59
19.40
19.15
18.89
18.53
17.79
16.37
14.10
10.98
7.24
3.25
-0.66
-4.22
-7.39
-10.32
-13.34
-16.87
-21.21
-26.37
-31.95
-37.15
-41.02
-42.63
-41.45
-37.41
-30.92
-22.78
-13.91
-5.19
2.70
9.35
14.66
18.69
21.58
23.47
24.47
24.72
24.47
24.09
23.96
24.30
25.03
25.82
26.22
25.94
24.91
23.33
21.47
19.53
17.57
15.45
12.98
10.03
6.57
2.71
-1.31
-5.22
-8.83
-12.12
-15.26
-18.60
-22.54
-27.29
-32.77
-38.43
-43.41
-46.70
-47.47
-45.32
-40.37
-33.25
-24.82
-15.96
-7.38
0.49
7.42
13.27
17.95
21.36
23.54
24.65
25.00
24.94
24.79
24.77
24.96
25.34
25.78
26.18
26.35
26.20
25.67
24.76
23.52
22.00
20.21
18.08
15.58
12.63
9.28
5.65
1.96
-1.59
-4.86
-7.84
-10.70
-13.74
-17.31
-21.69
-26.94
-32.74
-38.42
-43.04
-45.64
-45.47
-42.23
-36.22
-28.19
-19.16
-10.15
-1.95
5.04
10.68
15.03
18.19
20.28
21.45
21.94
22.07
22.23
22.73
23.70
25.08
26.65
28.15
29.35
30.11
30.39
30.16
29.38
27.97
25.89
23.15
19.90
16.36
12.77
9.30
6.05
2.98
-0.02
-3.02
-6.06
-9.12
-12.13
-15.08
-18.01
-21.04
-24.38
-28.28
-32.93
-38.34
-44.09
-49.39
-53.14
-54.35
-52.35
-47.12
-39.20
-29.58
-19.34
-9.40
-0.43
7.16
13.21
17.70
20.81
22.84
24.16
25.09
25.84
26.53
27.21
27.94
28.80
29.80
30.89
31.89
32.56
32.68
32.10
30.78
28.78
26.22
23.31
20.21
17.11
14.11
11.21
8.33
5.38
2.32
-0.77
-3.79
-6.67
-9.38
-12.01
-14.71
-17.66
-21.12
-25.30
-30.37
-36.24
-42.40
-47.93
-51.68
-52.60
-50.13
-44.43
-36.27
-26.79
-17.11
-8.06
-0.10
6.61
12.08
16.40
19.66
21.98
23.49
24.36
24.83
25.18
25.69
26.52
27.67
28.97
30.16
30.98
31.26
30.96
30.10
28.78
27.07
25.07
22.82
20.33
17.60
14.59
11.31
7.78
4.09
0.39
-3.22
-6.62
-9.78
-12.71
-15.53
-18.44
-21.80
-25.94
-31.02
-36.86
-42.86
-48.04
-51.29
-51.73
-48.93
-43.04
-34.78
-25.17
-15.32
-6.13
1.84
8.37
13.51
17.42
20.25
22.14
23.21
23.62
23.62
23.50
23.56
23.93
24.59
25.33
25.90
26.06
25.74
25.02
24.07
22.99
21.79
20.34
18.47
16.09
13.20
9.96
6.52
3.03
-0.39
-3.64
-6.65
-9.37
-11.96
-14.73
-18.16
-22.62
-28.17
-34.37
-40.25
-44.59
-46.30
-44.72
-39.90
-32.47
-23.48
-14.05
-5.06
2.92
9.62
14.95
18.92
21.54
22.94
23.35
23.16
22.82
22.69
22.97
23.60
24.40
25.15
25.75
26.16
26.38
26.35
25.92
24.95
23.33
21.15
18.61
15.92
13.20
10.45
7.63
4.68
1.57
-1.65
-4.95
-8.29
-11.62
-14.93
-18.15
-21.33
-24.61
-28.22
-32.44
-37.29
-42.49
-47.34
-50.87
-52.13
-50.48
-45.81
-38.51
-29.37
-19.38
-9.47
-0.44
7.13
12.97
17.06
19.60
21.00
21.72
22.18
22.68
23.34
24.17
25.11
26.06
26.96
27.79
28.51
29.10
29.46
29.47
29.02
28.03
26.56
24.70
22.57
20.23
17.67
14.89
11.91
8.80
5.67
2.55
-0.61
-3.89
-7.36
-10.96
-14.54
-17.95
-21.16
-24.30
-27.74
-31.85
-36.82
-42.47
-48.12
-52.73
-55.17
-54.52
-50.42
-43.22
-33.83
-23.49
-13.38
-4.35
3.13
8.98
13.31
16.32
18.25
19.39
20.03
20.52
21.10
21.94
23.00
24.13
25.11
25.79
26.17
26.31
26.31
26.18
25.81
25.02
23.65
21.61
18.99
16.01
12.85
9.68
6.52
3.27
-0.20
-3.99
-8.04
-12.14
-16.04
-19.50
-22.43
-24.94
-27.29
-29.89
-33.18
-37.47
-42.75
-48.55
-53.98
-57.83
-59.04
-56.97
-51.72
-44.02
-35.00
-25.77
-17.15
-9.64
-3.39
1.56
5.32
8.05
9.92
11.17
11.95
12.38
12.62
12.90
13.50
14.65
16.43
18.68
21.06
23.23
24.97
26.23
26.99
27.25
26.93
25.96
24.37
22.31
20.03
17.71
15.45
13.22
10.94
8.56
6.10
3.55
0.88
-2.04
-5.39
-9.37
-14.18
-19.86
-26.30
-33.10
-39.55
-44.73
-47.65
-47.58
-44.25
-37.98
-29.61
-20.25
-10.99
-2.66
4.32
9.95
14.35
17.75
20.24
21.81
22.47
22.37
21.82
21.29
21.19
21.80
23.07
24.73
26.38
27.60
28.08
27.71
26.52
24.70
22.48
20.04
17.43
14.58
11.36
7.68
3.63
-0.57
-4.65
-8.37
-11.71
-14.81
-18.00
-21.64
-26.02
-31.19
-36.84
-42.35
-46.83
-49.37
-49.25
-46.11
-40.11
-31.91
-22.48
-12.91
-4.19
3.09
8.70
12.81
15.73
17.79
19.23
20.20
20.85
21.35
21.90
22.67
23.69
24.85
26.00
27.00
27.79
28.36
28.69
28.74
28.43
27.67
26.37
24.40
21.66
18.12
13.89
9.24
4.59
0.30
-3.39
-6.52
-9.31
-12.05
-14.99
-18.35
-22.28
-26.90
-32.19
-37.87
-43.25
-47.32
-49.00
-47.49
-42.64
-35.05
-25.75
-15.97
-6.67
1.56
8.48
14.05
18.25
21.10
22.65
23.15
23.00
22.66
22.53
22.80
23.50
24.49
25.58
26.60
27.41
27.89
27.94
27.48
26.48
24.99
23.10
20.89
18.45
15.81
12.91
9.74
6.30
2.71
-0.85
-4.21
-7.26
-10.06
-12.76
-15.64
-18.96
-22.95
-27.70
-33.03
-38.50
-43.34
-46.64
-47.51
-45.39
-40.22
-32.47
-23.04
-13.00
-3.32
5.28
12.37
17.76
21.42
23.44
24.06
23.63
22.63
21.59
20.97
21.02
21.76
22.92
24.12
24.98
25.19
24.65
23.39
21.57
19.35
16.82
14.00
10.82
7.13
2.83
-2.15
-7.69
-13.51
-19.19
-24.29
-28.55
-31.96
-34.77
-37.39
-40.19
-43.44
-47.35
-52.02
-57.56
-63.87
-70.62
-77.05
-82.13
-84.90
-84.74
-81.66
-76.19
-69.13
-61.25
-53.04
-44.72
-36.37
-28.03
-19.73
-11.50
-3.30
4.94
13.27
21.58
29.64
37.15
43.83
49.54
54.34
58.46
62.16
65.67
69.00
72.01
74.35
75.67
75.70
74.42
71.98
68.70
64.85
60.59
56.00
51.08
45.85
40.42
34.92
29.46
24.06
18.60
12.85
6.61
-0.19
-7.36
-14.38
-20.45
-24.69
-26.37
-25.16
-21.22
-15.19
-7.95
-0.42
6.62
12.60
17.16
20.04
21.12
20.43
18.22
14.97
11.36
8.07
5.65
4.40
4.32
5.16
6.60
8.28
9.91
11.25
12.16
12.48
12.10
10.93
8.90
6.03
2.47
-1.52
-5.60
-9.45
-12.86
-15.81
-18.42
-20.89
-23.44
-26.19
-29.23
-32.58
-36.13
-39.60
-42.48
-44.13
-43.91
-41.44
-36.74
-30.28
-22.75
-14.91
-7.36
-0.55
5.19
9.66
12.72
14.41
14.94
14.70
14.10
13.50
13.13
13.07
13.35
13.87
14.52
15.14
15.55
15.63
15.37
14.81
13.99
12.88
11.32
9.18
6.40
3.12
-0.42
-3.90
-7.13
-10.04
-12.71
-15.27
-17.91
-20.81
-24.15
-28.07
-32.61
-37.57
-42.45
-46.51
-48.84
-48.68
-45.68
-40.06
-32.54
-24.19
-16.05
-8.82
-2.80
2.13
6.23
9.75
12.76
15.24
17.09
18.32
19.03
19.44
19.79
20.28
21.04
22.05
23.18
24.18
24.85
25.01
24.65
23.84
22.69
21.26
19.48
17.27
14.54
11.32
7.76
4.17
0.79
-2.25
-5.01
-7.80
-11.02
-15.02
-19.88
-25.41
-31.05
-36.07
-39.67
-41.21
-40.30
-36.90
-31.27
-23.98
-15.76
-7.41
0.34
6.95
12.16
15.89
18.28
19.57
20.11
20.25
20.35
20.67
21.34
22.34
