1520271105.00
64.000000
-0.00
-0.00
-0.00
-0.00
-0.00
-0.00
-0.00
-0.00
-0.00
-0.00
0.00
0.01
0.01
-0.00
-0.03
-0.05
-0.05
0.00
0.13
0.36
0.66
1.01
1.37
1.72
2.06
2.40
2.79
3.24
3.80
4.42
5.06
5.66
6.20
6.68
7.15
7.68
8.31
9.14
10.09
11.04
11.88
12.56
13.14
13.76
14.65
15.96
17.91
20.32
22.90
25.38
27.58
29.57
31.68
34.32
37.81
42.54
48.15
54.10
59.83
64.97
69.58
74.14
79.34
85.71
93.76
103.00
112.62
121.73
129.77
136.75
143.30
150.75
157.77
166.64
177.95
191.79
206.97
220.57
228.25
225.36
208.53
176.87
132.76
80.05
23.07
-34.94
-92.44
-149.16
-205.23
-260.37
-313.74
-363.87
-409.83
-450.91
-486.50
-515.74
-537.23
-549.22
-549.96
-538.37
-514.21
-478.67
-433.88
-382.45
-327.02
-269.84
-212.63
-156.66
-102.95
-52.37
-5.90
35.58
71.43
101.35
125.50
144.38
158.69
169.15
176.37
180.75
182.57
182.07
179.51
175.23
169.65
163.18
156.15
148.81
141.30
133.69
126.02
118.33
110.69
103.16
95.80
88.68
81.83
75.25
68.95
62.95
57.25
51.86
46.78
42.03
37.59
33.45
29.61
26.07
22.81
19.83
17.11
14.67
12.48
10.54
8.83
7.35
6.07
4.97
4.05
3.27
2.62
2.09
1.65
1.30
1.01
0.79
0.61
0.48
0.37
0.30
0.24
0.21
0.19
0.19
0.20
0.22
0.25
0.28
0.32
0.36
0.41
0.46
0.51
0.56
0.62
0.67
0.73
0.79
0.85
0.92
1.00
1.08
1.17
1.28
1.39
1.52
1.67
1.83
2.02
2.22
2.45
2.71
2.99
3.30
3.65
4.02
4.44
4.89
5.38
5.91
6.48
7.09
7.75
8.45
9.20
10.00
10.84
11.73
12.67
13.66
14.70
15.79
16.95
18.18
19.48
20.83
22.23
23.60
24.89
26.00
26.80
27.14
26.89
25.91
24.11
21.46
17.98
13.72
8.87
3.62
-1.78
-7.06
-11.96
-16.23
-19.68
-22.18
-23.71
-24.30
-24.09
-23.27
-21.98
-20.36
-18.51
-16.46
-14.25
-11.91
-9.51
-7.18
-5.03
-3.11
-1.40
0.20
1.84
3.61
5.57
7.69
9.73
11.47
12.85
13.91
14.88
16.06
17.69
19.86
22.50
25.01
26.88
27.89
28.18
28.27
28.89
30.73
34.07
38.61
43.01
45.97
46.78
45.59
43.40
41.60
41.42
43.32
46.66
49.23
48.84
44.14
35.06
22.65
8.44
-6.51
-22.91
-38.67
-55.19
-74.82
-99.73
-131.08
-168.37
-208.81
-246.54
-274.02
-284.21
-274.03
-245.17
-204.29
-161.33
-126.43
-106.36
-101.15
-105.58
-112.80
-118.51
-121.68
-123.76
-126.76
-131.56
-137.04
-138.64
-132.22
-116.90
-96.36
-75.73
-58.21
-43.38
-27.80
-6.93
25.64
74.23
139.49
218.08
304.68
393.63
478.66
552.47
591.04
575.41
505.59
404.63
302.72
219.97
161.71
122.90
94.75
69.94
47.63
30.05
17.27
6.38
-7.31
-27.67
-56.40
-93.36
-137.31
-177.98
-208.91
-228.78
-241.00
-250.25
-258.39
-262.88
-258.28
-239.42
-203.48
-153.96
-99.37
-50.16
-14.26
5.94
13.42
13.66
11.68
11.07
12.72
16.59
22.68
31.32
42.38
55.49
68.81
79.77
86.38
87.52
83.66
76.51
68.09
59.98
53.05
47.25
42.07
36.97
31.48
25.58
19.74
14.66
10.88
8.79
8.25
8.61
8.92
8.02
4.94
-0.94
-8.69
-17.59
-26.72
-35.20
-42.30
-47.51
-50.59
-51.57
-50.74
-48.56
-45.67
-42.48
-39.16
-35.56
-31.40
-26.40
-20.56
-14.11
-7.50
-1.33
4.04
8.45
12.05
15.18
18.26
21.69
25.78
30.68
36.33
42.58
49.13
55.61
61.50
66.19
69.11
69.83
68.28
64.71
59.67
53.78
47.54
41.17
34.63
27.81
20.61
13.07
5.28
-2.60
-10.44
-18.09
-25.41
-32.11
-37.71
-41.61
-43.12
-41.83
-37.69
-31.23
-23.34
-15.14
-7.57
-1.18
3.93
7.97
11.26
14.02
16.26
17.84
18.60
18.50
17.71
16.53
15.38
14.57
14.27
14.37
14.67
14.94
15.02
14.94
14.75
14.52
14.18
13.58
12.53
10.92
8.79
6.29
3.68
1.19
-1.11
-3.22
-5.28
-7.45
-9.85
-12.46
-15.27
-18.17
-21.12
-24.09
-27.18
-30.56
-34.49
-39.24
-44.92
-51.37
-58.04
-64.11
-68.59
-70.59
-69.59
-65.47
-58.67
-49.91
-40.15
-30.27
-20.96
-12.57
-5.16
1.36
7.09
12.02
16.04
19.05
21.12
22.49
23.53
24.57
25.79
27.17
28.57
29.87
30.97
31.85
32.45
32.67
32.41
31.64
30.39
28.85
27.20
25.61
24.11
22.63
20.98
19.06
16.85
14.51
12.20
10.07
8.05
5.91
3.36
0.19
-3.59
-7.79
-12.11
-16.33
-20.40
-24.43
-28.63
-33.21
-38.33
-44.03
-50.18
-56.33
-61.73
-65.40
-66.41
-64.18
-58.72
-50.62
-40.93
-30.72
-20.90
-12.05
-4.45
1.86
6.95
11.03
14.33
17.09
19.50
21.63
23.42
24.74
25.58
26.01
26.24
26.50
26.88
27.38
27.85
28.19
28.30
28.15
27.72
26.95
25.76
24.07
21.91
19.42
16.84
14.44
12.40
10.78
9.51
8.34
7.05
5.39
3.22
0.54
-2.55
-5.87
-9.21
-12.44
-15.52
-18.53
-21.62
-24.96
-28.76
-33.15
-38.21
-43.83
-49.69
-55.19
-59.54
-61.89
-61.52
-58.08
-51.72
-43.08
-33.22
-23.29
-14.28
-6.73
-0.72
4.10
8.21
11.90
15.19
17.84
19.64
20.62
21.17
21.90
23.42
26.05
29.76
34.19
38.82
43.10
46.59
48.94
49.89
49.34
47.35
44.12
39.95
35.17
30.10
24.97
19.94
15.10
10.45
5.92
1.31
-3.56
-8.88
-14.69
-20.88
-27.20
-33.36
-39.11
-44.32
-48.96
-52.99
-56.36
-58.98
-60.83
-61.97
-62.64
-63.13
-63.65
-64.10
-63.88
-62.01
-57.28
-48.72
-36.00
-19.86
-2.02
15.11
29.19
38.65
43.14
43.47
41.24
38.26
36.10
35.76
37.56
41.09
45.38
49.22
51.66
52.48
52.23
51.94
52.49
54.07
56.10
57.50
57.43
55.61
52.34
48.17
43.43
38.08
31.86
24.62
16.57
8.14
-0.34
-9.04
-18.74
-30.48
-45.10
-62.72
-82.64
-103.53
-123.85
-142.17
-157.13
-167.33
-171.48
-168.83
-159.88
-146.85
-133.29
-122.97
-118.41
-119.81
-125.06
-130.75
-133.58
-131.66
-124.89
-114.62
-102.62
-90.27
-78.09
-65.86
-53.11
-39.69
-25.99
-12.93
-1.48
7.88
15.47
22.36
29.83
38.83
49.60
61.63
73.93
85.33
94.74
101.39
104.95
105.67
104.25
101.65
98.73
95.92
93.20
90.27
86.91
83.33
80.17
78.24
78.14
80.02
83.47
87.88
92.60
97.04
100.69
102.87
102.90
100.37
95.72
90.61
87.73
89.81
98.44
113.11
131.30
149.45
164.50
174.90
180.71
182.81
181.72
177.02
167.59
152.42
131.61
106.62
79.91
54.07
31.00
11.61
-4.13
-16.82
-27.22
-35.99
-43.60
-50.37
-56.50
-62.08
-67.10
-71.43
-74.90
-77.46
-79.25
-80.80
-82.83
-85.99
-90.44
-95.63
-100.38
-103.36
-103.67
-101.35
-97.67
-94.92
-95.95
-103.32
-118.49
-141.20
-169.37
-199.44
-227.22
-248.85
-261.61
-264.25
-256.88
-240.57
-216.87
-187.60
-154.79
-120.68
-87.52
-57.19
-30.74
-8.03
12.15
31.70
52.43
75.25
99.58
123.47
144.28
159.87
169.63
174.78
177.84
181.26
186.14
191.70
195.80
196.12
191.42
182.19
170.34
158.34
148.25
141.03
136.58
134.12
132.78
132.12
132.23
133.50
136.11
139.58
142.59
143.26
139.90
131.67
119.08
103.83
88.07
73.52
60.81
49.40
38.11
25.78
11.99
-2.81
-17.60
-31.33
-43.48
-54.20
-64.18
-74.12
-84.39
-94.85
-105.03
-114.46
-122.85
-130.12
-136.14
-140.49
-142.45
-141.20
-136.28
-127.93
-117.13
-105.37
-94.11
-84.34
-76.45
-70.32
-65.62
-62.02
-59.23
-56.93
-54.65
-51.88
-48.23
-43.61
-38.38
-33.15
-28.56
-25.09
-22.89
-21.80
-21.39
-20.97
-19.67
-16.46
-10.52
-1.37
10.82
25.28
40.90
56.55
71.41
85.21
98.07
110.37
122.34
133.75
143.76
151.07
154.17
151.91
143.95
130.97
114.45
96.30
78.12
61.01
45.43
31.41
18.88
7.78
-1.91
-10.28
-17.51
-23.90
-29.72
-35.08
-40.01
-44.42
-48.09
-50.64
-51.62
-50.62
-47.63
-43.39
-39.43
-37.68
-39.83
-46.63
-57.59
-71.09
-85.03
-97.36
-106.59
-111.95
-113.45
-111.74
-108.04
-103.95
-100.98
-100.00
-100.77
-102.01
-101.89
-98.94
-92.68
-83.90
-74.19
-65.21
-57.98
-52.68
-48.79
-45.52
-42.24
-38.53
-34.14
-28.85
-22.36
-14.56
-5.71
3.46
11.94
18.69
23.02
24.82
24.47
22.65
20.04
17.03
13.68
9.81
5.15
-0.36
-6.52
-12.87
-18.81
-23.87
-27.86
-30.92
-33.47
-36.08
-39.22
-43.12
-47.65
-52.23
-55.93
-57.61
-56.21
-51.16
-42.58
-31.40
-19.04
-7.03
3.45
11.89
18.39
23.50
27.87
31.88
35.59
38.80
41.16
42.45
42.66
42.08
41.12
40.16
39.44
38.99
38.78
38.71
38.78
38.98
39.23
39.28
38.80
37.48
35.16
31.96
28.17
24.20
20.39
16.93
13.85
11.09
8.57
6.22
3.92
1.51
-1.17
-4.21
-7.57
-11.07
-14.48
-17.62
-20.54
-23.53
-27.06
-31.56
-37.22
-43.74
-50.31
-55.81
-59.00
-58.96
-55.28
-48.28
-38.86
-28.28
-17.76
-8.18
0.07
7.00
12.80
17.69
21.76
25.02
27.46
29.23
30.52
31.63
32.74
33.89
35.02
35.98
36.72
37.23
37.60
37.85
37.95
37.77
37.14
35.99
34.28
32.11
29.54
26.67
23.50
20.06
16.53
13.12
10.10
7.57
5.45
3.44
1.18
-1.58
-4.85
-8.46
-12.10
-15.48
-18.52
-21.23
-23.82
-26.56
-29.77
-33.69
-38.43
-43.75
-48.96
-53.01
-54.75
-53.28
-48.33
-40.38
-30.53
-20.13
-10.35
-1.94
4.89
10.29
14.64
18.30
21.53
24.35
26.66
28.21
28.88
28.68
27.83
26.71
25.70
25.06
24.84
24.98
25.37
25.97
26.72
27.54
28.17
28.22
27.34
25.35
22.42
18.97
15.52
12.48
9.94
7.79
5.80
3.78
1.66
-0.52
-2.74
-5.00
-7.32
-9.69
-12.05
-14.29
-16.41
-18.55
-20.97
-24.01
-27.95
-32.84
-38.47
-44.26
-49.38
-52.76
-53.46
-50.89
-45.09
-36.80
-27.19
-17.53
-8.76
-1.32
4.81
9.85
14.02
17.41
20.03
21.93
23.21
24.05
24.61
24.95
25.08
24.97
24.65
24.23
23.87
23.70
23.83
24.24
24.80
25.29
25.40
24.90
23.65
21.72
19.35
16.88
14.56
12.52
10.75
9.15
7.63
6.10
4.48
2.66
0.48
-2.13
-5.17
-8.47
-11.76
-14.80
-17.45
-19.78
-22.03
-24.52
-27.51
-31.18
-35.53
-40.34
-45.11
-49.09
-51.34
-51.05
-47.73
-41.53
-33.17
-23.82
-14.68
-6.63
-0.09
5.02
9.01
12.23
14.89
17.06
18.79
20.12
21.20
22.12
22.88
23.42
23.63
23.50
23.16
22.85
22.84
23.30
24.16
25.10
25.75
25.66
24.62
22.67
20.09
17.30
14.68
12.43
10.54
8.87
7.30
5.77
4.30
2.91
1.50
-0.09
-2.05
-4.45
-7.15
-9.93
-12.56
-14.91
-17.08
-19.23
-21.57
-24.24
-27.38
-31.20
-35.87
-41.43
-47.54
-53.36
-57.66
-59.14
-56.96
-51.02
-42.12
-31.71
-21.33
-12.18
-4.79
0.90
5.34
8.98
12.08
14.67
16.67
18.08
19.01
19.70
20.34
21.01
21.62
22.06
22.25
22.27
22.33
22.69
23.47
24.57
25.69
26.45
26.47
25.53
23.65
21.07
18.10
15.08
12.24
9.68
7.36
5.24
3.31
1.58
0.05
-1.40
-2.96
-4.87
-7.27
-10.10
-13.15
-16.19
-19.14
-22.12
-25.48
-29.61
-34.75
-40.81
-47.31
-53.38
-57.96
-60.02
-58.82
-54.18
-46.55
-37.04
-26.98
-17.60
-9.66
-3.37
1.55
5.54
8.98
12.09
14.85
17.17
18.99
20.30
21.20
21.81
22.32
22.89
23.70
24.82
26.26
27.90
29.55
30.95
31.94
32.32
31.98
30.92
29.22
27.12
24.90
22.82
20.97
19.30
17.60
15.73
13.66
11.47
9.27
7.06
4.72
2.03
-1.12
-4.70
-8.50
-12.21
-15.65
-18.79
-21.83
-25.09
-29.00
-33.89
-39.92
-46.89
-54.14
-60.55
-64.76
-65.61
-62.51
-55.73
-46.32
-35.77
-25.47
-16.36
-8.70
-2.24
3.40
8.56
13.26
17.32
20.54
22.84
24.38
25.44
26.32
27.22
28.12
28.96
29.66
30.28
30.96
31.84
32.92
34.02
34.78
34.83
33.96
32.19
29.79
27.11
24.43
21.89
19.45
16.99
14.41
11.70
8.96
6.31
3.73
1.18
-1.51
-4.46
-7.69
-11.07
-14.37
-17.38
-20.06
-22.66
-25.58
-29.29
-34.08
-39.92
-46.34
-52.57
-57.56
-60.24
-59.75
-55.72
-48.41
-38.70
-27.92
-17.50
-8.57
-1.65
3.39
7.12
10.28
13.39
16.66
19.99
23.07
25.65
27.64
29.15
30.39
31.61
32.94
34.36
35.75
36.92
37.77
38.25
38.37
38.16
37.59
36.60
35.16
33.25
30.95
28.39
25.68
22.90
20.10
17.33
14.69
12.29
10.13
8.11
5.99
3.49
0.41
-3.25
-7.30
-11.49
-15.61
-19.61
-23.62
-27.84
-32.47
-37.64
-43.30
-49.22
-54.86
-59.43
-62.04
-61.87
-58.50
-52.10
-43.37
-33.38
-23.25
-13.85
-5.60
1.46
7.55
12.98
17.91
22.35
26.09
28.87
30.57
31.28
31.35
31.22
31.30
31.75
32.52
33.49
34.49
35.46
36.36
37.12
37.58
37.54
36.87
35.57
33.79
31.73
29.53
27.24
24.86
22.33
19.67
16.88
13.96
10.82
7.42
3.72
-0.16
-4.01
-7.61
-10.79
-13.58
-16.25
-19.15
-22.69
-27.12
-32.56
-38.91
-45.89
-52.93
-59.17
-63.52
-64.88
-62.50
-56.28
-46.93
-35.77
-24.32
-13.84
-5.01
2.11
7.85
12.68
16.89
20.55
23.58
25.87
27.41
28.34
28.97
29.62
30.51
31.68
32.94
34.04
34.78
35.16
35.30
35.36
35.30
34.88
33.77
31.71
28.74
25.16
21.49
18.21
15.56
13.49
11.69
9.77
7.42
4.53
1.18
-2.39
-5.96
-9.34
-12.46
-15.35
-18.18
-21.25
-25.00
-29.77
-35.71
-42.44
-49.02
-54.10
-56.29
-54.67
-49.21
-40.73
-30.66
-20.48
-11.28
-3.49
3.03
8.69
13.84
18.54
22.60
25.68
27.52
28.16
27.94
27.40
27.10
27.40
28.32
29.63
31.02
32.24
33.17
33.80
34.17
34.23
33.86
32.94
31.41
29.29
26.68
23.74
20.64
17.57
14.67
11.97
9.35
6.59
3.46
-0.14
-4.11
-8.17
-12.01
-15.44
-18.40
-21.14
-24.02
-27.51
-32.00
-37.69
-44.32
-51.17
-57.04
-60.56
-60.66
-56.86
-49.54
-39.75
-28.88
-18.15
-8.37
0.10
7.22
13.05
17.68
21.20
23.75
25.51
26.72
27.55
28.13
28.55
28.90
29.30
29.85
30.59
31.47
32.38
33.16
33.77
34.16
34.34
34.26
33.73
32.53
30.48
27.54
23.92
20.04
16.45
13.57
11.50
10.02
8.58
6.63
3.77
0.02
-4.35
-8.89
-13.24
-17.20
-20.83
-24.32
-27.95
-31.97
-36.62
-42.12
-48.56
-55.76
-63.13
-69.55
-73.60
-73.98
-69.97
-61.81
-50.71
-38.38
-26.55
-16.37
-8.19
-1.66
3.92
9.19
14.51
19.84
24.92
29.34
32.75
35.02
36.17
36.46
36.30
36.15
36.36
37.06
38.23
39.60
40.85
41.67
41.83
41.22
39.83
37.78
35.24
32.45
29.57
26.72
23.95
21.20
18.41
15.57
12.72
9.96
7.40
5.06
2.87
0.68
-1.74
-4.54
-7.80
-11.48
-15.45
-19.54
-23.59
-27.52
-31.39
-35.41
-39.96
-45.42
-51.92
-59.12
-66.02
-71.21
-73.17
-70.88
-64.25
-54.10
-41.97
-29.60
-18.34
-8.90
-1.34
4.70
9.72
14.14
18.24
22.12
25.76
29.09
31.98
34.30
35.95
36.92
37.33
37.42
37.49
37.76
38.29
38.99
39.59
39.81
39.45
38.46
36.91
34.96
32.82
30.67
28.65
26.79
25.03
23.19
21.07
18.50
15.43
11.98
8.26
4.44
0.58
-3.33
-7.26
-11.17
-14.93
-18.48
-21.74
-24.80
-27.82
-31.11
-34.98
-39.72
-45.50
-52.11
-59.01
-65.12
-69.18
-69.98
-66.83
-59.83
-49.90
-38.51
-27.11
-16.84
-8.16
-1.07
4.79
9.82
14.27
18.25
21.77
24.77
27.20
29.03
30.23
30.86
31.06
31.02
31.01
31.31
32.10
33.41
35.09
36.72
37.80
37.94
36.99
35.15
32.86
30.54
28.45
26.58
24.74
22.71
20.38
17.76
14.94
12.00
9.01
6.02
3.14
0.43
-2.12
-4.57
-7.08
-9.75
-12.63
-15.68
-18.82
-21.98
-25.24
-28.80
-32.98
-38.11
-44.34
-51.48
-58.82
-65.20
-69.24
-69.74
-66.14
-58.77
-48.73
-37.53
-26.60
-16.88
-8.73
-2.04
3.50
8.20
12.30
15.86
18.88
21.31
23.12
24.31
25.00
25.45
25.96
26.83
28.10
29.61
31.02
31.99
32.37
32.19
31.59
30.67
29.41
27.81
25.91
23.85
21.87
20.06
18.39
16.66
14.57
11.95
8.84
5.47
2.07
-1.22
-4.35
-7.41
-10.41
-13.30
-16.01
-18.46
-20.72
-22.97
-25.53
-28.77
-33.09
-38.65
-45.33
-52.46
-58.88
-63.14
-63.94
-60.60
-53.34
-43.23
-31.83
-20.75
-11.10
-3.35
2.59
7.18
10.92
14.13
16.95
19.37
21.35
22.83
23.85
24.48
24.82
25.02
25.20
25.50
26.05
26.91
28.02
29.18
30.04
30.31
29.76
28.34
26.16
23.46
20.56
17.76
15.27
13.14
11.27
9.44
7.43
5.08
2.37
-0.67
-3.94
-7.31
-10.63
-13.75
-16.53
-18.96
-21.21
-23.65
-26.77
-31.01
-36.55
-43.19
-50.24
-56.59
-60.95
-62.17
-59.60
-53.36
-44.31
-33.80
-23.23
-13.64
-5.51
1.14
6.57
11.02
14.65
17.50
19.66
21.19
22.19
22.70
22.79
22.61
22.39
22.46
23.05
24.22
25.77
27.33
28.56
29.27
29.51
29.33
28.77
27.71
26.00
23.58
20.58
17.28
14.07
11.24
8.87
6.83
4.84
2.55
-0.26
-3.61
-7.26
-10.93
-14.32
-17.34
-20.15
-23.10
-26.59
-30.96
-36.33
-42.67
-49.72
-56.95
-63.60
-68.60
-70.80
-69.29
-63.76
-54.75
-43.48
-31.60
-20.59
-11.38
-4.13
1.58
6.43
10.99
15.45
19.63
23.15
25.69
27.20
27.88
28.08
28.14
28.28
28.61
29.21
30.17
31.57
33.36
35.29
36.93
37.76
37.41
35.83
33.24
30.11
26.91
23.96
21.31
18.86
16.43
13.97
11.45
8.93
6.36
3.63
0.51
-3.14
-7.29
-11.67
-15.88
-19.55
-22.53
-25.03
-27.49
-30.49
-34.52
-39.86
-46.46
-53.92
-61.40
-67.75
-71.69
-72.12
-68.52
-61.06
-50.69
-38.84
-27.02
-16.41
-7.62
-0.60
5.10
10.13
14.96
19.77
24.38
28.43
31.54
33.55
34.58
34.92
34.93
34.83
34.75
34.70
34.71
34.85
35.17
35.64
36.14
36.47
36.47
36.02
35.02
33.36
30.93
27.76
23.98
19.97
16.16
12.89
10.26
8.09
6.01
3.68
0.85
-2.54
-6.41
-10.59
-14.88
-19.05
-23.00
-26.69
-30.37
-34.46
-39.46
-45.66
-52.87
-60.28
-66.49
-69.98
-69.55
-64.80
-56.33
-45.48
-33.92
-23.03
-13.56
-5.56
1.33
7.54
13.38
18.85
23.82
28.09
31.57
34.18
35.89
36.73
36.82
36.43
35.96
35.79
36.14
37.00
38.11
39.13
39.77
39.82
39.24
38.01
36.19
33.92
31.33
28.61
25.90
23.25
20.58
17.81
14.85
11.72
8.51
5.29
2.05
-1.28
-4.78
-8.47
-12.22
-15.87
-19.34
-22.68
-26.14
-30.11
-34.98
-41.00
-48.10
-55.76
-63.04
-68.72
-71.55
-70.66
-65.78
-57.33
-46.39
-34.37
-22.66
-12.28
-3.79
2.87
8.08
12.37
16.24
19.93
23.49
26.74
29.49
31.59
33.07
34.08
34.86
35.59
36.31
36.99
37.48
37.70
37.63
37.36
36.97
36.45
35.67
34.39
32.44
29.80
26.65
23.26
19.96
16.91
14.12
11.37
8.39
4.97
1.09
-3.08
-7.18
-10.84
-13.87
-16.36
-18.67
-21.31
-24.76
-29.36
-35.14
-41.90
-49.06
-55.76
-60.90
-63.34
-62.26
-57.36
-49.07
-38.52
-27.16
-16.39
-7.14
0.26
6.06
10.80
14.99
18.83
22.23
24.88
26.55
27.21
27.12
26.74
26.42
26.40
26.67
27.11
27.62
28.19
28.90
29.78
30.73
31.50
31.69
30.91
28.99
26.05
22.52
18.98
15.91
13.46
11.35
9.08
6.12
2.25
-2.38
-7.25
-11.80
-15.66
-18.76
-21.41
-24.15
-27.58
-32.16
-38.07
-45.10
-52.56
-59.35
-64.16
-65.80
-63.59
-57.50
-48.20
-36.89
-24.95
-13.62
-3.74
4.35
10.77
15.93
20.24
23.97
27.14
29.56
31.04
31.56
31.37
30.92
30.66
30.86
31.50
32.31
32.99
33.36
33.40
33.26
33.08
32.81
32.28
31.22
29.43
26.92
23.92
20.76
17.78
15.16
12.87
10.70
8.38
5.62
2.30
-1.57
-5.84
-10.26
-14.60
-18.70
-22.52
-26.19
-29.99
-34.35
-39.67
-46.20
-53.75
-61.61
-68.51
-72.92
-73.50
-69.56
-61.32
-49.95
-37.08
-24.33
-12.89
-3.33
4.39
10.56
15.60
19.76
23.23
26.07
28.33
30.02
31.16
31.81
32.05
32.04
31.95
31.95
32.15
32.56
33.13
33.78
34.40
34.92
35.19
34.99
34.05
32.17
29.32
25.73
21.83
18.07
14.78
12.00
9.54
7.08
4.34
1.16
-2.46
-6.44
-10.64
-14.91
-19.07
-22.97
-26.58
-30.07
-33.88
-38.61
-44.73
-52.29
-60.61
-68.32
-73.70
-75.20
-72.02
-64.45
-53.71
-41.54
-29.58
-18.92
-9.90
-2.38
4.07
9.77
14.89
19.42
23.31
26.53
29.12
31.09
32.53
33.54
34.21
34.74
35.28
35.96
36.83
37.81
38.77
39.45
39.65
39.21
38.12
36.42
34.25
31.68
28.76
25.54
22.13
18.69
15.40
12.36
9.47
6.51
3.18
-0.64
-4.83
-9.07
-12.94
-16.20
-18.91
-21.42
-24.18
-27.61
-31.97
-37.36
-43.73
-50.79
-57.96
-64.27
-68.46
-69.29
-66.05
-58.84
-48.66
-37.09
-25.71
-15.60
-7.12
-0.02
6.22
12.04
17.56
22.61
26.85
30.02
32.01
32.95
33.11
32.89
32.63
32.61
32.90
33.47
34.13
34.68
35.01
35.04
34.80
34.30
33.48
32.25
30.50
28.17
25.31
22.11
18.78
15.53
12.52
9.77
7.15
4.45
1.41
-2.12
-6.13
-10.44
-14.70
-18.65
-22.17
-25.42
-28.72
-32.49
-37.09
-42.69
-49.21
-56.13
-62.51
-67.12
-68.75
-66.58
-60.54
-51.30
-40.15
-28.55
-17.64
-8.13
-0.20
6.32
11.72
16.22
20.02
23.24
25.91
28.08
29.74
30.93
31.71
32.21
32.59
32.97
33.44
33.97
34.49
34.92
35.14
35.08
34.64
33.67
32.08
29.82
27.00
23.86
20.69
17.76
15.19
12.87
10.58
8.05
5.03
1.46
-2.57
-6.76
-10.80
-14.41
-17.50
-20.24
-23.05
-26.43
-30.89
-36.70
-43.78
-51.64
-59.33
-65.61
-69.17
-68.98
-64.69
-56.77
-46.40
-35.02
-23.95
-14.02
-5.48
1.80
8.07
13.52
18.18
22.01
24.93
26.95
28.17
28.78
29.02
29.14
29.32
29.65
30.11
30.64
31.20
31.80
32.45
33.10
33.55
33.49
32.58
30.65
27.78
24.35
20.86
17.79
15.32
13.33
11.43
9.11
6.02
2.12
-2.33
-6.92
-11.20
-14.94
-18.10
-20.89
-23.74
-27.10
-31.41
-36.88
-43.28
-49.97
-55.86
-59.72
-60.53
-57.78
-51.66
-42.96
-32.85
-22.51
-12.88
-4.49
2.54
8.36
13.21
17.26
20.53
22.95
24.47
25.14
25.21
25.00
24.90
25.16
25.85
26.87
28.02
29.07
29.84
30.18
29.99
29.17
27.66
25.46
22.70
19.61
16.49
13.60
11.06
8.77
6.49
3.93
0.88
-2.62
-6.31
-9.77
-12.66
-14.87
-16.68
-18.65
-21.50
-25.73
-31.44
-38.16
-44.92
-50.48
-53.60
-53.38
-49.53
-42.41
-32.97
-22.44
-12.06
-2.81
4.81
10.74
15.22
18.67
21.36
23.47
24.98
25.85
26.14
26.06
25.93
26.02
26.42
27.04
27.70
28.27
28.78
29.36
29.97
30.35
30.02
28.56
25.80
22.08
18.01
14.25
11.17
8.71
6.49
4.02
0.97
-2.76
-7.00
-11.41
-15.59
-19.21
-22.14
-24.51
-26.82
-29.68
-33.70
-39.16
-45.83
-52.89
-59.09
-63.06
-63.68
-60.43
-53.59
-44.09
-33.29
-22.46
-12.54
-3.98
3.25
9.34
14.48
18.81
22.32
25.02
26.96
28.21
28.91
29.18
29.14
28.89
28.53
28.15
27.79
27.59
27.65
28.04
28.66
29.24
29.38
28.71
27.05
24.51
21.43
18.28
15.45
13.09
11.06
9.01
6.53
3.34
-0.56
-4.89
-9.22
-13.11
-16.35
-19.04
-21.55
-24.47
-28.30
-33.37
-39.66
-46.82
-54.06
-60.27
-64.19
-64.73
-61.32
-54.18
-44.31
-33.21
-22.41
-12.98
-5.29
0.97
6.44
11.66
16.86
21.82
26.16
29.47
31.61
32.69
32.95
32.74
32.35
32.00
31.87
32.06
32.58
33.31
34.04
34.51
34.50
33.86
32.49
30.41
27.73
24.61
21.32
18.13
15.22
12.70
10.50
8.47
6.40
4.08
1.37
-1.77
-5.28
-9.00
-12.69
-16.11
-19.14
-21.80
-24.33
-27.14
-30.72
-35.44
-41.44
-48.39
-55.54
-61.70
-65.57
-66.10
-62.82
-55.96
-46.42
-35.49
-24.42
-14.29
-5.71
1.15
6.49
10.78
14.55
18.15
21.70
25.05
27.80
29.66
30.49
30.42
29.81
29.08
28.55
28.39
28.61
29.15
29.86
30.61
31.16
31.30
30.77
29.44
27.33
24.63
21.65
18.77
16.25
14.23
12.64
11.28
9.82
7.95
5.51
2.47
-1.03
-4.71
-8.36
-11.75
-14.84
-17.75
-20.78
-24.35
-28.91
-34.69
-41.60
-49.03
-55.97
-61.18
-63.51
-62.28
-57.42
-49.58
-39.92
-29.78
-20.26
-11.98
-5.03
0.90
6.23
11.18
15.74
19.69
22.82
25.07
26.56
27.49
28.09
28.50
28.84
29.16
29.53
29.97
30.46
30.97
31.40
31.62
31.46
30.74
29.36
27.31
24.76
21.95
19.09
16.33
13.66
11.01
8.31
5.51
2.61
-0.44
-3.65
-7.01
-10.41
-13.68
-16.63
-19.20
-21.50
-23.84
-26.59
-30.10
-34.51
-39.76
-45.46
-50.94
-55.36
-57.71
-57.18
-53.36
-46.42
-37.19
-26.87
-16.74
-7.79
-0.59
4.82
8.68
11.43
13.45
15.06
16.39
17.45
18.20
18.63
18.79
18.81
18.89
19.22
19.89
20.94
22.32
23.89
25.43
26.62
27.11
26.63
25.10
22.73
19.93
17.13
14.58
12.23
9.83
7.01
3.62
-0.23
-4.22
-7.90
-11.00
-13.46
-15.55
-17.69
-20.33
-23.84
-28.39
-33.98
-40.30
-46.74
-52.37
-56.07
-56.82
-54.08
-47.98
-39.42
-29.71
-20.17
-11.73
-4.74
0.85
5.30
8.81
11.38
12.95
13.52
13.31
12.69
12.09
11.79
11.84
12.09
12.32
12.42
12.38
12.30
12.17
11.83
11.05
9.66
7.74
5.64
3.87
2.86
2.85
3.74
5.23
6.99
8.69
10.00
10.60
10.13
8.21
4.69
-0.23
-6.02
-11.92
-17.36
-22.21
-26.86
-31.94
-37.91
-44.55
-50.85
-55.31
-56.52
-53.75
-47.25
-38.17
-28.02
-18.11
-9.14
-1.20
5.98
12.59
18.52
23.39
26.82
28.72
29.35
29.33
29.21
29.32
29.59
29.71
29.45
28.78
27.99
27.48
27.55
28.20
29.08
29.69
29.51
28.25
25.96
22.99
19.83
16.90
14.33
12.00
9.57
6.73
3.37
-0.39
-4.34
-8.25
-12.03
-15.71
-19.36
-23.13
-27.19
-31.81
-37.27
-43.73
-51.01
-58.38
-64.64
-68.41
-68.54
-64.57
-56.84
-46.45
-34.89
-23.56
-13.48
-5.06
1.88
7.79
13.15
18.23
22.97
27.06
30.18
32.13
33.01
33.10
32.85
32.67
32.88
33.59
34.72
36.08
37.38
38.35
38.74
38.45
37.47
35.83
33.61
30.91
27.87
24.66
21.48
18.50
15.69
12.90
9.80
6.15
1.87
-2.87
-7.65
-12.04
-15.73
-18.75
-21.41
-24.30
-28.01
-32.91
-38.90
-45.33
-51.03
-54.62
-54.93
-51.30
-43.83
-33.32
-21.07
-8.60
2.75
12.04
18.97
23.90
27.73
31.48
35.92
41.25
46.97
52.25
56.30
58.72
59.56
59.23
58.23
56.93
55.66
54.69
54.23
54.34
54.77
54.87
53.79
50.85
45.86
39.30
32.10
25.31
19.54
14.79
10.48
5.79
0.10
-6.69
-14.18
-21.60
-28.17
-33.39
-37.10
-39.50
-41.06
-42.40
-44.22
-47.20
-51.92
-58.49
-66.49
-74.85
-82.02
-86.42
-86.90
-83.03
-75.30
-64.83
-53.06
-41.30
-30.48
-21.04
-13.03
-6.32
-0.72
3.85
7.45
10.09
11.89
13.09
14.07
15.15
16.59
18.41
20.52
22.79
25.20
27.77
30.45
33.05
35.12
36.16
35.84
34.16
31.49
28.37
25.27
22.38
19.58
16.67
13.50
10.12
6.71
3.43
0.36
-2.60
-5.67
-9.12
-13.23
-18.19
-24.10
-30.87
-38.05
-44.87
-50.23
-52.95
-52.12
-47.46
-39.50
-29.41
-18.73
-8.84
-0.61
5.75
10.54
14.29
17.47
20.21
22.41
23.86
24.44
24.26
23.68
23.17
23.11
23.61
24.54
25.57
26.43
26.94
27.11
27.01
26.67
25.98
24.79
23.02
20.72
18.09
15.35
12.55
9.65
6.50
3.01
-0.72
-4.46
-7.93
-11.04
-13.93
-17.03
-20.87
-25.91
-32.17
-39.18
-45.91
-51.06
-53.42
-52.22
-47.42
-39.64
-30.00
-19.75
-10.03
-1.57
5.28
10.58
14.58
17.63
20.03
21.91
23.24
23.87
23.76
23.00
21.93
21.05
20.75
21.24
22.41
23.85
25.13
25.87
25.89
25.20
23.92
22.16
20.03
17.58
14.86
11.91
8.73
5.28
1.57
-2.33
-6.27
-10.06
-13.61
-17.00
-20.50
-24.49
-29.33
-35.09
-41.51
-47.92
-53.33
-56.65
-56.96
-53.82
-47.43
-38.59
-28.47
-18.27
-8.89
-0.78
6.01
11.64
16.29
20.04
22.92
24.93
26.20
26.90
27.22
27.33
27.33
27.28
27.22
27.24
27.48
28.03
28.85
29.75
30.38
30.32
29.28
27.18
24.22
20.74
17.13
13.67
10.45
7.38
4.24
0.89
-2.70
-6.38
-9.90
-13.04
-15.81
-18.48
-21.49
-25.39
-30.59
-37.16
-44.72
-52.36
-58.78
-62.54
-62.47
-58.19
-50.20
-39.85
-28.85
-18.70
-10.21
-3.42
2.18
7.23
12.15
16.98
21.44
25.16
27.85
29.42
29.99
29.86
29.34
28.73
28.15
27.60
27.00
26.34
25.69
25.18
24.87
24.56
23.77
21.97
18.78
14.26
9.00
3.85
-0.37
-3.29
-5.03
-6.23
-7.72
-10.21
-14.02
-18.96
-24.31
-29.17
-32.68
-34.41
-34.47
-33.55
-32.83
-33.67
-37.38
-44.63
-55.12
-67.28
-78.49
-85.86
-87.27
-82.41
-72.94
-61.89
-52.39
-46.42
-44.28
-44.78
-46.16
-46.82
-45.92
-43.38
-39.64
-35.50
-31.98
-29.96
-29.82
-31.08
-32.42
-32.21
-29.31
-23.66
-16.37
-9.00
-2.75
2.14
6.19
10.26
14.85
20.03
25.60
31.53
38.15
45.96
55.23
65.71
76.66
87.12
96.29
103.87
110.08
115.62
121.27
127.58
134.53
141.38
146.80
149.28
147.63
141.34
130.66
116.22
98.73
78.80
57.10
34.61
12.72
-6.89
-22.75
-33.99
-40.58
-43.16
-42.64
-39.89
-35.58
-30.33
-24.91
-20.24
-17.25
-16.52
-17.99
-20.99
-24.47
-27.44
-29.30
-29.96
-29.70
-28.93
-27.91
-26.66
-25.09
-23.14
-20.94
-18.87
-17.36
-16.78
-17.27
-18.69
-20.67
-22.77
-24.64
-26.15
-27.48
-28.94
-30.90
-33.60
-37.02
-40.95
-45.08
-49.15
-53.05
-56.83
-60.62
-64.55
-68.66
-72.90
-77.14
-81.10
-84.27
-85.91
-85.08
-80.86
-72.77
-61.02
-46.59
-31.13
-16.40
-3.78
6.15
13.71
19.80
25.37
31.01
36.77
42.15
46.57
49.61
51.23
51.75
51.71
51.55
51.59
51.93
52.55
53.30
53.99
54.34
54.08
52.94
50.81
47.76
44.02
39.94
35.85
31.99
28.42
25.14
22.02
18.94
15.84
12.62
9.28
5.78
2.12
-1.75
-5.94
-10.63
-16.08
-22.46
-29.67
-37.21
-44.10
-49.12
-51.09
-49.25
-43.61
-34.89
-24.39
-13.53
-3.52
4.97
11.83
17.32
21.84
25.65
28.73
30.90
31.96
31.90
31.00
29.69
28.48
27.74
27.67
28.23
29.28
30.58
31.81
32.68
32.93
32.32
30.77
28.34
25.24
21.77
18.23
14.90
11.89
9.14
6.46
3.58
0.27
-3.53
-7.65
-11.77
-15.59
-18.95
-22.04
-25.25
-29.15
-34.19
-40.49
-47.61
-54.66
-60.38
-63.49
-63.11
-58.94
-51.44
-41.65
-30.81
-20.06
-10.14
-1.42
6.09
12.52
18.00
22.56
26.19
28.87
30.66
31.71
32.25
32.55
32.85
33.29
33.88
34.56
35.25
35.92
36.65
37.46
38.31
38.98
39.15
38.47
36.74
33.94
30.27
26.15
21.99
18.08
14.58
11.38
8.25
4.89
1.09
-3.18
-7.72
-12.19
-16.33
-20.07
-23.60
-27.31
-31.64
-36.87
-43.05
-49.93
-56.99
-63.42
-68.21
-70.33
-68.96
-63.81
-55.32
-44.54
-32.90
-21.66
-11.64
-3.09
4.16
10.43
15.90
20.60
24.42
27.33
29.39
30.80
31.79
32.59
33.34
34.11
34.99
36.05
37.36
38.93
40.56
41.89
42.48
41.96
40.19
37.35
33.85
30.15
26.60
23.26
20.01
16.67
13.13
9.47
5.89
2.58
-0.42
-3.22
-6.04
-9.03
-12.21
-15.45
-18.51
-21.22
-23.62
-25.93
-28.58
-32.02
-36.61
-42.45
-49.32
-56.57
-63.26
-68.22
-70.38
-69.05
-64.10
-56.00
-45.72
-34.41
-23.21
-12.98
-4.19
3.10
9.13
14.32
19.02
23.41
27.44
30.88
33.48
35.16
36.06
36.46
36.69
37.01
37.55
38.33
39.34
40.53
41.81
42.98
43.78
43.90
43.06
41.14
38.26
34.68
30.82
27.04
23.60
20.56
17.79
15.12
12.33
9.27
5.93
2.37
-1.31
-4.95
-8.46
-11.76
-14.86
-17.87
-20.98
-24.43
-28.56
-33.63
-39.73
-46.68
-53.85
-60.27
-64.75
-66.29
-64.30
-58.83
-50.52
-40.37
-29.47
-18.76
-8.87
-0.18
7.21
13.31
18.26
22.24
25.44
27.95
29.77
30.90
31.33
31.18
30.68
30.09
29.62
29.38
29.36
29.58
30.04
30.75
31.65
32.50
32.98
32.66
31.26
28.74
25.30
21.37
17.42
13.86
10.87
8.40
6.22
4.00
1.42
-1.69
-5.34
-9.40
-13.63
-17.80
-21.79
-25.57
-29.19
-32.84
-36.75
-41.27
-46.68
-52.98
-59.70
-65.83
-70.03
-71.04
-68.13
-61.42
-51.87
-40.87
-29.85
-19.82
-11.23
-4.09
1.86
6.91
11.24
14.95
17.99
20.30
21.81
22.58
22.78
22.73
22.78
23.13
23.89
24.98
26.23
27.49
28.61
29.38
29.60
29.03
27.54
25.19
22.29
19.24
16.37
13.77
11.29
8.64
5.62
2.23
-1.29
