1520259495.00
64.000000
-0.00
-0.00
-0.00
-0.00
-0.00
-0.00
-0.00
-0.00
-0.00
-0.00
0.00
0.01
0.01
-0.00
-0.03
-0.05
-0.05
0.00
0.13
0.36
0.66
1.01
1.37
1.72
2.06
2.40
2.79
3.24
3.80
4.42
5.06
5.66
6.20
6.68
7.15
7.68
8.31
9.14
10.09
11.04
11.88
12.56
13.14
13.76
14.65
15.96
17.91
20.32
22.90
25.38
27.58
29.57
31.68
34.32
37.81
42.54
48.15
54.10
59.83
64.97
69.58
74.14
79.34
85.71
93.76
103.00
112.62
121.73
129.77
136.75
143.30
150.75
157.77
166.64
177.95
191.79
206.97
220.57
228.25
225.36
208.53
176.87
132.76
80.05
23.07
-34.94
-92.44
-149.16
-205.23
-260.37
-313.74
-363.87
-409.83
-450.91
-486.50
-515.74
-537.23
-549.22
-549.96
-538.37
-514.21
-478.67
-433.88
-382.45
-327.02
-269.84
-212.63
-156.66
-102.95
-52.37
-5.90
35.58
71.43
101.35
125.50
144.38
158.69
169.15
176.37
180.75
182.57
182.07
179.51
175.23
169.65
163.18
156.15
148.81
141.30
133.69
126.02
118.33
110.69
103.16
95.80
88.68
81.83
75.25
68.95
62.95
57.25
51.86
46.78
42.03
37.59
33.45
29.61
26.07
22.81
19.83
17.11
14.67
12.48
10.54
8.83
7.35
6.07
4.97
4.05
3.27
2.62
2.09
1.65
1.30
1.01
0.79
0.62
0.48
0.38
0.31
0.26
0.24
0.22
0.22
0.23
0.26
0.28
0.32
0.36
0.40
0.44
0.49
0.53
0.58
0.64
0.69
0.75
0.81
0.88
0.96
1.04
1.13
1.23
1.34
1.47
1.62
1.78
1.95
2.16
2.38
2.62
2.89
3.19
3.52
3.88
4.27
4.71
5.17
5.68
6.22
6.80
7.42
8.09
8.80
9.56
10.37
11.21
12.11
13.05
14.04
15.10
16.21
17.40
18.63
19.91
21.20
22.44
23.56
24.45
25.01
25.10
24.63
23.50
21.65
19.08
15.87
12.04
7.81
3.35
-1.14
-5.42
-9.30
-12.63
-15.31
-17.30
-18.65
-19.38
-19.57
-19.29
-18.61
-17.57
-16.27
-14.80
-13.25
-11.69
-10.13
-8.61
-7.10
-5.53
-3.86
-2.10
-0.29
1.47
3.12
4.66
6.05
7.38
8.81
10.48
12.40
14.46
16.48
18.27
19.84
21.10
22.25
23.64
25.54
27.96
30.62
33.03
34.76
35.75
35.84
35.46
35.28
35.83
37.18
38.83
39.94
39.69
37.81
34.02
28.79
22.86
16.78
10.40
2.73
-8.08
-24.70
-45.55
-71.00
-101.10
-134.80
-169.27
-199.81
-220.90
-227.97
-219.19
-196.35
-165.01
-131.71
-101.86
-78.27
-61.07
-48.73
-39.38
-31.70
-25.01
-19.46
-14.88
-10.88
-7.12
-3.70
-1.18
-0.35
-1.78
-5.41
-10.87
-17.30
-23.90
-30.41
-37.36
-45.82
-56.78
-70.22
-84.52
-96.59
-102.46
-98.60
-83.30
-57.26
-23.43
13.97
50.79
83.93
111.59
133.18
148.76
158.68
163.40
163.61
160.23
154.38
147.15
139.35
131.41
123.44
115.46
107.57
100.07
93.30
87.47
82.48
77.77
72.54
65.98
57.60
47.40
35.90
23.85
11.91
0.40
-10.93
-22.80
-36.28
-52.38
-71.56
-93.29
-115.60
-135.20
-148.16
-150.97
-141.74
-121.00
-91.57
-57.72
-23.87
6.57
31.72
51.17
65.30
74.79
80.25
82.25
81.39
78.41
74.14
69.31
64.52
60.12
56.26
52.99
50.23
47.80
45.51
43.11
40.32
36.81
32.24
26.32
18.86
9.91
-0.28
-11.31
-22.87
-34.88
-47.56
-61.33
-76.50
-92.87
-109.39
-124.04
-134.06
-136.67
-129.87
-113.17
-87.90
-56.93
-23.82
8.04
36.19
59.37
77.24
90.05
98.25
102.32
102.83
100.46
95.96
90.08
83.40
76.34
69.22
62.29
55.90
50.45
46.36
43.80
42.60
42.12
41.32
39.10
34.60
27.56
18.40
8.02
-2.51
-12.42
-21.61
-30.72
-40.87
-53.20
-68.11
-84.68
-100.54
-112.26
-116.31
-110.27
-93.76
-68.64
-38.44
-7.17
21.74
46.14
65.17
78.83
87.47
91.53
91.51
88.10
82.28
75.15
67.75
60.72
54.21
48.02
41.86
35.61
29.52
24.05
19.63
16.41
14.06
11.84
8.87
4.47
-1.54
-8.77
-16.47
-23.87
-30.51
-36.53
-42.65
-50.00
-59.74
-72.62
-88.44
-105.83
-122.25
-134.44
-139.25
-134.52
-119.77
-96.43
-67.38
-36.17
-6.15
20.26
41.73
57.87
68.92
75.43
78.08
77.66
74.99
70.84
65.78
60.12
53.92
47.12
39.83
32.36
25.29
19.23
14.60
11.33
8.91
6.43
2.99
-1.99
-8.40
-15.53
-22.26
-27.64
-31.27
-33.65
-35.99
-39.85
-46.62
-57.04
-70.95
-87.10
-103.30
-116.59
-123.87
-122.55
-111.38
-90.95
-63.69
-33.28
-3.63
22.07
42.01
55.79
64.04
67.94
68.70
67.41
64.89
61.74
58.32
54.73
50.96
46.89
42.51
38.00
33.78
30.26
27.74
26.05
24.60
22.45
18.71
12.82
4.89
-4.31
-13.75
-22.45
-30.01
-36.80
-43.81
-52.33
-63.34
-77.04
-92.42
-107.25
-118.48
-122.93
-118.26
-103.68
-80.30
-50.81
-18.72
12.57
40.47
63.54
81.30
93.91
101.87
105.87
106.79
105.73
103.83
102.12
101.26
101.39
102.23
103.28
104.18
104.89
105.80
107.58
110.78
115.59
121.57
127.72
132.82
135.94
136.91
136.38
135.65
136.03
138.15
141.43
144.10
143.42
136.51
121.05
96.10
62.61
23.61
-16.05
-50.69
-75.01
-85.46
-81.08
-63.47
-36.04
-2.75
32.86
68.11
100.96
129.65
152.49
168.02
175.49
175.28
168.96
158.79
147.25
136.31
127.22
120.45
115.84
112.82
110.57
108.26
105.04
100.18
93.06
83.11
69.89
53.19
33.27
10.96
-12.37
-35.19
-56.26
-75.13
-92.27
-108.92
-126.48
-145.93
-167.26
-189.50
-210.92
-229.50
-243.45
-251.52
-253.21
-248.77
-239.34
-226.87
-213.97
-203.33
-196.92
-195.32
-197.27
-200.09
-200.46
-195.48
-183.46
-164.20
-138.83
-109.50
-78.92
-50.17
-26.14
-8.99
0.54
3.50
2.50
0.80
0.99
4.01
8.85
13.18
14.57
11.70
4.99
-3.63
-11.71
-17.28
-19.71
-19.73
-18.94
-18.92
-20.59
-23.99
-28.54
-33.47
-38.19
-42.48
-46.23
-49.27
-51.17
-51.51
-50.14
-47.58
-44.88
-43.36
-43.96
-46.79
-51.12
-55.75
-59.51
-61.87
-63.08
-64.10
-66.13
-70.21
-76.74
-85.34
-94.81
-103.42
-109.54
-112.07
-110.92
-107.22
-103.22
-102.13
-107.62
-123.22
-151.32
-191.94
-241.96
-295.24
-344.17
-381.92
-404.80
-413.22
-411.12
-403.90
-396.15
-390.17
-386.04
-382.54
-378.43
-373.17
-366.68
-358.88
-349.22
-336.77
-320.76
-301.14
-278.76
-255.04
-231.51
-209.02
-187.66
-166.79
-145.57
-123.43
-100.42
-77.14
-54.37
-32.66
-12.00
8.08
28.32
49.20
70.71
92.34
113.39
133.38
152.38
171.01
190.15
210.48
232.14
254.66
277.17
298.89
319.49
339.29
359.15
380.39
404.58
433.24
467.12
505.32
544.67
579.86
604.72
614.17
606.09
582.08
546.64
505.38
463.01
422.37
384.55
349.74
318.11
290.05
265.77
244.80
225.84
207.19
187.39
165.87
143.00
119.96
98.09
78.37
61.11
45.92
31.86
17.92
3.43
-11.62
-26.42
-39.71
-50.20
-57.16
-60.66
-61.54
-60.96
-59.96
-59.01
-57.98
-56.37
-53.76
-50.06
-45.59
-40.91
-36.46
-32.46
-28.93
-25.73
-22.84
-20.35
-18.43
-17.26
-16.88
-17.17
-17.92
-18.88
-19.86
-20.73
-21.50
-22.22
-23.03
-24.08
-25.51
-27.39
-29.70
-32.36
-35.14
-37.80
-40.06
-41.74
-42.75
-43.25
-43.53
-44.02
-45.11
-47.04
-49.79
-53.08
-56.39
-59.25
-61.28
-62.38
-62.70
-62.52
-62.04
-61.25
-59.96
-57.91
-54.97
-51.27
-47.23
-43.34
-39.97
-37.23
-34.93
-32.76
-30.46
-27.95
-25.31
-22.72
-20.26
-17.95
-15.68
-13.40
-11.07
-8.86
-6.98
-5.57
-4.71
-4.35
-4.36
-4.69
-5.40
-6.69
-8.80
-11.93
-16.13
-21.24
-26.93
-32.76
-38.26
-43.03
-46.76
-49.31
-50.61
-50.70
-49.62
-47.40
-43.98
-39.26
-33.16
-25.69
-17.03
-7.46
2.64
12.76
22.42
31.15
38.65
44.81
49.75
53.80
57.33
60.53
63.34
65.44
66.49
66.31
65.07
63.25
61.36
59.84
58.89
58.61
59.06
60.29
62.21
64.49
66.43
67.18
65.99
62.43
56.51
48.56
39.04
28.41
17.19
6.02
-4.37
-13.25
-20.12
-24.94
-28.12
-30.34
-32.24
-34.23
-36.47
-38.95
-41.66
-44.68
-48.09
-51.90
-55.94
-59.91
-63.40
-66.06
-67.62
-67.99
-67.21
-65.44
-62.95
-60.06
-57.06
-54.20
-51.54
-49.02
-46.43
-43.60
-40.47
-37.20
-34.12
-31.67
-30.18
-29.74
-30.15
-30.89
-31.40
-31.22
-30.11
-28.10
-25.39
-22.21
-18.79
-15.36
-12.10
-9.26
-7.02
-5.45
-4.48
-4.01
-3.86
-3.95
-4.22
-4.68
-5.28
-5.98
-6.68
-7.32
-7.83
-8.15
-8.25
-8.13
-7.90
-7.74
-7.88
-8.48
-9.63
-11.17
-12.89
-14.51
-15.93
-17.23
-18.67
-20.58
-23.19
-26.58
-30.63
-35.11
-39.71
-44.06
-47.69
-50.00
-50.31
-48.14
-43.30
-36.07
-27.08
-17.16
-7.12
2.40
10.90
18.00
23.38
26.85
28.38
28.22
26.81
24.65
22.20
19.77
17.55
15.57
13.80
12.10
10.33
8.38
6.21
3.92
1.64
-0.55
-2.71
-5.01
-7.66
-10.82
-14.51
-18.65
-23.17
-28.00
-33.13
-38.49
-43.86
-48.83
-52.76
-54.96
-54.74
-51.61
-45.31
-36.03
-24.30
-11.11
2.39
15.00
25.84
34.37
40.48
44.32
46.18
46.42
45.33
43.20
40.36
37.17
33.94
30.97
28.34
25.94
23.47
20.55
16.84
12.17
6.68
0.64
-5.51
-11.50
-17.23
-22.82
-28.61
-34.96
-42.27
-50.82
-60.71
-71.59
-82.53
-91.92
-97.69
-97.82
-91.04
-77.31
-57.93
-35.14
-11.42
11.18
31.41
48.70
62.88
73.82
81.36
85.47
86.43
84.98
82.14
78.85
75.74
72.98
70.40
67.66
64.47
60.72
56.42
51.62
46.40
40.81
34.82
28.39
21.44
13.92
5.85
-2.67
-11.49
-20.57
-30.06
-40.34
-51.77
-64.52
-78.11
-91.31
-102.18
-108.50
-108.37
-100.81
-86.04
-65.50
-41.39
-16.18
7.93
29.35
47.16
60.98
70.79
76.75
79.18
78.56
75.57
70.98
65.62
60.19
55.25
51.19
48.28
46.63
46.25
46.91
48.14
49.28
49.57
48.29
44.98
39.50
32.07
23.23
13.73
4.32
-4.44
-12.40
-19.81
-27.34
-35.73
-45.48
-56.40
-67.48
-76.90
-82.46
-82.22
-75.07
-61.18
-41.93
-19.47
3.82
25.92
45.38
61.38
73.50
81.64
85.95
86.87
85.14
81.68
77.38
72.86
68.42
64.05
59.57
54.89
50.10
45.48
41.38
38.08
35.62
33.66
31.57
28.59
24.20
18.27
11.27
3.92
-2.98
-9.03
-14.43
-19.83
-26.12
-34.00
-43.71
-54.78
-66.07
-75.95
-82.43
-83.69
-78.50
-66.60
-48.91
-27.37
-4.47
17.37
36.24
51.15
61.82
68.49
71.59
71.63
69.06
64.48
58.58
52.04
45.43
39.04
32.85
26.70
20.49
14.29
8.40
3.04
-1.82
-6.65
-12.27
-19.48
-28.72
-39.70
-51.55
-63.04
-73.09
-81.30
-88.06
-94.48
-101.95
-111.69
-124.17
-138.70
-153.19
-164.32
-168.04
-160.58
-139.72
-105.70
-61.57
-12.45
35.91
78.76
113.58
140.25
160.38
176.18
189.44
201.02
210.91
218.67
223.75
225.75
224.37
219.52
211.42
200.89
189.43
179.11
172.04
169.68
172.23
178.31
185.14
189.23
187.23
176.99
158.13
132.21
102.25
71.72
43.56
19.33
-0.87
-18.05
-33.56
-48.35
-62.63
-75.94
-87.50
-96.50
-102.29
-104.44
-102.77
-97.49
-89.40
-79.87
-70.69
-63.52
-59.35
-58.19
-59.10
-60.64
-61.51
-60.93
-58.85
-55.76
-52.28
-48.77
-45.26
-41.49
-37.18
-32.33
-27.27
-22.50
-18.50
-15.47
-13.29
-11.59
-10.07
-8.63
-7.54
-7.31
-8.49
-11.45
-16.30
-22.79
-30.45
-38.69
-46.92
-54.65
-61.50
-67.23
-71.78
-75.20
-77.70
-79.57
-81.17
-82.88
-85.06
-88.04
-92.03
-97.11
-103.07
-109.35
-115.09
-119.36
-121.49
-121.61
-120.70
-120.41
-122.42
-127.79
-136.58
-148.00
-160.96
-174.66
-189.11
-205.04
-223.71
-246.66
-275.49
-311.49
-354.78
-403.38
-452.54
-495.35
-524.45
-534.67
-524.85
-498.22
-460.92
-419.46
-378.56
-340.31
-304.85
-271.67
-240.76
-212.70
-188.11
-166.86
-147.93
-129.85
-111.47
-92.55
-73.72
-56.20
-40.99
-28.47
-18.11
-8.88
0.32
10.20
20.76
31.43
41.43
50.16
57.46
63.66
69.33
74.99
80.90
87.01
93.12
99.08
104.97
111.06
117.69
125.03
132.99
141.24
149.38
157.24
164.96
173.01
181.93
192.08
203.38
215.38
227.39
238.86
249.57
259.80
270.26
282.00
296.33
314.40
336.64
362.06
387.88
409.82
423.31
425.06
414.40
393.58
366.90
339.06
313.57
292.01
274.21
259.10
245.49
232.53
219.65
206.46
192.68
178.31
163.79
149.85
137.24
126.49
117.64
110.32
103.95
97.95
91.97
85.82
79.51
73.16
66.88
60.73
54.63
48.42
41.94
35.10
28.04
21.05
14.48
8.68
3.93
0.36
-2.04
-3.44
-4.12
-4.43
-4.69
-5.02
-5.48
-6.01
-6.57
-7.19
-7.88
-8.52
-8.89
-8.70
-7.76
-6.19
-4.39
-2.85
-1.98
-1.91
-2.48
-3.36
-4.29
-5.14
-5.94
-6.75
-7.58
-8.24
-8.60
-8.57
-8.30
-8.14
-8.53
-9.76
-11.87
-14.54
-17.21
-19.21
-20.07
-19.61
-18.02
-15.72
-13.18
-10.72
-8.53
-6.58
-4.82
-3.23
-1.85
-0.75
-0.02
0.32
0.26
-0.15
-0.88
-1.79
-2.77
-3.68
-4.41
-4.93
-5.29
-5.56
-5.83
-6.15
-6.53
-6.93
-7.36
-7.75
-8.06
-8.22
-8.18
-7.93
-7.55
-7.20
-7.10
-7.46
-8.43
-10.11
-12.40
-15.09
-17.81
-20.16
-21.76
-22.42
-22.07
-20.79
-18.77
-16.21
-13.35
-10.46
-7.80
-5.57
-3.85
-2.62
-1.74
-1.06
-0.45
0.11
0.61
0.91
0.89
0.28
-1.13
-3.50
-6.77
-10.58
-14.38
-17.60
-19.81
-20.89
-21.01
-20.48
-19.70
-18.99
-18.54
-18.33
-18.17
-17.79
-17.01
-15.83
-14.48
-13.35
-12.77
-12.84
-13.36
-13.92
-14.05
-13.49
-12.16
-10.19
-7.75
-4.91
-1.65
2.03
6.07
10.17
13.89
16.73
18.26
18.32
17.04
14.78
11.99
9.11
6.40
3.99
1.94
0.18
-1.31
-2.63
-3.87
-5.17
-6.70
-8.56
-10.76
-13.22
-15.73
-17.99
-19.71
-20.67
-20.75
-20.05
-18.87
-17.65
-16.86
-16.89
-17.96
-20.09
-23.07
-26.48
-29.78
-32.31
-33.42
-32.61
-29.63
-24.56
-17.79
-10.09
-2.44
4.06
8.42
10.06
9.00
5.96
2.20
-0.99
-2.67
-2.60
-1.24
0.56
1.88
2.14
1.10
-1.19
-4.50
-8.44
-12.52
-16.07
-18.45
-19.28
-18.60
-16.94
-15.11
-13.86
-13.64
-14.47
-16.15
-18.39
-21.04
-24.11
-27.69
-31.76
-36.19
-40.72
-44.98
-48.70
-51.70
-53.94
-55.61
-57.00
-58.42
-60.01
-61.63
-62.91
-63.47
-63.15
-62.15
-60.96
-60.16
-60.13
-60.87
-61.96
-62.75
-62.58
-61.11
-58.35
-54.67
-50.56
-46.41
-42.38
-38.42
-34.38
-30.26
-26.28
-22.80
-20.08
-17.96
-15.87
-13.14
-9.41
-5.04
-1.08
1.14
0.58
-3.09
-9.44
-17.54
-26.37
-35.06
-42.90
-49.06
-52.54
-52.19
-47.14
-37.24
-23.31
-6.96
9.87
25.48
38.89
49.82
58.52
65.40
70.76
74.65
76.98
77.49
75.89
72.01
65.93
58.03
49.07
39.96
31.51
24.23
18.28
13.60
10.06
7.62
6.28
6.04
6.81
8.49
10.98
14.18
17.84
21.39
23.83
23.92
20.56
13.42
3.34
-7.65
-16.73
-21.17
-19.08
-10.12
4.56
22.64
41.45
58.52
72.15
81.42
86.22
87.03
84.75
80.48
75.26
69.82
64.46
59.12
53.57
47.73
41.65
35.62
29.88
24.55
19.46
14.26
8.64
2.40
-4.40
-11.54
-18.74
-25.69
-32.16
-37.89
-42.68
-46.42
-49.24
-51.52
-53.74
-56.21
-58.69
-60.29
-59.53
-54.87
-45.22
-30.38
-11.10
11.20
34.85
58.37
80.62
100.83
118.49
133.25
144.83
153.05
157.85
159.34
157.88
154.04
148.46
141.68
133.89
124.81
113.90
100.65
84.98
67.32
48.61
29.90
12.09
-4.37
-19.39
-33.09
-45.57
-56.84
-66.93
-75.97
-84.29
-92.21
-99.73
-106.31
-110.73
-111.54
-107.53
-98.33
-84.66
-68.19
-51.04
-35.08
-21.47
-10.67
-2.61
2.86
5.73
5.86
3.16
-2.06
-9.11
-16.95
-24.58
-31.32
-36.93
-41.65
-45.93
-50.26
-55.05
-60.52
-66.72
-73.37
-79.89
-85.39
-89.03
-90.31
-89.42
-87.31
-85.39
-85.08
-87.05
-90.81
-94.62
-95.95
-92.25
-81.88
-64.78
-42.62
-18.36
4.66
23.62
36.84
43.89
45.32
42.22
35.90
27.87
19.76
13.28
9.82
10.14
14.01
20.52
28.62
37.71
47.95
59.89
73.81
89.07
104.32
118.18
130.14
140.94
152.11
164.93
179.46
194.33
207.11
215.21
216.45
209.52
194.28
171.84
144.67
116.23
90.26
69.68
55.82
48.28
45.49
45.48
46.50
47.18
46.21
42.28
34.38
22.20
6.60
-10.55
-26.90
-40.43
-50.01
-55.65
-58.33
-59.56
-60.74
-62.77
-65.74
-69.16
-72.28
-74.45
-75.49
-75.71
-75.94
-77.24
-80.59
-86.49
-94.57
-103.47
-111.20
-115.78
-115.99
-111.76
-103.92
-93.64
-81.78
-68.69
-54.54
-39.74
-25.29
-12.49
-2.49
4.30
8.28
10.40
11.62
12.56
13.35
13.86
13.90
13.41
12.57
11.68
11.07
10.99
11.53
12.45
13.30
13.50
12.56
10.33
7.08
3.34
-0.33
-3.58
-6.43
-9.19
-12.32
-16.14
-20.59
-25.18
-29.04
-31.23
-31.06
-28.42
-23.97
-18.97
-14.93
-13.19
-14.59
-19.38
-27.30
-37.64
-49.38
-61.16
-71.31
-78.13
-80.25
-77.13
-69.35
-58.54
-46.97
-37.02
-30.50
-28.41
-30.85
-37.11
-45.91
-55.56
-64.16
-69.75
-70.45
-64.79
-51.94
-31.86
-5.41
25.88
60.02
94.95
128.79
160.07
187.78
211.16
229.40
241.34
245.36
239.65
222.93
195.38
159.34
119.27
80.86
49.45
28.43
18.37
17.30
21.84
28.56
34.89
39.21
40.51
37.93
30.72
18.58
1.96
-17.89
-39.34
-60.97
-81.96
-102.07
-121.24
-139.28
-155.70
-169.87
-181.24
-189.47
-194.40
-195.97
-194.23
-189.46
-182.20
-173.17
-162.98
-151.93
-140.03
-127.50
-115.05
-104.01
-95.55
-89.80
-85.14
-78.54
-66.87
-48.61
-24.81
1.14
25.03
43.59
55.70
62.26
65.08
65.73
64.79
62.23
58.16
53.34
49.16
47.04
47.64
50.54
54.52
58.08
60.25
60.84
60.43
59.88
59.94
60.90
62.57
64.44
65.95
66.76
66.80
66.33
65.74
65.37
65.32
65.36
65.04
63.93
61.83
58.81
55.14
51.02
46.44
41.27
35.52
29.53
23.92
19.41
16.36
14.61
13.48
12.10
9.89
6.72
2.98
-0.82
-4.26
-7.27
-9.99
-12.69
-15.55
-18.67
-22.13
-26.07
-30.62
-35.79
-41.23
-46.17
-49.58
-50.48
-48.36
-43.45
-36.57
-28.81
-21.08
-13.82
-7.14
-0.95
4.58
9.10
12.18
13.55
13.30
11.69
8.94
4.97
-0.51
-7.73
-16.55
-26.20
-35.56
-43.54
-49.47
-53.30
-55.50
-56.60
-57.03
-56.95
-56.41
-55.53
-54.62
-54.09
-54.31
-55.57
-58.09
-62.10
-67.73
-74.69
-82.07
-88.15
-90.91
-88.59
-80.35
-66.55
-48.48
-27.85
-6.16
15.52
36.49
56.12
73.63
88.12
98.77
105.23
107.71
107.01
104.22
100.52
96.85
93.81
91.54
89.73
87.79
85.00
80.70
74.48
66.34
56.61
45.83
34.50
22.87
11.00
-1.25
-13.92
-26.81
-39.37
-50.81
-60.28
-67.11
-71.03
-72.24
-71.33
-69.09
-66.30
-63.58
-61.35
-59.69
-58.46
-57.22
-55.47
-52.85
-49.31
-45.33
-41.75
-39.50
-39.07
-40.23
-42.06
-43.41
-43.40
-41.85
-39.26
-36.43
-34.02
-32.27
-30.99
-29.80
-28.48
-27.15
-26.36
-26.87
-29.40
-34.18
-40.88
-48.44
-55.47
-60.64
-63.20
-63.20
-61.39
-58.77
-56.05
-53.45
-50.65
-47.19
-42.75
-37.30
-31.02
-23.97
-16.12
-7.36
2.19
12.09
21.73
30.66
39.06
47.75
57.89
70.28
84.80
100.30
114.98
127.20
136.06
141.73
145.09
147.18
148.75
150.07
151.13
151.89
152.47
153.02
153.55
153.74
152.98
150.57
145.97
138.87
129.25
117.29
103.24
87.40
70.10
51.70
32.63
13.47
-4.99
-21.68
-35.50
-45.57
-51.58
-53.99
-53.87
-52.47
-50.83
-49.42
-48.27
-47.24
-46.36
-45.82
-45.89
-46.57
-47.56
-48.37
-48.60
-48.14
-47.21
-46.18
-45.30
-44.61
-43.93
-43.00
-41.67
-39.92
-37.91
-35.80
-33.75
-31.78
-29.77
-27.57
-25.06
-22.29
-19.42
-16.77
-14.60
-13.06
-12.11
-11.53
-11.07
-10.50
-9.67
-8.48
-6.95
-5.21
-3.46
-2.08
-1.43
-1.76
-3.00
-4.77
-6.55
-7.81
-8.32
-8.12
-7.49
-6.78
-6.34
-6.34
-6.86
-7.90
-9.39
-11.29
-13.55
-16.08
-18.69
-21.10
-22.91
-23.74
-23.42
-22.05
-20.00
-17.82
-16.06
-15.15
-15.21
-16.13
-17.58
-19.15
-20.51
-21.57
-22.44
-23.29
-24.21
-25.07
-25.49
-25.04
-23.52
-21.04
-18.01
-14.95
-12.19
-9.82
-7.67
-5.54
-3.40
-1.37
0.34
1.52
2.02
1.87
1.23
0.29
-0.67
-1.43
-1.85
-1.89
-1.68
-1.44
-1.46
-1.86
-2.59
-3.36
-3.74
-3.39
-2.27
-0.63
1.05
2.36
3.11
3.40
3.45
3.49
3.56
3.55
3.31
2.74
1.86
0.73
-0.58
-2.06
-3.80
-5.78
-7.88
-9.85
-11.35
-12.12
-12.11
-11.45
-10.46
-9.50
-8.87
-8.63
-8.71
-8.98
-9.44
-10.23
-11.56
-13.49
-15.91
-18.51
-21.03
-23.40
-25.80
-28.52
-31.79
-35.64
-39.92
-44.48
-49.26
-54.35
-59.85
-65.76
-71.99
-78.42
-85.00
-91.74
-98.60
-105.34
-111.62
-117.12
-121.80
-125.88
-129.72
-133.54
-137.07
-139.51
-139.65
-136.00
-127.15
-112.07
-90.31
-62.24
-29.03
7.53
45.41
82.53
116.93
146.71
170.20
186.27
194.76
196.79
194.53
190.49
186.50
182.90
178.60
171.69
160.59
144.87
125.58
104.83
85.18
68.92
57.63
51.91
51.17
53.52
56.13
56.00
51.06
41.10
28.23
16.23
9.09
9.36
16.96
29.21
42.08
51.96
57.18
58.37
57.65
57.18
57.91
59.17
59.26
56.45
49.94
39.95
27.42
13.41
-1.18
-15.59
-29.06
-40.75
-50.02
-56.75
-61.45
-64.99
-68.18
-71.38
-74.39
-76.70
-77.69
-76.83
-73.64
-67.62
-58.35
-45.72
-30.27
-13.35
3.10
17.04
26.84
31.77
32.05
28.53
22.32
14.38
5.31
-4.56
-14.98
-25.54
-35.45
-43.51
-48.31
-48.50
-43.37
-33.27
-19.86
-5.73
6.36
14.44
18.01
18.05
16.42
14.88
14.34
14.74
15.41
15.84
16.07
16.56
17.73
19.47
21.09
21.76
21.12
19.53
17.86
16.88
16.62
16.35
15.00
11.89
7.21
1.93
-2.81
-6.51
-9.62
-13.32
-18.85
-26.81
-36.73
-47.33
-56.99
-64.39
-68.84
-70.25
-68.91
-65.16
-59.24
-51.41
-42.12
-32.17
-22.49
-13.94
-6.97
-1.49
2.92
6.67
9.93
12.59
14.62
16.28
18.16
20.81
24.32
28.02
30.77
31.53
30.14
27.46
25.07
24.39
25.92
28.92
31.80
32.89
31.23
26.94
20.96
14.47
8.24
2.39
-3.46
-9.83
-16.91
-24.43
-31.78
-38.38
-43.98
-48.78
-53.27
-57.79
-62.21
-65.72
-67.10
-65.22
-59.67
-51.00
-40.57
-29.78
-19.26
-8.62
3.10
16.47
30.72
43.57
52.09
54.15
49.65
40.85
31.50
25.12
23.67
26.87
32.76
38.83
43.17
45.06
44.76
42.96
