1520267928.00
64.000000
-0.00
-0.00
-0.00
-0.00
-0.00
-0.00
-0.00
-0.00
-0.00
-0.00
0.00
0.01
0.01
-0.00
-0.03
-0.05
-0.05
0.00
0.13
0.36
0.66
1.01
1.37
1.72
2.06
2.40
2.79
3.24
3.80
4.42
5.06
5.66
6.20
6.68
7.15
7.68
8.31
9.14
10.09
11.04
11.88
12.56
13.14
13.76
14.65
15.96
17.91
20.32
22.90
25.38
27.58
29.57
31.68
34.32
37.81
42.54
48.15
54.10
59.83
64.97
69.58
74.14
79.34
85.71
93.76
103.00
112.62
121.73
129.77
136.75
143.30
150.75
157.77
166.64
177.95
191.79
206.97
220.57
228.25
225.36
208.53
176.87
132.76
80.05
23.07
-34.94
-92.44
-149.16
-205.23
-260.37
-313.74
-363.87
-409.83
-450.91
-486.50
-515.74
-537.23
-549.22
-549.96
-538.37
-514.21
-478.67
-433.88
-382.45
-327.02
-269.84
-212.63
-156.66
-102.95
-52.37
-5.90
35.58
71.43
101.35
125.50
144.38
158.69
169.15
176.37
180.75
182.57
182.07
179.51
175.23
169.65
163.18
156.15
148.81
141.30
133.69
126.02
118.33
110.69
103.16
95.80
88.68
81.83
75.25
68.95
62.95
57.25
51.86
46.78
42.03
37.59
33.45
29.61
26.07
22.81
19.83
17.11
14.67
12.48
10.54
8.83
7.35
6.07
4.97
4.05
3.27
2.62
2.09
1.65
1.30
1.01
0.79
0.61
0.48
0.37
0.28
0.22
0.17
0.14
0.11
0.10
0.09
0.09
0.09
0.10
0.12
0.14
0.17
0.20
0.24
0.28
0.32
0.37
0.41
0.46
0.51
0.55
0.60
0.66
0.72
0.80
0.88
0.95
0.99
1.01
1.01
1.02
1.07
1.16
1.30
1.49
1.68
1.87
2.04
2.20
2.39
2.63
2.94
3.34
3.78
4.23
4.63
4.97
5.29
5.65
6.11
6.74
7.50
8.33
9.10
9.70
10.09
10.35
10.66
11.22
12.13
13.38
14.77
15.99
16.76
16.91
16.51
15.75
14.87
13.99
12.98
11.45
8.90
4.96
-0.46
-6.97
-13.87
-20.43
-26.09
-30.69
-34.42
-37.69
-40.83
-44.13
-47.74
-51.72
-55.80
-59.22
-60.58
-58.28
-51.19
-39.40
-24.51
-9.21
3.75
12.56
16.95
17.90
16.87
15.04
12.96
10.71
8.36
6.24
4.87
4.62
5.39
6.54
7.18
6.55
4.45
1.45
-1.28
-2.30
-0.44
4.67
12.33
20.95
28.59
33.66
35.47
34.39
31.54
28.18
25.20
22.86
20.92
18.99
16.94
14.92
13.30
12.41
12.37
13.04
14.13
15.40
16.73
18.15
19.73
21.42
23.07
24.41
25.19
25.24
24.52
23.07
21.05
18.70
16.27
14.02
12.11
10.52
9.07
7.43
5.30
2.55
-0.69
-4.05
-7.07
-9.46
-11.26
-12.80
-14.60
-17.08
-20.39
-24.40
-28.79
-33.18
-37.33
-41.13
-44.63
-47.98
-51.43
-55.33
-60.08
-65.99
-72.95
-80.22
-86.42
-89.86
-88.99
-82.95
-71.88
-56.88
-39.74
-22.39
-6.52
6.73
16.87
24.00
28.64
31.50
33.27
34.48
35.42
36.19
36.80
37.33
37.91
38.66
39.69
40.99
42.49
44.06
45.55
46.84
47.79
48.30
48.27
47.62
46.25
44.14
41.27
37.78
33.93
30.04
26.44
23.35
20.77
18.50
16.24
13.72
10.85
7.73
4.55
1.52
-1.34
-4.23
-7.47
-11.33
-15.92
-21.07
-26.48
-31.84
-36.99
-41.92
-46.70
-51.44
-56.16
-61.00
-66.23
-72.23
-79.32
-87.38
-95.60
-102.45
-106.09
-104.90
-98.14
-86.24
-70.63
-53.36
-36.37
-21.09
-8.21
2.23
10.49
16.92
21.78
25.30
27.76
29.56
31.11
32.77
34.73
36.95
39.33
41.68
43.95
46.15
48.32
50.46
52.44
54.05
55.07
55.26
54.49
52.76
50.20
47.12
43.86
40.78
38.09
35.83
33.92
32.12
30.21
27.98
25.31
22.15
18.57
14.70
10.69
6.72
2.90
-0.78
-4.42
-8.22
-12.36
-16.99
-22.12
-27.66
-33.39
-39.03
-44.34
-49.22
-53.82
-58.53
-63.94
-70.48
-78.29
-86.86
-95.07
-101.29
-103.81
-101.30
-93.26
-80.26
-63.77
-45.82
-28.41
-13.05
-0.46
9.34
16.72
22.16
26.05
28.66
30.33
31.46
32.54
34.03
36.14
38.79
41.72
44.61
47.30
49.77
52.08
54.21
56.00
57.19
57.55
56.98
55.54
53.39
50.69
47.56
44.15
40.58
37.05
33.77
30.91
28.52
26.48
24.58
22.54
20.15
17.30
14.02
10.47
6.79
3.09
-0.64
-4.53
-8.75
-13.48
-18.71
-24.35
-30.14
-35.84
-41.24
-46.28
-51.10
-56.00
-61.44
-67.90
-75.67
-84.54
-93.66
-101.48
-106.14
-105.99
-100.15
-88.92
-73.68
-56.48
-39.34
-23.79
-10.59
0.25
9.03
16.19
22.01
26.65
30.17
32.68
34.32
35.39
36.16
36.91
37.81
38.95
40.31
41.81
43.44
45.22
47.22
49.55
52.25
55.24
58.26
60.96
62.98
64.07
64.16
63.34
61.80
59.74
57.42
55.10
53.07
51.61
50.89
50.88
51.30
51.65
51.40
50.19
47.92
44.78
41.18
37.51
34.03
30.71
27.24
23.13
17.91
11.37
3.65
-4.70
-12.98
-20.55
-27.13
-32.91
-38.48
-44.63
-52.02
-60.87
-70.73
-80.41
-88.21
-92.35
-91.52
-85.36
-74.63
-60.99
-46.51
-33.02
-21.69
-12.82
-6.05
-0.67
3.98
8.26
12.22
15.66
18.42
20.52
22.24
23.96
26.06
28.64
31.52
34.37
36.86
38.89
40.55
41.98
43.16
43.86
43.75
42.57
40.39
37.58
34.70
32.25
30.41
29.08
28.01
26.93
25.71
24.35
22.86
21.22
19.34
17.14
14.59
11.69
8.48
4.98
1.17
-2.94
-7.31
-11.92
-16.77
-21.90
-27.38
-33.21
-39.25
-45.21
-50.76
-55.70
-60.07
-64.25
-68.83
-74.49
-81.66
-90.20
-99.19
-106.98
-111.58
-111.28
-105.28
-93.97
-78.87
-62.07
-45.61
-30.89
-18.52
-8.40
-0.11
6.78
12.53
17.23
20.98
23.95
26.47
28.89
31.52
34.40
37.37
40.20
42.76
45.11
47.43
49.89
52.40
54.62
56.10
56.47
55.62
53.75
51.19
48.28
45.23
42.17
39.18
36.36
33.81
31.60
29.67
27.86
26.04
24.01
21.60
18.68
15.23
11.32
7.18
3.09
-0.73
-4.27
-7.74
-11.50
-15.82
-20.71
-25.94
-31.05
-35.69
-39.70
-43.26
-46.79
-50.84
-55.93
-62.42
-70.34
-79.26
-88.13
-95.43
-99.40
-98.61
-92.39
-81.21
-66.59
-50.61
-35.27
-21.94
-11.08
-2.42
4.69
10.84
16.34
21.21
25.36
28.77
31.58
34.06
36.45
38.89
41.35
43.69
45.67
47.10
47.90
48.14
48.01
47.77
47.57
47.42
47.13
46.46
45.25
43.53
41.55
39.58
37.83
36.34
34.97
33.52
31.89
30.03
28.00
25.80
23.28
20.13
15.98
10.50
3.61
-4.55
-13.69
-23.63
-34.51
-46.77
-60.88
-76.80
-93.70
-109.96
-123.66
-133.26
-138.18
-138.89
-136.60
-132.77
-128.81
-125.83
-124.64
-125.55
-128.23
-131.49
-133.57
-132.67
-127.57
-118.10
-105.12
-90.01
-74.00
-57.87
-41.88
-25.98
-10.14
5.68
21.39
36.84
51.87
66.38
80.52
94.63
109.11
124.14
139.61
154.76
168.25
178.69
185.16
187.73
187.42
185.68
183.82
182.98
183.50
184.82
185.65
184.37
179.38
169.33
153.40
131.57
105.78
78.58
52.03
27.04
3.48
-19.05
-40.60
-60.64
-78.32
-91.26
-97.69
-97.81
-93.47
-87.13
-80.74
-75.32
-70.93
-66.58
-58.30
-42.00
-15.89
18.72
58.07
97.95
135.38
169.43
188.21
183.95
157.18
116.68
73.02
32.71
-1.64
-28.98
-48.92
-62.13
-68.62
-67.90
-63.12
-57.58
-53.75
-52.53
-53.33
-55.23
-57.78
-59.53
-59.65
-58.54
-57.87
-58.65
-60.89
-63.64
-65.42
-65.05
-60.81
-51.82
-38.48
-22.05
-4.17
12.64
25.53
32.92
35.29
35.18
34.86
35.42
36.81
38.36
39.20
38.79
37.66
35.34
31.64
26.30
19.46
11.74
4.14
-2.37
-7.17
-10.27
-12.81
-14.74
-17.04
-20.49
-25.25
-30.79
-36.30
-41.07
-44.71
-47.51
-50.03
-53.15
-57.48
-63.21
-70.12
-77.63
-84.80
-90.24
-92.49
-90.22
-83.04
-71.51
-57.16
-41.99
-27.85
-15.86
-6.12
1.97
9.37
16.62
23.90
30.94
37.31
42.61
46.65
49.43
51.03
51.51
50.86
49.08
46.38
43.16
39.94
37.19
35.10
33.51
31.95
29.84
26.77
22.64
17.66
12.19
6.57
1.06
-4.11
-8.62
-12.12
-14.26
-14.99
-14.62
-13.82
-13.35
-13.88
-15.65
-18.53
-22.13
-26.00
-29.84
-33.55
-37.22
-41.09
-45.48
-50.73
-57.10
-64.61
-72.75
-80.44
-86.12
-88.12
-85.19
-76.99
-64.30
-48.82
-32.66
-17.68
-5.04
5.04
13.00
19.52
25.20
30.19
34.37
37.47
39.42
40.37
40.74
41.03
41.62
42.70
44.13
45.61
46.75
47.31
47.29
46.93
46.54
46.27
45.96
45.17
43.33
40.09
35.49
29.97
24.18
18.70
13.79
9.41
5.30
1.14
-3.30
-8.12
-13.26
-18.61
-23.99
-29.21
-34.12
-38.64
-42.87
-47.11
-51.83
-57.54
-64.45
-72.16
-79.57
-85.00
-86.69
-83.42
-75.01
-62.38
-47.31
-31.81
-17.56
-5.56
3.92
11.16
16.74
21.22
25.06
28.54
31.78
34.80
37.62
40.26
42.74
45.04
47.08
48.77
50.07
51.01
51.75
52.44
53.11
53.65
53.73
52.98
51.22
48.49
45.12
41.59
38.35
35.66
33.55
31.86
30.37
28.90
27.31
25.56
23.62
21.46
18.96
15.94
12.17
7.41
1.57
-5.19
-12.50
-19.79
-26.47
-32.14
-36.68
-40.32
-43.60
-47.23
-51.96
-58.24
-65.93
-74.16
-81.31
-85.44
-84.92
-79.01
-68.23
-54.19
-39.01
-24.65
-12.39
-2.59
5.08
11.26
16.55
21.29
25.57
29.39
32.75
35.70
38.33
40.67
42.70
44.27
45.27
45.68
45.64
45.42
45.31
45.45
45.72
45.81
45.31
43.97
41.77
38.93
35.80
32.65
29.65
26.81
24.13
21.62
19.35
17.35
15.49
13.52
11.14
8.15
4.57
0.67
-3.16
-6.61
-9.58
-12.27
-15.06
-18.33
-22.30
-26.91
-31.86
-36.71
-41.09
-44.83
-47.99
-50.93
-54.20
-58.43
-64.13
-71.36
-79.52
-87.23
-92.60
-93.78
-89.55
-79.82
-65.71
-49.20
-32.50
-17.46
-5.18
4.10
10.80
15.68
19.55
23.01
26.44
29.95
33.46
36.80
39.80
42.28
44.11
45.24
45.76
45.85
45.83
46.01
46.53
47.33
48.14
48.60
48.36
47.23
45.19
42.38
39.05
35.49
31.96
28.67
25.71
23.04
20.55
18.12
15.69
13.26
10.80
8.29
5.65
2.81
-0.20
-3.25
-6.19
-8.91
-11.47
-14.12
-17.11
-20.64
-24.71
-29.08
-33.41
-37.40
-40.87
-43.85
-46.51
-49.15
-52.10
-55.77
-60.47
-66.27
-72.74
-78.81
-82.99
-83.63
-79.61
-70.71
-57.89
-42.93
-27.89
-14.47
-3.61
4.58
10.58
15.07
18.59
21.48
23.88
25.86
27.54
29.04
30.50
31.98
33.40
34.65
35.64
36.37
36.95
37.54
38.22
38.95
39.58
39.90
39.70
38.85
37.34
35.25
32.73
30.01
27.28
24.67
22.26
20.03
17.97
16.05
14.30
12.71
11.21
9.65
7.86
5.67
3.02
-0.03
-3.27
-6.47
-9.47
-12.29
-15.13
-18.31
-22.09
-26.51
-31.37
-36.28
-40.85
-44.81
-48.17
-51.16
-54.13
-57.45
-61.52
-66.62
-72.82
-79.69
-86.26
-91.01
-92.33
-89.06
-80.93
-68.72
-54.03
-38.83
-24.80
-13.03
-3.79
3.25
8.77
13.49
17.92
22.26
26.45
30.28
33.54
36.15
38.22
39.90
41.32
42.53
43.44
43.99
44.20
44.24
44.28
44.44
44.60
44.50
43.83
42.42
40.36
37.98
35.62
33.45
31.43
29.36
27.10
24.63
22.16
19.89
17.92
16.16
14.41
12.40
10.01
7.20
4.05
0.67
-2.84
-6.35
-9.76
-13.01
-16.13
-19.21
-22.48
-26.05
-29.97
-34.12
-38.26
-42.17
-45.72
-48.95
-52.05
-55.40
-59.45
-64.60
-71.04
-78.47
-85.98
-92.08
-95.04
-93.40
-86.53
-74.84
-59.75
-43.15
-26.88
-12.30
-0.11
9.52
16.73
21.85
25.26
27.42
28.85
30.06
31.50
33.35
35.58
37.94
40.15
42.01
43.49
44.75
45.95
47.23
48.58
49.87
50.88
51.38
51.13
50.00
47.93
45.10
41.84
38.57
35.65
33.20
31.12
29.16
27.16
25.11
23.16
21.46
19.94
18.35
16.26
13.38
9.72
5.61
1.53
-2.15
-5.38
-8.50
-12.02
-16.30
-21.39
-26.95
-32.46
-37.42
-41.65
-45.29
-48.74
-52.55
-57.23
-63.18
-70.54
-79.03
-87.80
-95.37
-99.89
-99.64
-93.58
-81.81
-65.60
-47.04
-28.38
-11.43
2.78
13.99
22.51
28.83
33.45
36.77
39.13
40.85
42.26
43.62
45.14
46.84
48.65
50.46
52.16
53.74
55.21
56.63
58.00
59.22
60.07
60.31
59.72
58.18
55.73
52.54
48.89
45.09
41.38
37.94
34.80
31.92
29.21
26.56
23.91
21.20
18.38
15.40
12.23
8.82
5.22
1.48
-2.28
-5.96
-9.54
-13.05
-16.66
-20.53
-24.78
-29.44
-34.41
-39.49
-44.49
-49.31
-54.02
-58.92
-64.44
-71.04
-78.96
-87.88
-96.80
-104.09
-107.86
-106.53
-99.40
-86.91
-70.54
-52.33
-34.27
-17.79
-3.68
7.91
17.17
24.45
30.12
34.53
38.05
40.98
43.60
46.06
48.45
50.80
53.12
55.39
57.60
59.71
61.67
63.44
64.93
66.01
66.48
66.11
64.73
62.26
58.79
54.59
50.07
45.63
41.61
38.16
35.22
32.61
30.08
27.46
24.65
21.67
18.53
15.24
11.82
8.33
4.84
1.47
-1.78
-5.02
-8.47
-12.36
-16.83
-21.79
-27.02
-32.17
-36.99
-41.40
-45.52
-49.65
-54.19
-59.57
-66.11
-73.82
-82.17
-89.98
-95.57
-97.10
-93.22
-83.53
-68.80
-50.82
-31.81
-13.87
1.54
13.80
23.01
29.73
34.61
38.19
40.82
42.75
44.21
45.47
46.84
48.57
50.72
53.16
55.64
57.89
59.76
61.20
62.19
62.72
62.64
61.80
60.11
57.62
54.49
50.94
47.17
43.35
39.63
36.16
33.15
30.72
28.83
27.27
25.72
23.85
21.52
18.73
15.63
12.32
8.79
4.94
0.66
-4.06
-9.09
-14.22
-19.21
-23.84
-27.94
-31.40
-34.25
-36.75
-39.33
-42.59
-47.14
-53.32
-60.96
-69.25
-76.64
-81.26
-81.36
-76.02
-65.60
-51.79
-37.03
-23.63
-12.89
-4.75
1.95
8.66
16.35
25.01
33.77
41.41
46.93
49.80
49.97
47.65
43.20
37.05
29.76
22.13
15.11
9.61
6.27
5.18
5.86
7.39
8.68
8.87
7.64
5.27
2.47
0.17
-0.89
-0.38
1.51
4.18
6.89
9.12
10.76
12.17
13.98
16.74
20.57
25.00
29.04
31.56
31.67
29.04
23.88
16.80
8.38
-0.87
-10.57
-20.34
-29.87
-39.10
-48.40
-58.47
-69.95
-82.83
-96.13
-108.09
-116.79
-120.95
-120.27
-115.30
-106.86
-95.64
-81.97
-66.07
-48.45
-30.07
-12.41
3.24
16.32
27.08
36.23
44.54
52.61
60.67
68.81
76.82
84.46
91.63
98.32
104.41
109.99
115.47
121.42
128.54
136.75
145.43
153.96
161.85
168.36
173.30
177.12
180.80
185.93
192.43
199.48
206.33
212.23
215.48
215.00
211.15
206.17
204.51
207.84
215.77
226.30
235.21
235.51
221.32
190.61
146.44
97.14
47.75
0.65
-43.65
-87.49
-136.30
-194.51
-263.20
-339.49
-416.18
-491.28
-565.23
-638.76
-691.45
-705.18
-675.65
-616.48
-570.97
-543.05
-525.34
-510.30
-481.17
-434.09
-375.57
-316.36
-266.03
-220.54
-175.58
-132.33
-93.03
-58.41
-29.88
-10.31
0.46
4.40
5.83
11.45
24.54
44.64
71.04
101.42
132.43
161.22
186.17
207.52
227.36
246.27
264.37
282.28
300.15
318.22
337.25
357.89
380.03
401.89
418.80
425.04
416.57
392.09
354.03
307.71
259.18
213.34
172.78
137.68
107.10
80.34
56.97
36.97
20.14
5.87
-6.65
-18.17
-28.89
-38.63
-46.84
-53.15
-57.50
-60.22
-61.97
-63.38
-64.75
-65.76
-65.42
-62.34
-55.41
-44.41
-30.27
-14.89
-0.51
11.14
19.51
25.15
29.31
33.20
37.53
42.34
47.11
51.00
53.38
54.07
53.43
52.14
50.80
49.68
48.64
47.16
44.33
39.56
32.87
24.96
16.78
9.12
2.39
-3.26
-8.09
-13.39
-20.43
-29.81
-41.14
-53.10
-63.70
-70.51
-70.91
-63.31
-49.38
-31.99
-13.97
3.09
18.81
33.14
45.77
56.15
62.35
59.41
43.68
15.01
-22.72
-63.57
-102.56
-137.08
-166.17
-191.39
-218.24
-250.51
-288.29
-327.73
-363.52
-392.02
-411.95
-423.06
-403.22
-339.52
-234.47
-107.44
17.76
125.44
210.22
268.37
308.49
336.62
352.79
356.54
349.14
334.15
318.56
306.74
300.64
301.15
306.78
312.90
315.69
313.50
307.30
299.26
290.54
281.29
271.66
260.76
246.31
227.08
203.50
177.77
152.73
130.24
111.17
95.97
83.97
73.50
63.28
52.85
42.63
33.61
26.51
21.75
19.60
19.80
21.63
24.32
27.24
30.05
32.60
34.69
36.21
37.11
37.22
36.25
33.82
29.46
22.78
13.64
2.25
-10.80
-24.70
-38.73
-52.51
-66.22
-80.45
-95.88
-112.87
-131.19
-150.07
-168.39
-185.30
-200.71
-215.41
-230.82
-248.43
-269.17
-292.93
-318.69
-344.99
-370.64
-395.22
-419.31
-444.25
-471.86
-504.17
-543.12
-589.65
-642.60
-697.69
-747.53
-783.23
-797.16
-785.80
-751.07
-699.55
-639.81
-579.27
-522.32
-470.18
-422.36
-378.25
-338.02
-302.24
-271.12
-243.82
-218.66
-193.94
-168.75
-143.39
-119.12
-97.45
-79.31
-64.60
-52.27
-40.82
-28.92
-15.95
-2.23
11.31
23.57
33.82
41.97
48.52
54.32
60.12
66.29
72.76
79.05
84.63
89.07
92.24
94.32
95.67
96.68
97.70
98.89
100.27
101.76
103.21
104.48
105.53
106.43
107.38
108.73
110.88
114.19
118.85
124.84
131.98
139.92
148.33
156.99
165.90
175.23
185.36
196.83
210.12
225.32
241.86
258.37
272.91
283.53
288.85
288.50
283.17
274.28
263.46
252.08
241.07
230.77
221.01
211.31
201.01
189.53
176.57
162.11
146.48
130.34
114.66
100.48
88.67
79.40
71.81
64.23
54.73
41.99
25.87
7.62
-10.64
-26.41
-37.27
-40.99
-35.87
-21.25
1.69
29.58
57.53
80.57
95.60
102.32
103.02
101.11
99.41
99.16
100.05
101.04
101.28
100.49
98.70
95.96
92.28
87.76
82.94
78.79
76.25
75.72
76.69
77.92
77.97
75.85
71.40
65.31
58.65
52.50
47.56
44.07
41.77
40.09
38.42
36.23
33.37
30.06
26.82
24.20
22.58
21.95
21.94
21.94
21.27
19.39
16.01
11.12
5.05
-1.72
-8.52
-14.76
-19.94
-23.83
-26.51
-28.40
-30.25
-32.91
-37.13
-43.26
-51.18
-60.38
-70.10
-79.40
-87.12
-91.84
-92.04
-86.62
-75.48
-59.84
-42.07
-24.83
-10.19
1.08
9.50
16.29
22.56
28.79
34.65
39.33
42.11
42.68
41.44
39.33
37.54
37.03
38.16
40.59
43.51
46.05
47.70
48.38
48.30
47.61
46.30
44.36
42.01
39.79
38.29
37.80
38.05
38.32
37.91
36.58
34.63
32.72
31.28
30.22
28.87
26.45
22.46
16.94
10.55
4.24
-1.02
-4.64
-6.54
-7.28
-7.85
-9.34
-12.39
-16.90
-22.06
-26.80
-30.43
-33.04
-35.48
-38.81
-43.76
-50.35
-57.97
-65.69
-72.61
-77.89
-80.69
-80.11
-75.35
-66.21
-53.46
-38.86
-24.71
-13.06
-4.88
0.13
3.27
6.13
9.77
14.26
18.67
21.63
21.98
19.44
14.79
9.66
5.87
4.66
6.11
9.10
11.71
12.06
9.12
3.14
-4.53
-12.18
-18.55
-23.30
-26.98
-30.39
-34.17
-38.78
-44.90
-53.70
-66.54
-83.89
-104.20
-123.62
-136.87
-139.18
-128.04
-103.89
-69.52
-28.79
14.36
56.15
92.47
118.55
129.37
121.05
92.55
46.70
-9.99
-68.98
-121.94
-162.71
-188.25
-198.32
-194.29
-178.04
-151.43
-116.57
-76.43
-35.12
2.69
33.14
54.54
68.03
76.91
85.06
95.22
108.09
122.41
136.04
147.05
154.52
158.54
159.82
159.07
156.77
153.16
148.65
143.94
140.01
137.75
137.68
139.71
143.31
147.75
152.36
156.66
160.47
163.88
167.20
170.79
174.67
178.23
180.03
178.01
170.13
155.22
133.53
106.87
77.95
49.54
23.63
1.11
-18.03
-34.18
-47.60
-58.27
-66.06
-71.10
-73.86
-75.06
-75.28
-74.80
-73.58
-71.55
-68.93
-66.28
-64.40
-63.76
-64.15
-64.63
-63.93
-61.18
-56.59
-51.61
-48.39
-48.73
-53.08
-60.10
-67.24
-71.90
-72.70
-70.04
-65.68
-61.55
-58.82
-57.49
-56.90
-56.48
-56.19
-56.09
-55.72
-53.76
-48.65
-40.06
-30.07
-22.97
-23.62
-34.87
-55.92
-82.57
-109.31
-132.03
-149.52
-163.05
-174.45
-184.15
-190.60
-191.27
-184.57
-171.14
-153.71
-135.61
-119.06
-104.30
-90.03
-74.59
-57.22
-38.68
-20.76
-5.31
6.90
16.89
27.34
41.60
62.31
90.23
123.73
159.12
191.69
216.68
230.20
229.69
214.12
184.13
142.04
91.45
36.39
-19.62
-74.36
-126.66
-175.55
-219.11
-254.11
-276.54
-283.19
-273.03
-247.70
-210.86
-166.62
-117.91
-65.75
-9.77
50.08
111.81
170.54
219.48
252.22
265.39
260.06
241.36
216.13
190.11
166.16
144.28
123.16
102.13
82.17
65.52
54.18
48.59
47.08
46.70
44.59
39.33
31.29
22.43
15.04
10.81
10.07
11.85
14.50
16.49
17.01
16.14
14.52
12.83
11.32
9.74
7.54
4.33
0.07
-4.77
-9.48
-13.39
-16.18
-17.94
-19.09
-20.08
-21.14
-22.21
-23.01
-23.23
-22.78
-21.91
-21.00
-20.47
-20.54
-21.16
-22.17
-23.41
-24.96
-27.06
-29.96
-33.64
-37.62
-41.02
-42.88
-42.50
-39.76
-35.15
-29.58
-24.03
-19.31
-15.95
-14.15
-13.86
-14.70
-15.93
-16.58
-15.71
-12.77
-7.86
-1.81
4.26
9.32
12.87
14.99
16.20
17.14
18.38
20.25
22.86
26.11
29.67
33.05
35.75
37.54
38.50
39.10
39.86
41.08
42.64
44.07
44.78
44.39
42.85
40.37
37.30
33.90
30.33
26.66
22.99
19.40
15.99
12.79
9.78
6.90
4.15
1.56
-0.78
-2.81
-4.57
-6.15
-7.72
-9.38
-11.21
-13.21
-15.36
-17.58
-19.77
-21.80
-23.55
-24.95
-26.07
-27.15
-28.50
-30.30
-32.47
-34.52
-35.78
-35.60
-33.64
-30.03
-25.30
-20.22
-15.52
-11.60
-8.38
-5.31
-1.62
3.38
9.85
17.38
24.98
31.53
36.15
38.49
38.75
37.45
35.17
32.41
29.58
26.99
24.88
23.33
22.27
21.45
20.69
19.94
19.37
19.19
19.53
20.29
21.15
21.69
21.46
20.19
17.81
14.50
10.67
6.87
3.61
1.27
-0.09
-0.72
-1.03
-1.43
-2.21
-3.36
-4.65
-5.69
-6.09
-5.69
-4.66
-3.54
-3.07
-3.82
-5.94
-8.97
-12.06
-14.37
-15.46
-15.49
-15.08
-14.90
-15.29
-16.15
-17.01
-17.41
-17.18
-16.58
-16.20
-16.63
-18.24
-21.00
-24.55
-28.29
-31.50
-33.43
-33.42
-30.97
-26.02
-19.11
-11.49
-4.86
-0.86
-0.40
-3.30
-8.21
-13.14
-16.19
-16.26
-13.30
-8.26
-2.49
2.74
6.76
9.55
11.55
13.29
15.10
17.06
18.97
20.64
21.94
22.90
23.57
23.98
24.01
23.56
22.62
21.34
20.06
19.09
18.56
18.32
18.02
17.25
15.72
13.44
10.71
8.04
5.94
4.71
4.32
4.34
4.10
2.96
0.61
-2.79
-6.62
-10.12
-12.71
-14.26
-15.09
-15.69
-16.43
-17.44
-18.65
-19.92
-21.29
-22.90
-24.92
-27.41
-30.22
-33.23
-36.36
-39.60
-42.80
-45.43
-46.54
-44.94
-39.69
-30.49
-18.00
-3.66
10.67
23.30
33.16
40.06
44.67
48.10
51.49
55.47
60.05
64.69
68.74
71.80
74.04
76.11
78.84
82.97
88.91
96.54
105.19
113.49
119.37
120.39
114.46
100.82
80.66
57.15
34.48
16.43
5.08
0.21
-0.30
0.70
0.82
-0.94
-4.01
-6.89
-7.91
-6.01
-1.04
6.32
14.97
23.64
31.42
37.97
43.62
49.17
55.38
62.53
70.11
76.95
81.47
82.63
80.43
75.95
70.63
65.43
60.28
54.04
45.21
31.91
12.76
-13.14
-46.07
-85.23
-127.81
-168.08
-197.84
-208.52
-195.79
-161.21
-112.28
-59.63
-13.18
21.14
42.61
54.38
60.62
61.88
56.50
42.25
19.09
-10.23
-41.45
-70.78
-96.22
-117.83
-139.57
-164.98
-195.53
-229.02
-261.09
-287.69
-306.74
-318.31
-308.84
-269.76
-200.93
-113.50
-22.84
59.62
128.77
183.87
226.10
257.31
276.16
283.88
281.93
273.22
260.88
246.64
230.41
210.94
186.73
154.50
115.64
71.16
23.03
-26.87
-77.64
-129.26
-181.91
-235.69
-291.74
-350.70
-412.18
-472.55
-525.29
-563.31
-582.08
-582.06
-568.60
-549.89
-532.07
-516.70
-499.96
-475.86
-440.65
-395.39
-345.39
-297.07
-254.80
-219.14
-188.03
-158.80
-130.12
-102.62
-77.82
-56.97
-40.03
-25.73
-12.19
1.97
17.39
33.85
50.63
66.92
82.21
96.37
109.62
122.36
135.03
148.13
162.18
177.74
195.19
214.56
235.45
257.26
279.33
301.34
323.46
346.38
371.22
399.58
433.41
474.55
523.50
578.02
632.38
678.13
706.56
711.90
693.64
656.79
609.73
560.98
516.34
477.98
445.39
417.16
392.49
371.37
353.85
339.17
325.55
310.77
293.20
272.42
249.30
225.48
202.49
181.06
160.81
140.58
118.93
94.88
68.27
39.84
10.89
-17.24
-43.71
-68.39
-91.87
-115.16
-139.23
-164.68
-191.30
-218.13
-243.89
-267.40
-288.34
-307.76
-327.68
-349.94
-374.85
-400.56
-423.52
-439.85
-446.59
-441.90
-424.39
-392.36
-344.07
-279.24
-200.81
-115.42
-31.80
42.30
102.72
149.56
185.46
212.85
232.19
242.22
241.90
232.26
216.81
200.00
185.36
174.16
165.30
156.73
146.90
135.47
123.15
111.00
99.66
89.02
78.50
67.44
55.61
43.43
31.71
21.32
12.76
5.93
0.24
-5.08
-10.56
-16.29
-21.97
-27.23
-32.10
-37.13
-43.41
-52.07
-63.78
-78.43
-95.13
-112.57
-129.76
-146.47
-163.47
-182.12
-203.72
-228.78
-256.70
-286.12
-315.39
-343.47
-370.34
-397.01
-425.16
-456.90
-494.51
-539.83
-593.34
-652.74
-712.27
-763.26
-796.49
-805.36
-788.38
-749.76
-697.53
-640.27
-584.24
-532.17
-484.08
-439.08
-396.90
-358.17
-323.70
-293.42
-266.17
-240.12
-213.87
-187.14
-160.80
-136.54
-115.77
-99.03
-85.69
-74.30
-63.20
-51.29
-38.36
-25.12
-12.73
-2.27
5.82
11.78
16.41
20.64
25.12
30.01
34.98
39.44
42.87
45.02
46.00
46.17
45.95
45.64
45.37
45.10
44.72
44.12
43.27
42.17
40.85
39.32
37.56
35.58
33.46
31.30
29.24
27.36
25.62
23.88
21.99
19.92
17.86
16.27
15.75
16.85
19.85
24.58
30.53
37.03
43.59
50.24
57.53
66.43
77.85
92.18
109.00
127.12
145.10
161.87
177.34
192.55
209.30
229.35
253.51
281.23
310.62
339.19
364.98
387.34
407.38
427.70
451.58
481.85
519.64
563.39
608.67
648.73
676.08
684.49
670.94
636.58
586.48
528.11
469.03
414.66
367.00
324.66
284.32
242.86
199.44
156.10
116.97
86.07
64.98
51.64
41.22
28.57
10.94
-10.59
-31.76
-47.39
-53.70
-49.72
-37.11
-19.03
1.07
20.16
36.14
47.95
55.69
60.43
63.67
66.58
69.17
70.26
68.25
62.14
52.25
39.94
26.31
11.04
-7.94
-33.22
-65.98
-104.35
-143.67
-178.51
-205.30
-224.10
-238.08
-251.11
-264.96
-277.87
-285.48
-283.77
-271.76
-252.23
-230.15
-210.02
-193.62
-179.84
-166.06
-150.25
-132.23
-113.41
-95.59
-79.77
-65.68
-52.35
-39.08
-26.47
-16.63
-12.70
-17.71
-33.31
-58.78
-90.68
-123.21
-149.62
-164.45
-165.78
-156.52
-143.87
-136.73
-142.01
-161.31
-189.82
-218.18
-236.30
-237.37
-220.06
-187.90
-146.74
-101.78
-55.63
-8.58
40.12
90.91
143.49
197.27
252.03
307.90
364.50
420.08
470.88
511.93
538.43
547.50
539.20
516.47
484.34
448.60
414.45
385.50
363.07
345.94
330.71
312.97
288.41
254.41
210.74
159.53
104.72
51.18
3.98
-32.13
-53.33
-57.71
-45.98
-21.82
8.72
38.62
61.70
74.00
74.31
63.62
44.19
18.75
-10.02
-39.71
-68.12
-93.74
-116.20
-136.61
-157.59
-182.67
-215.39
-257.99
-310.11
-367.59
-422.67
-465.48
-486.90
-481.54
-449.60
-396.44
-330.10
-258.09
-184.91
-111.48
-36.41
41.70
122.13
201.27
273.34
332.28
373.94
397.57
406.03
404.55
398.57
391.38
383.45
373.03
358.11
338.21
314.98
291.29
269.45
249.96
231.45
211.99
190.52
167.83
146.12
127.83
114.10
104.11
95.37
85.01
71.23
54.15
35.78
18.94
5.74
-3.47
-10.41
-18.04
-29.14
-44.86
-64.18
-84.45
-102.58
-116.66
-126.92
-135.68
-146.52
-162.96
-187.29
-219.54
-256.89
-293.74
-323.02
-338.37
-336.90
-321.04
-298.30
-278.72
-271.09
-279.82
-303.57
-336.55
-371.33
-401.94
-425.89
-444.67
-462.84
-486.09
-518.69
-561.14
-609.00
-653.52
-684.37
-693.55
-678.37
-642.37
-593.45
-540.44
-489.82
-444.33
-403.61
-366.17
-331.06
-298.46
-269.21
-243.55
-220.43
-197.64
-172.92
-145.14
-114.96
-84.79
-57.58
-35.42
-18.41
-4.55
9.35
26.30
47.92
73.79
101.85
129.37
154.30
176.02
195.49
214.59
235.13
257.99
283.16
310.33
339.72
372.04
407.22
443.00
473.92
492.12
489.84
462.21
408.79
333.07
240.57
137.18
28.95
-77.04
-171.99
-246.24
-292.17
-307.33
-296.08
-268.05
-234.37
-203.29
-177.79
-156.02
-133.69
-107.13
-75.06
-38.67
-0.28
37.93
74.99
111.17
147.62
185.90
227.55
274.13
326.80
385.38
447.05
505.72
552.69
579.12
579.14
552.07
502.65
438.68
367.70
294.46
220.76
146.97
74.07
4.22
-60.24
-118.28
-170.63
-218.50
-261.67
-297.49
-322.01
-332.40
-328.80
-314.43
-293.56
-269.20
-242.28
-213.03
-183.17
-157.08
-140.25
-135.85
-141.82
-150.61
-152.76
-141.90
-118.53
-89.96
-66.20
-54.26
-54.00
-58.27
-56.91
-42.54
-14.40
21.73
56.83
82.97
95.78
94.06
77.79
46.71
0.98
-56.60
-118.88
-175.23
-215.11
-232.39
-227.94
-208.70
-184.01
-161.56
-145.26
-135.72
-132.37
-134.86
-142.96
-155.30
-168.49
-177.51
-177.65
-166.74
-146.25
-120.56
-94.71
-72.11
-53.41
-36.83
-19.78
-0.45
21.36
44.41
66.89
87.52
106.10
123.51
141.34
161.26
184.52
211.49
241.31
271.75
299.47
320.74
332.54
333.67
325.14
309.80
291.18
272.20
254.33
237.70
221.71
205.95
190.55
176.10
163.17
151.83
141.67
131.96
122.12
111.95
101.60
91.50
82.02
73.42
65.74
58.80
52.25
45.69
38.79
31.50
24.18
17.69
13.12
11.48
13.06
17.20
22.37
26.71
28.88
28.71
27.27
26.43
27.87
32.24
38.81
45.84
51.46
54.52
55.21
54.94
55.70
59.29
66.58
77.40
90.60
104.62
117.94
129.29
137.93
144.12
149.62
157.57
171.71
194.61
225.98
262.00
296.27
322.13
335.24
335.03
324.41
307.98
289.98
272.85
257.04
241.57
224.84
205.17
181.21
152.22
118.50
81.60
43.82
7.44
-26.36
-58.18
-90.45
-126.69
-169.94
-220.83
-276.26
-329.01
-368.93
-385.70
-372.12
-327.09
-256.93
-174.38
-95.32
-34.32
-0.40
5.33
-10.92
-38.61
-67.18
-89.39
-102.68
-108.04
-107.75
-103.22
-94.54
-81.52
-65.12
-48.11
-34.00
-25.35
-22.23
-22.25
-21.93
-18.71
-12.34
-4.83
0.77
2.05
-1.64
-9.07
-17.93
-25.97
-31.87
-35.52
-37.65
-39.26
-41.00
-42.89
-44.41
-44.84
-43.61
-40.63
-36.39
-31.74
-27.72
-25.07
-24.06
-24.45
-25.65
-26.93
-27.72
-27.69
-26.79
-25.21
-23.26
-21.26
-19.37
-17.57
-15.71
-13.66
-11.50
-9.43
-7.71
-6.47
-5.63
-4.96
-4.42
-4.26
-5.14
-7.76
-12.34
-18.24
-23.84
-26.99
-25.92
-20.09
-10.62
-0.07
8.47
12.53
11.16
5.30
-2.67
-9.80
-13.79
-13.65
-10.01
-4.68
0.10
2.56
2.04
-0.73
-3.83
-4.83
-1.81
5.86
17.04
29.25
39.61
46.00
47.89
46.37
43.46
41.13
40.68
42.63
46.70
52.04
57.21
60.04
58.13
49.88
35.45
17.35
-0.31
-13.59
-20.66
-22.77
-23.62
-27.36
-36.33
-49.91
-64.89
-77.23
-83.99
-84.54
-80.29
-73.48
-65.71
-57.40
-48.21
-38.07
-27.99
-20.03
-16.30
-17.79
-23.73
-31.79
-39.14
-43.42
-43.28
-38.50
-29.68
-18.02
-5.14
7.16
17.34
24.51
28.58
30.11
29.72
27.75
24.23
19.19
12.80
5.53
-2.18
-10.06
-17.84
-24.92
-30.22
-32.55
-31.42
-27.72
-23.71
-22.25
-25.34
-33.24
-44.37
-56.10
-66.13
-73.31
-77.91
-80.96
-83.44
-85.66
-87.28
-87.76
-86.93
-85.34
-84.02
-83.93
-85.35
-87.55
-88.97
-87.80
-82.77
-73.76
-61.94
-49.46
-38.76
-31.68
-28.92
-29.71
-32.10
-33.51
-31.34
-23.69
-9.53
11.28
38.15
69.88
104.70
140.34
174.47
205.25
232.00
255.38
276.99
298.38
320.11
341.36
360.28
374.86
383.97
387.86
387.91
385.90
383.11
379.71
374.83
366.98
354.78
337.63
315.87
290.60
263.22
234.82
205.98
176.85
147.49
118.09
89.07
60.78
33.21
5.94
-21.74
-50.38
-80.10
-110.68
-141.60
-172.44
-202.96
-233.21
-263.46
-294.34
-326.83
-361.90
-399.77
-439.26
-477.60
-511.26
-537.18
-554.10
-562.81
-565.34
-563.28
-556.54
-543.26
-521.02
-488.60
-447.00
-399.24
-348.97
-298.99
-250.68
-204.47
-160.88
-121.31
-87.57
-60.62
-39.28
-19.86
2.62
32.27
70.06
113.02
155.36
190.89
215.71
229.62
235.86
239.19
243.72
251.55
262.57
275.44
288.74
301.60
313.73
325.12
335.83
346.14
356.83
369.12
384.19
402.33
422.15
440.54
453.47
457.24
449.76
431.23
403.91
371.32
337.13
304.23
274.31
247.90
224.62
203.61
183.92
164.73
145.51
126.03
106.28
86.44
66.66
46.90
26.93
6.41
-14.99
-37.29
-60.30
-83.59
-106.83
-129.93
-153.19
-177.10
-202.16
-228.65
-256.44
-285.30
-314.91
-345.17
-376.21
-408.21
-441.50
-476.83
-515.73
-560.30
-612.06
-670.06
-729.44
-781.62
-816.49
-826.05
-807.49
-764.14
-703.66
-634.73
-564.40
-497.34
-436.80
-385.77
-347.01
-321.67
-307.64
-299.33
-289.55
-272.43
-245.92
-212.05
-175.20
-139.71
-107.94
-79.99
-54.79
-31.29
-9.11
11.70
31.38
50.85
71.41
94.24
119.79
147.47
176.03
204.30
231.73
258.75
286.48
316.11
348.42
383.61
421.57
461.90
503.76
545.31
583.49
614.58
635.48
645.10
644.78
637.39
625.42
609.41
587.65
557.36
516.64
465.83
407.52
345.16
281.54
217.93
154.38
90.65
27.14
-35.14
-95.16
-152.53
-208.34
-265.10
-326.15
-394.28
-469.85
-549.34
-624.99
-686.47
-724.15
-732.52
-712.33
-670.26
-616.12
-559.24
-505.52
-456.60
-411.08
-366.55
-321.37
-275.33
-229.27
-184.29
-141.06
-99.72
-59.92
-21.03
17.67
56.82
97.18
139.71
185.34
234.08
284.01
330.74
368.04
389.99
393.63
380.85
357.94
332.96
312.34
298.40
289.04
279.67
265.83
245.31
218.78
189.05
159.51
132.87
110.57
92.67
78.22
65.74
53.98
42.38
31.18
21.04
12.22
3.96
-5.41
-17.62
-33.19
-50.86
-68.04
-82.12
-91.96
-98.63
-105.11
-114.68
-129.19
-147.88
-167.46
-183.55
-192.83
-194.59
-191.08
-186.39
-184.33
-186.36
-190.81
-193.57
-190.00
-177.13
-154.91
-126.05
-94.60
-64.23
-37.08
-13.59
6.79
24.58
39.86
52.30
61.49
67.23
69.56
68.69
65.12
59.82
54.56
51.81
54.34
64.51
83.78
112.53
150.05
194.55
242.78
289.79
329.26
354.68
361.32
348.04
318.12
278.33
236.69
199.89
171.57
152.10
139.71
132.01
127.26
124.67
123.88
124.39
125.03
124.29
120.77
113.95
104.49
93.89
83.81
75.19
67.81
60.45
51.64
40.59
27.75
14.72
3.54
-4.29
-8.49
-10.06
-10.65
-11.75
-13.96
-16.93
-19.74
-21.59
-22.19
-21.81
-20.94
-19.83
-18.38
-16.30
-13.47
-10.13
-6.79
-3.94
-1.65
0.36
2.53
5.13
8.05
10.97
13.54
15.58
16.93
17.40
16.69
14.70
11.74
8.54
6.04
4.81
4.66
4.67
3.80
1.59
-1.38
-3.84
-4.60
-3.37
-0.90
1.57
3.31
4.86
7.91
14.36
25.16
39.53
55.20
69.44
80.38
87.82
93.31
99.32
108.16
120.96
136.86
152.98
164.97
168.21
159.25
137.08
103.31
61.68
16.56
-28.64
-72.29
-114.69
-157.66
-203.88
-255.88
-314.95
-379.55
-444.41
-500.94
-539.17
-550.89
-532.49
-486.47
-420.72
-346.23
-273.95
-212.20
-165.37
-133.89
-115.05
-104.09
-95.37
-83.65
-65.30
-39.22
-7.05
27.57
60.41
87.95
108.58
122.83
132.71
140.64
148.25
155.97
163.17
169.19
174.01
178.60
184.65
193.86
207.12
223.79
241.23
255.03
260.25
253.15
232.76
201.47
164.37
127.35
94.97
69.06
48.67
31.21
14.13
-3.86
-22.51
-40.63
-56.95
-70.74
-81.77
-90.00
-95.27
-97.33
-96.06
-91.75
-85.07
-76.72
-66.97
-55.25
-40.32
-20.99
2.97
30.39
59.01
86.49
111.46
134.20
156.13
178.42
200.56
219.54
230.55
228.74
211.40
179.24
136.04
87.09
37.01
-11.81
-59.37
-107.27
-157.66
-212.41
-272.72
-338.48
-407.52
-474.88
-533.12
-573.91
-590.74
-581.35
-548.63
-499.42
-441.82
-382.47
-325.02
-270.22
-217.30
-165.47
-114.85
-66.49
-21.71
18.57
54.06
84.66
110.07
129.41
141.43
145.66
143.41
138.20
134.91
137.92
149.14
166.98
186.83
202.99
210.78
208.00
195.13
174.42
148.71
120.61
92.16
64.92
40.23
19.32
3.22
-7.47
-12.62
-12.60
-8.07
0.16
11.20
24.06
37.67
50.69
61.61
68.94
71.51
68.78
61.06
49.52
36.02
22.72
11.59
3.88
-0.08
-0.89
0.27
2.15
3.82
4.80
5.05
4.64
3.71
2.38
0.70
-1.28
-3.51
-5.92
-8.29
-10.24
-11.12
-10.20
-6.90
-1.14
6.57
15.24
23.80
31.53
38.24
44.22
49.91
55.52
60.85
65.49
69.04
71.43
73.03
74.52
76.53
79.42
83.25
87.78
92.86
98.54
105.06
112.60
121.06
129.88
138.24
145.43
151.15
155.73
159.99
164.82
170.81
178.06
186.26
194.90
203.41
211.26
218.02
223.46
227.80
231.62
235.49
239.31
241.85
240.86
233.83
219.21
197.23
169.95
140.13
109.94
79.96
49.27
16.46
-19.11
-56.65
-94.38
-130.42
-163.90
-195.40
-226.57
-259.38
-295.65
-336.87
-384.10
-437.33
-494.40
-550.11
-596.47
-624.56
-627.61
-603.57
-556.13
-493.15
-423.31
-352.81
-283.82
-215.56
-147.02
-79.61
-17.70
33.05
68.51
88.05
94.36
91.40
81.78
65.73
42.02
10.60
-25.54
-60.51
-88.18
-105.51
-114.55
-121.46
-133.17
-153.65
-181.83
-212.47
-238.80
-255.57
-260.72
-255.32
-241.92
-223.03
-200.12
-173.63
-143.66
-110.53
-75.18
-38.93
-3.07
31.62
65.22
98.42
131.96
165.93
199.16
229.42
254.17
271.62
281.52
285.07
284.14
280.21
273.84
264.91
253.48
240.63
228.52
219.45
214.62
213.32
213.14
211.18
205.60
196.59
186.19
177.34
172.37
171.92
174.58
177.41
177.07
171.10
158.96
142.18
123.54
105.59
89.03
72.20
51.64
23.60
-14.35
-62.63
-119.76
-182.91
-248.24
-310.83
-364.51
-402.55
-419.13
-411.28
-379.96
-329.80
-267.51
-199.83
-132.25
-68.65
-11.77
36.52
75.36
105.24
127.91
145.79
160.72
173.11
181.97
185.80
183.68
175.95
164.05
149.75
134.42
118.78
103.26
88.47
75.21
64.06
54.82
46.30
37.02
26.30
15.00
5.53
0.58
1.64
7.94
16.76
24.73
29.59
31.01
30.28
29.11
28.27
27.05
23.86
17.36
7.49
-4.20
-15.18
-23.02
-26.56
-26.23
-23.75
-21.23
-20.12
-20.54
-21.41
-21.11
-18.55
-13.82
-8.32
-4.01
-2.42
-3.85
-7.25
-10.84
-13.10
-13.51
-12.68
-11.74
-11.64
-12.59
-14.02
-15.07
-15.26
-14.86
-14.78
-16.08
-19.36
-24.45
-30.48
-36.33
-41.16
-44.70
-47.10
-48.75
-49.95
-50.94
-52.12
-54.19
-58.02
-64.25
-72.68
-81.86
-89.41
-92.99
-91.43
-85.46
-77.54
-70.67
-67.05
-67.05
-69.29
-71.56
-72.17
-70.84
-68.77
-67.88
-69.83
-75.27
-83.73
-93.83
-103.81
-111.92
-116.94
-118.59
-117.81
-116.72
-117.92
-123.35
-133.21
-145.35
-155.76
-159.78
-153.55
-134.98
-104.00
-62.34
-13.16
39.08
88.94
130.72
159.78
173.80
173.61
162.76
146.16
128.32
112.08
98.37
86.81
76.71
67.73
60.04
53.92
49.47
46.38
44.04
41.80
39.09
35.57
31.13
25.84
19.85
13.39
6.85
0.78
-3.95
-6.41
-5.91
-2.42
3.28
9.73
15.42
19.41
21.65
22.99
24.66
27.60
32.02
37.22
42.00
45.19
46.16
45.13
43.01
41.01
40.17
40.98
43.22
46.20
49.00
50.90
51.51
50.84
49.16
46.78
43.99
41.02
38.12
35.60
33.73
32.69
32.34
32.28
31.90
30.67
28.31
24.97
21.16
17.51
14.49
12.27
10.62
9.12
7.32
5.01
2.29
-0.52
-3.05
-5.03
-6.42
-7.45
-8.42
-9.62
-11.26
-13.45
-16.17
-19.29
-22.51
-25.30
-27.02
-27.05
-25.05
-21.14
-15.90
-10.11
-4.49
0.57
5.06
9.16
13.06
16.70
19.74
21.79
22.53
21.99
20.55
18.90
17.76
17.64
18.61
20.32
22.09
23.27
23.44
22.60
21.08
19.31
17.60
15.97
14.25
12.24
9.95
7.59
5.50
3.95
2.96
2.30
1.67
0.79
-0.38
-1.68
-2.82
-3.52
-3.63
-3.15
-2.24
-1.18
-0.33
-0.06
-0.58
-1.87
-3.69
-5.61
-7.29
-8.60
-9.70
-11.00
-12.94
-15.75
-19.43
-23.66
-27.96
-31.70
-34.22
-34.91
-33.37
-29.59
-24.06
-17.64
-11.29
-5.76
-1.32
2.19
5.23
8.15
11.06
13.73
15.81
17.06
17.47
17.33
17.03
16.94
17.21
17.78
18.38
18.70
18.52
17.78
16.65
15.38
14.19
13.16
12.19
11.10
9.73
8.10
6.38
4.87
3.78
3.12
2.72
2.28
1.56
0.52
-0.66
-1.68
-2.29
-2.43
-2.32
-2.30
-2.72
-3.78
-5.45
-7.47
-9.49
-11.14
-12.19
-12.64
-12.67
-12.68
-13.15
-14.54
-17.09
-20.77
-25.20
-29.71
-33.43
-35.53
-35.37
-32.75
-27.99
-21.86
-15.33
-9.26
-4.12
0.08
3.72
7.22
10.80
14.37
17.49
19.69
20.63
20.33
19.13
17.59
16.24
15.39
15.07
15.03
14.88
14.30
13.11
11.36
9.20
6.78
4.19
1.43
-1.48
-4.48
-7.47
-10.41
-13.41
-16.74
-20.69
-25.39
-30.67
-36.09
-41.17
-45.69
-49.85
-54.21
-59.43
-65.87
-73.38
-81.37
-89.14
-96.24
-102.77
-109.23
-116.26
-124.34
-133.58
-143.85
-154.90
-166.48
-178.14
-188.91
-197.14
-200.85
-198.46
-189.54
-175.02
-156.75
-136.52
-115.39
-93.47
-70.54
-46.67
-22.51
1.13
24.06
47.36
73.25
104.07
140.91
182.41
224.71
262.46
290.56
305.81
307.90
299.18
283.53
264.84
245.78
227.48
209.85
192.48
175.25
158.50
142.75
128.25
114.77
101.79
88.91
76.10
63.79
52.65
43.16
35.33
28.68
22.46
16.02
9.17
2.23
-4.20
-9.61
-13.95
-17.60
-21.13
-24.79
-28.27
-30.73
-31.20
-29.08
-24.38
-17.76
-10.22
-2.81
3.57
8.12
10.23
9.52
6.18
1.07
-4.33
-8.37
-9.82
-8.31
-4.29
1.37
7.85
14.72
21.98
29.82
38.24
47.02
55.66
63.66
70.72
76.96
82.94
89.49
97.37
106.95
117.97
129.50
140.31
149.29
155.64
158.93
158.94
155.59
149.07
140.00
129.50
118.83
108.91
99.89
90.99
80.99
68.77
53.88
36.47
17.01
-4.18
-26.89
-50.70
-74.57
-96.70
-115.08
-128.22
-135.89
-139.20
-140.10
-140.38
-141.00
-142.00
-142.80
-142.82
-141.70
-139.34
-135.61
-130.20
-122.61
-112.50
-100.36
-87.35
-75.04
-64.66
-56.85
-51.67
-48.54
-46.21
-42.63
-36.00
-25.09
-10.38
6.14
21.35
32.09
36.51
34.79
28.85
20.43
10.34
-2.17
-18.10
-37.70
-59.86
-82.43
-102.92
-115.54
-115.59
-101.43
-76.68
-47.62
-19.86
3.67
22.54
37.71
50.43
59.94
66.31
68.63
66.46
60.00
49.66
35.71
18.39
-1.70
-23.75
-42.30
-52.38
-49.70
-32.36
-2.05
36.25
76.01
111.45
138.79
156.90
165.80
166.44
159.94
147.44
130.46
111.24
92.36
75.89
62.65
51.41
39.97
26.05
8.36
-12.85
-36.04
-59.18
-80.75
-100.20
-118.11
-135.15
-151.33
-165.80
-177.15
-184.16
-186.38
-184.34
-179.13
-172.04
-163.87
-154.87
-144.94
-134.05
-122.45
-110.60
-98.88
-87.32
-75.62
-63.48
-50.92
-38.48
-27.21
-18.40
-13.38
-13.17
-18.34
-28.65
-42.96
-59.17
-74.54
-86.30
-92.38
-92.04
-86.06
-76.35
-65.10
-53.98
-43.60
-33.44
-22.32
-9.08
6.70
24.30
41.84
56.89
67.19
71.50
69.86
63.53
54.37
44.29
34.83
27.07
21.68
18.77
17.80
17.54
16.46
13.58
9.12
4.57
1.94
2.51
6.01
10.73
14.58
16.21
15.75
14.28
12.84
11.47
9.10
4.23
-3.81
-14.26
-25.15
-34.23
-40.17
-43.18
-44.88
-47.36
-52.19
-59.63
-68.73
-77.92
-86.03
-92.97
-99.63
-107.12
-115.79
-124.56
-131.27
-133.54
-129.95
-120.65
-107.33
-92.32
-77.61
-64.19
-51.97
-40.29
-28.60
-16.85
-5.59
4.39
12.48
18.55
22.86
25.95
28.34
30.36
32.14
33.75
35.26
36.78
38.46
40.38
42.49
44.67
46.69
48.30
49.26
49.40
48.70
47.28
45.39
43.27
41.04
38.61
35.78
32.38
28.39
24.06
19.67
15.51
11.54
7.59
3.33
-1.54
-7.17
-13.47
-20.15
-26.69
-32.34
-36.35
-38.01
-37.00
-33.34
-27.50
-20.15
-11.97
-3.59
4.53
12.01
18.51
23.82
27.91
30.93
33.21
35.13
37.02
39.09
41.44
44.11
47.06
50.23
53.54
56.95
60.53
64.51
69.17
74.60
80.52
86.08
90.08
91.27
88.82
82.60
73.32
62.20
50.60
39.55
29.53
20.35
11.38
1.82
-9.00
-21.32
-34.72
-47.99
-59.40
-67.16
-70.01
-67.82
-61.68
-53.55
-45.55
-39.09
-34.45
-30.71
-26.17
-19.09
-8.43
5.66
21.85
38.05
52.16
62.72
69.35
72.68
73.87
74.06
73.99
73.88
73.72
73.52
73.39
73.39
73.39
72.92
71.38
68.35
63.81
58.20
52.24
46.66
41.87
37.85
34.13
30.08
25.11
18.99
11.91
4.43
-2.81
-9.39
-15.24
-20.79
-26.77
-33.95
-42.76
-52.93
-63.42
-72.48
-78.18
-78.97
-74.21
-64.44
-51.12
-36.17
-21.32
-7.76
4.03
14.07
22.58
29.81
35.88
40.89
44.90
48.03
50.40
52.11
53.21
53.71
53.60
52.92
51.80
50.43
49.08
47.88
46.81
45.64
44.00
41.55
38.14
33.88
29.10
24.20
19.44
14.86
10.32
5.62
0.67
-4.44
-9.43
-14.01
-18.02
-21.56
-24.99
-28.79
-33.50
-39.46
-46.71
-54.84
-62.93
-69.70
-73.69
-73.68
-69.09
-60.17
-48.03
-34.18
-20.17
-7.17
4.23
13.88
21.92
28.54
33.86
38.03
41.22
43.64
45.48
46.88
47.88
48.46
48.56
48.28
47.75
47.14
46.54
45.88
44.94
43.42
41.11
37.96
34.14
29.91
25.55
21.20
16.87
12.45
7.83
2.99
-1.96
-6.83
-11.42
-15.61
-19.35
-22.78
-26.12
-29.74
-34.07
-39.47
-46.08
-53.56
-60.97
-66.90
-69.83
-68.59
-62.80
-53.04
-40.68
-27.40
-14.69
-3.49
5.88
13.55
19.78
24.79
28.71
31.58
33.49
34.65
35.35
35.82
36.26
36.67
36.98
37.11
37.04
36.83
36.59
36.41
36.30
36.16
35.76
34.83
33.14
30.61
27.32
23.54
19.60
15.79
12.27
9.04
5.98
2.96
-0.19
-3.61
-7.38
-11.54
-16.00
-20.58
-25.02
-29.07
-32.59
-35.67
-38.59
-41.79
-45.68
-50.49
-56.13
-62.06
-67.34
-70.78
-71.23
-67.93
-60.76
-50.36
-37.90
-24.80
-12.30
-1.27
7.90
15.14
20.56
24.31
26.54
27.48
27.48
27.01
26.56
26.49
26.93
27.77
28.75
29.58
30.07
30.16
29.91
29.42
28.75
27.96
27.06
25.99
24.69
23.06
21.01
18.50
15.59
12.43
9.24
6.20
3.36
0.63
-2.18
-5.30
-8.83
-12.75
-16.88
-20.95
-24.73
-28.06
-30.94
-33.52
-36.04
-38.85
-42.25
-46.49
-51.52
-56.93
-61.88
-65.20
-65.67
-62.44
-55.28
-44.81
-32.30
-19.28
-7.16
3.14
11.24
17.25
21.50
24.38
26.19
27.19
27.59
27.64
27.59
27.65
27.92
28.37
28.82
29.09
29.07
28.75
28.26
27.70
27.12
26.44
25.48
24.05
22.01
19.35
16.17
12.66
8.97
5.26
1.63
-1.81
-4.91
-7.52
-9.53
-10.99
-12.06
-13.02
-14.12
-15.41
-16.89
-18.53
-20.47
-23.05
-26.67
-31.54
-37.55
-44.21
-50.89
-57.13
-62.78
-68.02
-73.10
-77.96
-82.02
-84.20
-83.26
-78.27
-69.09
-56.48
-41.93
-27.18
-13.76
-2.56
6.25
13.03
18.39
22.99
27.32
31.68
36.23
40.99
46.00
51.31
57.04
63.37
70.35
77.76
85.03
91.38
96.10
98.83
99.70
99.20
97.90
96.27
94.52
92.71
90.82
88.61
85.42
80.22
71.96
60.18
45.62
30.15
16.08
5.00
-2.99
-9.35
-16.15
-24.83
-35.35
-46.25
-55.63
-62.27
-66.24
-68.70
-71.00
-73.78
-76.62
-78.42
-78.15
-75.63
-71.73
-68.14
-66.61
-68.20
-72.83
-79.29
-85.59
-89.66
-90.00
-86.10
-78.47
-68.43
-57.56
-47.13
-37.83
-29.75
-22.64
-16.33
-10.92
-6.74
-4.05
-2.75
-2.36
-2.30
-2.30
-2.58
-3.78
-6.36
-10.30
-14.90
-19.10
-22.07
-23.57
-24.10
-24.50
-25.52
-27.36
-29.47
-30.73
-29.76
-25.33
-16.59
-3.20
14.68
36.54
61.58
88.86
117.32
145.86
173.29
198.55
220.78
239.47
254.36
265.37
272.40
275.23
273.69
267.72
257.60
243.95
227.65
209.66
190.79
171.73
152.96
134.88
117.88
102.34
88.65
77.22
68.51
62.88
60.49
61.04
63.80
67.70
71.71
75.08
77.48
78.74
78.51
76.15
70.95
62.68
51.94
40.19
29.22
20.36
13.91
9.10
4.42
-1.74
-10.61
-22.88
-38.82
-58.36
-81.20
-106.62
-133.34
-159.46
-182.64
-200.50
-211.20
-213.81
-208.68
-197.40
-182.40
-166.35
-151.52
-139.26
-130.02
-123.61
-119.71
-118.23
-119.26
-122.86
-128.67
-135.71
-142.57
-147.77
-150.32
-150.03
-147.60
-144.29
-141.46
-140.13
-140.69
-142.99
-146.50
-150.66
-155.12
-159.87
-165.13
-171.15
-178.03
-185.68
-193.73
-201.51
-207.97
-211.66
-211.03
-204.80
-192.47
-174.56
-152.59
-128.67
-104.93
-83.12
-64.25
-48.69
-36.35
-26.94
-20.14
-15.66
-13.24
-12.55
-13.24
-14.97
-17.43
-20.25
-22.96
-24.88
-25.11
-22.92
-18.00
-10.70
-2.00
6.95
15.35
23.04
30.46
38.21
46.59
55.29
63.54
70.41
75.20
77.65
77.84
76.02
72.40
67.06
60.13
51.86
42.80
33.69
25.30
18.08
11.98
6.43
0.61
-6.24
-14.52
-24.21
-34.75
-45.16
-54.29
-61.20
-65.55
-67.82
-69.13
-70.66
-72.94
-75.50
-77.00
-75.99
-71.62
-64.15
-54.75
-44.90
-35.69
-27.49
-20.07
-13.04
-6.13
0.65
7.19
13.51
19.89
26.69
34.21
42.41
50.83
58.71
65.20
69.62
71.59
71.12
68.52
64.35
59.31
54.13
49.49
45.83
43.29
41.66
40.53
39.40
37.99
36.26
34.38
32.62
31.11
29.83
28.52
26.79
24.25
20.57
15.68
9.72
3.08
-3.75
-10.31
-16.28
-21.57
-26.33
-31.03
-36.41
-43.42
-52.90
-65.05
-79.02
-92.79
-103.67
-109.17
-107.84
-99.86
-86.78
-70.80
-53.94
-37.47
-21.92
-7.36
