1520266690.00
64.000000
-0.00
-0.00
-0.00
-0.00
-0.00
-0.00
-0.00
-0.00
-0.00
-0.00
0.00
0.01
0.01
-0.00
-0.03
-0.05
-0.05
0.00
0.13
0.36
0.66
1.01
1.37
1.72
2.06
2.40
2.79
3.24
3.80
4.42
5.06
5.66
6.20
6.68
7.15
7.68
8.31
9.14
10.09
11.04
11.88
12.56
13.14
13.76
14.65
15.96
17.91
20.32
22.90
25.38
27.58
29.57
31.68
34.32
37.81
42.54
48.15
54.10
59.83
64.97
69.58
74.14
79.34
85.71
93.76
103.00
112.62
121.73
129.77
136.75
143.30
150.75
157.77
166.64
177.95
191.79
206.97
220.57
228.25
225.36
208.53
176.87
132.76
80.05
23.07
-34.94
-92.44
-149.16
-205.23
-260.37
-313.74
-363.87
-409.83
-450.91
-486.50
-515.74
-537.23
-549.22
-549.96
-538.37
-514.21
-478.67
-433.88
-382.45
-327.02
-269.84
-212.63
-156.66
-102.95
-52.37
-5.90
35.58
71.43
101.35
125.50
144.38
158.69
169.15
176.37
180.75
182.57
182.07
179.51
175.23
169.65
163.18
156.15
148.81
141.30
133.69
126.02
118.33
110.69
103.16
95.80
88.68
81.83
75.25
68.95
62.95
57.25
51.86
46.78
42.03
37.59
33.45
29.61
26.07
22.81
19.83
17.11
14.67
12.48
10.54
8.83
7.35
6.07
4.97
4.05
3.27
2.62
2.09
1.65
1.30
1.01
0.79
0.61
0.48
0.37
0.29
0.24
0.20
0.18
0.17
0.17
0.18
0.20
0.23
0.26
0.30
0.34
0.38
0.42
0.47
0.52
0.56
0.61
0.67
0.73
0.79
0.85
0.93
1.01
1.09
1.19
1.30
1.43
1.56
1.72
1.89
2.09
2.30
2.54
2.80
3.09
3.41
3.76
4.15
4.56
5.02
5.51
6.03
6.60
7.21
7.85
8.54
9.29
10.09
10.94
11.84
12.75
13.67
14.60
15.54
16.53
17.59
18.74
19.95
21.18
22.29
23.17
23.68
23.70
23.15
21.97
20.14
17.64
14.49
10.66
6.25
1.43
-3.58
-8.46
-12.92
-16.69
-19.65
-21.82
-23.37
-24.51
-25.38
-26.05
-26.41
-26.30
-25.62
-24.43
-23.00
-21.72
-21.02
-21.07
-21.78
-22.78
-23.53
-23.61
-22.95
-21.90
-21.09
-21.11
-22.30
-24.49
-27.07
-29.29
-30.57
-30.80
-30.31
-29.75
-29.82
-31.13
-34.19
-39.22
-45.85
-52.67
-57.24
-56.57
-48.33
-32.01
-9.53
15.25
37.96
55.34
66.19
71.24
72.24
70.78
67.72
63.38
58.03
52.41
47.70
44.97
44.67
46.39
49.06
51.30
52.11
51.16
48.82
45.90
43.15
40.96
39.17
37.19
34.38
30.49
25.78
21.02
17.02
14.32
12.89
12.15
11.27
9.51
6.51
2.34
-2.57
-7.69
-12.63
-17.18
-21.44
-25.73
-30.48
-36.09
-42.69
-50.12
-57.91
-65.45
-72.23
-78.09
-83.22
-88.21
-93.84
-100.87
-109.71
-120.13
-131.00
-140.26
-145.31
-143.66
-133.86
-116.13
-92.43
-65.88
-39.79
-16.62
2.57
18.01
30.77
42.03
52.60
62.73
72.26
80.79
87.92
93.39
97.08
99.10
99.68
99.20
98.07
96.68
95.32
94.13
93.12
92.05
90.57
88.16
84.45
79.33
73.11
66.48
60.24
54.98
50.88
47.63
44.57
41.06
36.72
31.64
26.25
21.13
16.73
13.12
10.02
6.90
3.24
-1.24
-6.49
-12.16
-17.80
-23.08
-27.93
-32.58
-37.37
-42.63
-48.48
-54.78
-61.17
-67.32
-73.00
-78.27
-83.51
-89.31
-96.35
-105.18
-115.85
-127.65
-138.97
-147.39
-150.31
-145.69
-132.86
-112.90
-88.43
-62.75
-38.77
-18.26
-1.56
12.05
23.69
34.22
43.97
52.83
60.47
66.69
71.55
75.28
78.16
80.40
82.05
83.09
83.54
83.51
83.26
83.01
82.79
82.40
81.36
79.19
75.62
70.83
65.32
59.78
54.78
50.55
46.93
43.58
40.09
36.26
32.09
27.68
23.15
18.56
13.86
8.96
3.76
-1.79
-7.67
-13.76
-19.95
-26.17
-32.47
-39.01
-45.87
-52.94
-59.83
-66.05
-71.17
-75.05
-78.00
-80.69
-84.02
-88.93
-96.14
-105.92
-117.77
-130.24
-140.96
-147.10
-146.19
-136.98
-120.05
-97.69
-73.17
-49.62
-29.19
-12.60
0.63
11.58
21.30
30.41
38.96
46.73
53.43
58.88
63.07
66.07
67.87
68.36
67.48
65.28
62.14
58.70
55.68
53.54
52.25
51.21
49.54
46.42
41.48
34.99
27.54
19.89
12.72
6.77
2.79
1.49
3.07
6.69
10.43
11.78
8.70
0.58
-11.32
-24.37
-35.62
-42.88
-45.23
-42.86
-36.58
-27.36
-16.27
-4.61
5.96
13.74
17.41
16.48
11.47
3.65
-5.38
-14.26
-22.29
-29.57
-36.95
-45.70
-56.88
-70.76
-86.22
-100.81
-111.27
-114.56
-108.96
-94.62
-73.52
-48.74
-23.49
-0.26
19.51
35.53
48.29
58.77
68.04
77.07
86.39
96.05
105.60
114.27
121.33
126.24
128.91
129.60
128.87
127.34
125.65
124.21
123.19
122.46
121.65
120.35
118.26
115.29
111.47
106.96
101.90
96.51
91.03
85.73
80.63
75.41
69.31
61.38
50.90
37.74
22.47
6.13
-10.30
-26.18
-41.35
-55.90
-69.80
-82.73
-94.27
-104.19
-112.78
-120.79
-129.11
-138.23
-148.03
-157.81
-166.77
-174.56
-181.61
-189.02
-198.27
-210.70
-227.18
-247.52
-270.01
-291.05
-305.64
-308.50
-295.79
-266.55
-223.09
-170.15
-113.19
-56.77
-3.76
44.35
86.60
122.04
149.69
169.15
181.02
186.94
188.85
188.34
186.27
182.89
178.32
172.88
167.20
162.03
157.86
154.75
152.44
150.50
148.58
146.34
143.41
139.24
133.17
124.67
113.57
100.22
85.38
70.08
55.29
41.87
30.47
21.49
15.02
10.64
7.46
4.11
-0.93
-8.87
-20.02
-33.40
-46.98
-58.52
-66.77
-72.38
-77.93
-86.76
-101.20
-121.22
-144.30
-166.67
-185.36
-199.59
-210.75
-220.99
-231.38
-240.85
-246.52
-245.10
-234.52
-214.66
-186.99
-153.59
-116.23
-76.09
-34.09
8.50
49.87
87.97
121.17
148.73
170.83
188.10
201.15
210.21
215.31
216.75
215.46
212.99
211.12
211.25
213.91
218.80
225.08
231.77
238.01
243.06
246.08
246.10
242.09
233.39
220.10
203.13
183.96
164.05
144.31
124.86
105.14
84.47
62.60
39.91
17.32
-4.20
-24.00
-41.91
-58.14
-73.02
-86.69
-99.10
-110.11
-119.70
-128.05
-135.47
-142.29
-148.68
-154.65
-160.16
-165.27
-170.25
-175.71
-182.45
-191.27
-202.71
-216.66
-232.07
-246.97
-258.68
-264.49
-262.40
-251.79
-233.67
-210.48
-185.31
-160.93
-138.91
-119.40
-101.45
-83.83
-65.85
-47.73
-30.54
-15.56
-3.80
4.45
9.58
12.42
13.97
15.32
17.54
21.60
28.24
37.67
49.44
62.58
75.77
87.70
97.31
103.90
107.23
107.49
105.27
101.32
96.36
90.90
85.13
79.04
72.66
66.11
59.63
53.53
47.92
42.73
37.68
32.40
26.63
20.26
13.39
6.27
-0.82
-7.71
-14.53
-21.69
-29.88
-39.78
-51.61
-64.74
-77.55
-87.70
-92.72
-90.89
-81.80
-66.59
-47.56
-27.52
-8.93
6.66
18.76
27.77
34.54
39.97
44.68
48.98
52.94
56.45
59.36
61.57
63.01
63.62
63.39
62.38
60.73
58.77
56.89
55.42
54.47
53.80
52.91
51.24
48.42
44.45
39.73
34.80
30.13
25.88
21.90
17.88
13.57
8.94
4.18
-0.42
-4.67
-8.62
-12.60
-17.09
-22.47
-28.85
-35.98
-43.30
-50.13
-56.00
-60.82
-65.02
-69.45
-75.14
-82.86
-92.78
-104.14
-115.18
-123.51
-126.71
-123.11
-112.51
-96.29
-77.08
-57.90
-41.16
-27.97
-18.05
-10.17
-2.92
4.59
12.49
20.39
28.00
35.57
43.93
54.16
67.14
83.32
102.75
125.17
149.96
175.66
199.62
218.01
226.78
223.17
207.17
181.89
152.61
124.88
102.50
86.55
75.75
67.74
60.44
52.92
45.31
38.16
31.73
25.78
19.74
13.27
6.44
-0.32
-6.75
-13.19
-20.67
-30.48
-43.42
-59.27
-76.64
-93.47
-107.98
-119.35
-127.95
-134.91
-141.25
-147.15
-151.66
-153.21
-150.28
-142.19
-129.41
-113.45
-96.28
-79.63
-64.64
-51.60
-40.27
-30.22
-21.15
-13.01
-5.94
-0.03
4.80
8.90
12.75
16.79
21.25
26.03
30.91
35.63
40.11
44.45
48.78
53.06
56.96
59.95
61.41
61.06
59.12
56.33
53.75
52.28
52.42
54.10
56.87
60.23
63.88
67.83
72.18
76.84
81.21
84.33
85.00
82.36
76.23
67.28
56.93
46.92
38.73
32.96
29.16
26.07
22.14
16.18
7.64
-3.34
-16.15
-29.92
-43.53
-55.67
-64.84
-69.74
-69.69
-65.10
-57.40
-48.77
-41.47
-37.22
-36.94
-40.62
-47.55
-56.56
-66.30
-75.53
-83.45
-89.78
-94.67
-98.43
-101.31
-103.22
-103.75
-102.24
-97.96
-90.36
-79.34
-65.44
-49.90
-34.53
-21.28
-11.62
-6.06
-3.90
-3.55
-3.13
-1.17
2.80
8.20
13.67
17.68
19.21
18.19
15.55
12.78
11.20
11.32
12.56
13.65
13.33
11.10
7.48
3.66
0.70
-1.09
-2.39
-4.37
-7.99
-13.52
-20.49
-28.18
-36.05
-43.87
-51.36
-57.77
-61.68
-61.33
-55.47
-43.97
-28.19
-10.46
6.78
21.79
34.00
43.76
51.76
58.41
63.59
66.84
67.84
66.76
64.40
61.84
60.00
59.24
59.37
59.95
60.64
61.46
62.80
65.03
68.34
72.48
76.87
80.72
83.21
83.61
81.42
76.53
69.35
60.80
52.08
44.33
38.29
34.12
31.51
29.87
28.49
26.74
24.03
19.91
14.18
7.00
-1.01
-8.86
-15.57
-20.54
-23.87
-26.42
-29.50
-34.46
-42.20
-52.96
-66.38
-81.54
-97.13
-111.52
-122.92
-129.61
-130.42
-125.12
-114.69
-101.07
-86.59
-73.17
-61.87
-52.74
-45.12
-38.19
-31.38
-24.63
-18.41
-13.47
-10.54
-9.99
-11.74
-15.22
-19.53
-23.63
-26.47
-27.12
-24.96
-19.90
-12.41
-3.39
6.33
16.42
27.25
39.48
53.37
68.12
81.90
92.44
98.13
98.79
95.80
91.29
87.16
84.11
81.52
78.05
72.50
64.61
55.26
45.96
38.16
32.43
28.31
24.52
19.66
12.72
3.50
-7.60
-19.88
-32.64
-45.28
-57.18
-67.73
-76.32
-82.76
-87.43
-91.33
-95.69
-101.33
-108.14
-114.86
-119.46
-119.83
-114.56
-103.46
-87.69
-69.34
-50.75
-33.83
-19.62
-8.23
0.97
8.85
16.12
23.12
29.81
35.95
41.30
45.78
49.50
52.64
55.41
57.92
60.29
62.67
65.30
68.48
72.50
77.43
82.97
88.37
92.58
94.52
93.45
89.24
82.45
74.02
64.96
56.00
47.45
39.40
31.87
24.88
18.42
12.28
6.14
-0.30
-7.06
-13.85
-20.24
-25.98
-31.18
-36.25
-41.51
-46.97
-52.13
-56.32
-59.04
-60.33
-60.85
-61.66
-63.87
-68.35
-75.39
-84.53
-94.55
-103.62
-109.73
-111.22
-107.36
-98.44
-85.70
-70.84
-55.53
-41.15
-28.59
-18.26
-10.07
-3.48
2.39
8.43
15.24
22.79
30.44
37.14
41.95
44.36
44.58
43.43
41.96
41.14
41.46
42.80
44.53
45.90
46.31
45.57
43.94
41.86
39.74
37.68
35.54
33.06
30.01
26.37
22.25
17.92
13.65
9.73
6.45
4.05
2.81
2.93
4.52
7.53
11.75
16.70
21.65
25.72
28.09
28.16
25.70
20.91
14.33
6.72
-1.09
-8.28
-14.27
-18.84
-22.40
-25.88
-30.51
-37.35
-46.68
-57.71
-68.58
-76.82
-80.11
-77.02
-67.46
-52.73
-35.14
-17.37
-1.74
10.38
18.82
24.41
28.50
32.28
36.31
40.38
43.92
46.43
47.93
48.89
49.86
50.98
51.88
51.90
50.66
48.44
46.13
44.72
44.71
45.69
46.69
46.65
45.05
42.19
38.86
35.93
33.84
32.50
31.42
30.03
27.99
25.26
22.01
18.46
14.74
10.78
6.48
1.87
-2.83
-7.20
-10.81
-13.52
-15.57
-17.60
-20.36
-24.39
-29.74
-35.99
-42.41
-48.27
-53.14
-56.95
-60.05
-63.00
-66.53
-71.30
-77.60
-85.16
-92.99
-99.39
-102.45
-100.53
-92.90
-80.10
-63.80
-46.33
-30.00
-16.41
-6.20
0.97
5.97
9.85
13.37
16.93
20.54
23.92
26.77
28.88
30.35
31.62
33.40
36.36
40.86
46.67
52.97
58.54
62.21
63.17
61.27
56.89
50.71
43.50
35.96
28.72
22.31
17.09
12.91
9.10
4.66
-1.06
-7.67
-13.45
-15.98
-13.34
-5.42
5.63
16.09
22.28
22.09
15.69
5.10
-7.06
-18.78
-29.18
-38.23
-46.07
-52.47
-56.83
-58.71
-58.35
-56.86
-55.94
-57.18
-61.37
-67.97
-75.05
-79.83
-79.61
-72.69
-59.08
-40.58
-20.22
-1.22
13.93
24.17
29.81
32.19
32.97
33.57
34.84
37.09
40.29
44.26
48.80
53.77
59.03
64.42
69.68
74.35
77.82
79.41
78.52
74.96
69.04
61.59
53.69
46.40
40.47
36.26
33.83
33.07
33.82
35.82
38.70
41.82
44.42
45.69
44.95
41.80
36.12
28.14
18.39
7.63
-3.17
-13.06
-21.33
-27.69
-32.37
-35.95
-39.17
-42.68
-46.84
-51.77
-57.33
-63.25
-69.23
-75.00
-80.43
-85.53
-90.40
-95.03
-99.06
-101.83
-102.38
-99.98
-94.39
-86.10
-76.18
-65.80
-55.90
-46.90
-38.78
-31.33
-24.53
-18.60
-13.99
-11.14
-10.15
-10.60
-11.64
-12.25
-11.71
-9.80
-6.77
-3.07
1.10
5.86
11.55
18.31
25.76
32.91
38.60
41.92
42.69
41.41
39.03
36.53
34.61
33.59
33.53
34.27
35.47
36.67
37.34
37.14
36.06
34.44
32.69
30.93
28.80
25.49
20.17
12.49
2.89
-7.43
-16.82
-23.81
-27.40
-27.33
-23.89
-17.74
-9.71
-0.65
8.63
17.48
25.37
31.96
37.09
40.66
42.66
43.16
42.35
40.63
38.50
36.51
35.15
34.65
34.94
35.61
36.06
35.72
34.24
31.60
28.17
24.51
21.19
18.61
16.87
15.87
15.37
15.20
15.17
15.11
14.75
13.76
11.86
8.94
5.05
0.35
-5.09
-11.40
-18.68
-26.83
-35.31
-43.26
-49.98
-55.40
-60.32
-66.07
-73.73
-83.34
-93.54
-102.00
-106.28
-104.83
-97.54
-85.62
-71.05
-55.72
-41.00
-27.48
-15.22
-4.10
5.82
14.23
20.64
24.69
26.44
26.47
25.79
25.39
25.95
27.63
30.18
33.23
36.50
39.86
43.15
45.90
47.37
46.71
43.39
37.52
29.96
22.07
15.27
10.55
8.18
7.71
8.11
8.18
6.87
3.51
-2.04
-9.50
-18.25
-27.43
-36.07
-43.16
-47.86
-49.81
-49.42
-47.99
-47.57
-50.38
-58.11
-71.13
-88.14
-106.29
-121.74
-130.67
-130.28
-119.54
-99.47
-72.79
-43.22
-14.58
10.08
28.86
41.22
47.74
49.79
49.17
47.79
47.34
48.97
53.09
59.42
67.01
74.55
80.73
84.48
85.25
83.10
78.68
73.11
67.65
63.31
60.61
59.44
59.13
58.76
57.50
54.79
50.42
44.47
37.23
29.13
20.71
12.62
5.48
-0.16
-4.03
-6.25
-7.27
-7.70
-8.12
-8.89
-10.12
-11.72
-13.60
-15.86
-18.84
-22.94
-28.43
-35.04
-41.83
-47.33
-49.91
-48.35
-42.36
-32.68
-20.92
-9.00
1.36
9.13
14.17
17.07
18.78
20.15
21.75
23.68
25.79
27.82
29.56
30.92
31.80
32.15
31.90
31.08
29.94
28.78
27.92
27.45
27.13
26.62
25.61
23.98
21.91
19.68
17.57
15.70
14.05
12.52
11.03
9.54
8.07
6.57
5.01
3.26
1.17
-1.36
-4.40
-7.90
-11.83
-16.26
-21.34
-27.24
-33.91
-40.80
-46.84
-50.69
-51.16
-47.76
-40.94
-31.95
-22.34
-13.43
-6.00
-0.17
4.33
7.90
10.86
13.42
15.70
17.81
19.84
21.80
23.63
25.19
26.35
27.07
27.45
27.75
28.22
29.00
29.98
30.84
31.14
30.58
29.13
27.07
24.83
22.78
21.06
19.56
17.98
16.04
13.56
10.53
7.03
3.22
-0.78
-4.85
-8.88
-12.73
-16.32
-19.57
-22.44
-24.91
-26.95
-28.56
-29.74
-30.63
-31.54
-32.93
-35.30
-39.07
-44.36
-50.87
-57.82
-64.05
-68.24
-69.29
-66.59
-60.27
-51.25
-40.99
-31.05
-22.67
-16.43
-12.31
-9.78
-8.16
-6.75
-5.01
-2.41
1.46
6.92
14.00
22.43
31.48
40.25
47.82
53.60
57.43
59.62
60.71
61.32
61.90
62.56
63.17
63.45
63.14
62.12
60.37
57.93
54.76
50.77
45.82
39.85
32.98
25.47
17.77
10.40
3.79
-1.87
-6.69
-11.11
-15.64
-20.70
-26.37
-32.24
-37.43
-40.89
-41.82
-39.97
-35.94
-31.07
-27.16
-25.87
-28.21
-34.20
-42.86
-52.55
-61.37
-67.62
-70.12
-68.32
-62.46
-53.43
-42.72
-32.15
-23.45
-17.84
-15.75
-16.73
-19.77
-23.63
-27.20
-29.76
-31.01
-31.00
-30.02
-28.46
-26.68
-24.89
-23.13
-21.30
-19.27
-17.00
-14.49
-11.81
-8.93
-5.82
-2.45
1.02
4.28
6.91
8.54
9.10
8.79
8.07
7.45
7.38
8.05
9.35
10.86
11.93
11.86
10.13
6.58
1.52
-4.43
-10.44
-15.76
-19.85
-22.51
-23.97
-24.92
-26.28
-28.86
-32.95
-38.10
-43.20
-46.91
-48.30
-47.15
-44.00
-39.71
-35.08
-30.56
-26.20
-21.98
-17.93
-14.19
-10.89
-7.95
-5.12
-2.09
1.25
4.66
7.66
9.71
10.57
10.50
10.09
10.06
10.91
12.77
15.42
18.51
21.73
24.79
27.44
29.32
29.98
29.18
26.99
23.88
20.55
17.55
15.04
12.73
10.07
6.68
2.55
-1.97
-6.32
-10.07
-13.15
-15.86
-18.76
-22.44
-27.29
-33.34
-40.23
-47.18
-53.18
-57.18
-58.28
-56.02
-50.50
-42.35
-32.63
-22.60
-13.40
-5.76
0.12
4.55
8.13
11.49
14.94
18.41
21.55
23.98
25.56
26.47
27.18
28.21
29.97
32.51
35.56
38.56
40.85
41.87
41.41
39.62
36.95
33.95
31.06
28.44
26.05
23.70
21.26
18.71
16.08
13.42
10.75
8.00
5.10
2.03
-1.21
-4.56
-7.93
-11.25
-14.46
-17.59
-20.76
-24.11
-27.84
-32.10
-37.02
-42.72
-49.16
-56.10
-62.83
-68.22
-70.91
-69.77
-64.35
-55.10
-43.22
-30.25
-17.60
-6.21
3.50
11.55
18.13
23.52
27.98
31.70
34.77
37.23
39.16
40.66
41.92
43.19
44.64
46.31
48.07
49.76
51.20
52.30
52.94
53.04
52.49
51.21
49.27
46.86
44.19
41.46
38.76
36.10
33.38
30.45
27.18
23.53
19.64
15.78
12.24
9.22
6.63
4.19
1.45
-1.98
-6.25
-11.29
-16.81
-22.38
-27.62
-32.28
-36.34
-40.15
-44.32
-49.55
-56.29
-64.37
-72.80
-80.03
-84.29
-84.12
-78.87
-68.87
-55.31
-39.98
-24.72
-11.02
0.29
9.09
15.78
20.96
25.16
28.74
31.89
34.73
37.41
40.02
42.65
45.23
47.66
49.78
51.52
52.84
53.78
54.40
54.78
55.01
55.09
54.98
54.50
53.47
51.72
49.24
46.17
42.67
38.96
35.19
31.52
28.03
24.77
21.71
18.73
15.76
12.80
9.91
7.11
4.24
1.02
-2.92
-7.77
-13.47
-19.60
-25.65
-31.13
-35.77
-39.48
-42.47
-45.12
-48.14
-52.29
-58.13
-65.59
-73.74
-80.85
-84.89
-84.25
-78.33
-67.77
-54.14
-39.48
-25.62
-13.82
-4.51
2.52
7.90
12.41
16.63
20.80
24.83
28.46
31.43
33.66
35.27
36.59
38.01
39.92
42.56
45.93
49.76
53.55
56.75
58.92
59.89
59.72
58.55
56.55
53.77
50.32
46.41
42.44
38.87
35.99
33.83
32.09
30.33
28.23
25.61
22.55
19.22
15.86
12.59
9.55
6.76
4.19
1.73
-0.87
-3.88
-7.52
-11.88
-16.82
-22.01
-27.00
-31.47
-35.31
-38.68
-42.02
-45.83
-50.59
-56.60
-63.74
-71.49
-78.75
-84.02
-85.76
-82.88
-75.15
-63.38
-49.21
-34.56
-21.11
-9.79
-0.82
6.09
11.44
15.69
19.24
22.42
25.56
28.88
32.37
35.84
38.96
41.48
43.31
44.61
45.62
46.58
47.58
48.58
49.46
50.09
50.33
49.99
48.89
46.88
44.05
40.70
37.34
34.44
32.28
30.81
29.73
28.70
27.45
25.90
24.09
22.13
20.06
17.84
15.42
12.78
9.94
7.00
4.06
1.22
-1.49
-4.07
-6.61
-9.25
-12.18
-15.58
-19.55
-24.01
-28.69
-33.22
-37.29
-40.77
-43.91
-47.25
-51.49
-57.11
-64.07
-71.64
-78.51
-83.10
-84.04
-80.65
-73.09
-62.41
-50.17
-38.06
-27.40
-18.84
-12.36
-7.43
-3.35
0.41
4.12
7.76
11.26
14.62
17.96
21.42
25.02
28.54
31.67
34.12
35.83
36.98
37.87
38.79
39.83
40.90
41.83
42.43
42.61
42.34
41.71
40.78
39.65
38.41
37.06
35.54
33.78
31.68
29.26
26.67
24.14
21.86
19.83
17.94
15.96
13.72
11.13
8.19
5.00
1.64
-1.79
-5.16
-8.42
-11.59
-14.82
-18.32
-22.29
-26.76
-31.60
-36.54
-41.36
-46.02
-50.66
-55.55
-60.97
-67.05
-73.64
-80.35
-86.40
-90.74
-92.25
-90.03
-83.81
-74.07
-62.04
-49.24
-37.00
-25.94
-15.99
-6.55
2.93
12.57
21.91
30.11
36.48
40.73
43.11
44.18
44.54
44.57
44.35
43.82
42.91
41.67
40.27
38.87
37.56
36.40
35.37
34.57
34.15
34.31
35.18
36.66
38.56
40.55
42.40
44.05
45.60
47.24
49.01
50.73
52.02
52.47
51.84
50.14
47.56
44.36
40.75
36.83
32.65
28.28
23.85
19.54
15.51
11.77
8.26
4.81
1.24
-2.52
-6.55
-10.95
-15.92
-21.82
-29.08
-38.09
-48.94
-61.20
-73.84
-85.26
-93.70
-97.75
-96.84
-91.46
-83.01
-73.29
-63.95
-56.03
-49.86
-45.30
-42.03
-39.77
-38.27
-37.21
-36.07
-34.19
-31.00
-26.27
-20.19
-13.37
-6.53
-0.17
5.52
10.73
15.87
21.21
26.78
32.22
36.89
40.11
41.41
40.71
38.36
35.03
31.45
28.19
25.44
23.14
21.04
19.00
16.98
15.03
13.07
10.93
8.40
5.58
2.92
1.26
1.41
3.77
8.09
13.50
18.85
23.19
25.95
27.00
26.49
24.64
21.59
17.50
12.51
6.75
0.22
-7.23
-15.80
-25.45
-35.72
-45.45
-52.85
-55.86
-52.72
-42.61
-26.22
-5.67
16.04
35.95
52.11
64.09
72.63
78.97
84.03
87.97
90.43
91.01
89.76
87.33
84.58
82.12
79.90
77.05
71.94
62.43
46.23
21.33
-13.39
-57.56
-108.98
-163.78
-217.03
-263.40
-297.92
-316.64
-317.20
-299.42
-265.52
-219.83
-167.85
-114.92
-65.08
-20.65
17.40
48.83
73.68
92.26
105.40
114.59
121.63
127.98
134.16
139.71
143.85
146.15
146.89
146.83
146.57
146.07
144.67
141.65
136.73
130.54
124.42
120.04
118.98
122.35
130.75
144.00
161.18
180.73
200.92
220.47
238.99
257.03
275.51
294.77
313.85
330.16
340.14
340.32
328.47
304.37
269.81
228.00
182.69
137.21
93.92
53.96
17.34
-16.63
-48.93
-80.37
-111.46
-142.47
-173.36
-204.07
-234.53
-264.85
-295.55
-327.74
-363.06
-403.39
-449.73
-501.07
-553.66
-601.29
-636.82
-654.20
-650.54
-626.79
-587.24
-537.79
-484.14
-430.61
-379.92
-333.82
-293.67
-260.84
-236.41
-220.82
-213.33
-211.96
-213.48
-213.77
-208.66
-194.86
-170.69
-136.46
-94.31
-47.58
-0.10
44.58
83.63
115.27
138.87
154.94
164.95
171.00
175.27
179.52
184.69
190.87
197.54
203.97
209.45
213.37
215.32
214.91
212.01
206.63
199.03
189.79
179.72
169.63
160.17
151.65
144.01
137.01
130.42
124.08
118.02
112.28
106.83
101.56
96.35
91.09
85.76
80.35
74.94
69.57
64.30
59.21
54.40
49.92
45.76
41.85
38.05
34.28
30.55
26.95
23.58
20.52
17.68
14.86
11.77
8.23
4.17
-0.26
-4.73
-8.97
-12.77
-16.22
-19.58
-23.15
-27.13
-31.57
-36.42
-41.68
-47.39
-53.52
-59.80
-65.53
-69.69
-71.16
-69.20
-63.61
-54.88
-43.97
-32.00
-19.97
-8.68
1.30
9.64
16.18
21.02
24.49
27.07
29.28
31.49
33.85
36.31
38.71
40.88
42.69
44.15
45.32
46.28
47.07
47.68
48.10
48.32
48.31
48.04
47.42
46.40
44.96
43.17
41.22
39.31
37.53
35.83
34.07
32.10
29.86
27.45
25.04
22.77
20.66
18.60
16.45
14.12
11.61
9.00
6.39
3.80
1.21
-1.46
-4.33
-7.49
-10.99
-14.85
-19.01
-23.27
-27.42
-31.19
-34.47
-37.34
-40.11
-43.26
-47.32
-52.56
-58.86
-65.54
-71.45
-75.19
-75.52
-71.74
-63.99
-53.25
-41.07
-29.07
-18.52
-9.94
-3.15
2.50
7.75
13.01
18.27
23.09
27.01
29.71
31.25
31.97
32.29
32.52
32.77
33.01
33.08
32.83
32.07
30.65
28.51
25.90
23.51
22.42
23.68
27.80
34.27
41.56
47.68
50.98
50.98
48.59
45.63
43.95
44.48
46.74
49.24
50.25
48.79
45.05
40.19
35.62
32.08
29.32
26.31
21.85
15.43
7.51
-0.59
-7.34
-11.71
-13.55
-13.67
-13.36
-13.87
-15.95
-19.77
-25.05
-31.38
-38.38
-45.73
-53.11
-60.08
-66.08
-70.66
-73.56
-74.86
-74.88
-74.00
-72.41
-70.00
-66.38
-61.09
-53.82
-44.63
-33.97
-22.62
-11.51
-1.48
6.80
12.87
16.60
18.11
17.87
16.68
15.52
15.28
16.57
19.45
23.44
27.66
31.14
33.16
33.41
32.14
30.04
27.95
26.57
26.21
26.67
27.36
27.69
27.23
25.93
24.02
21.81
19.49
17.15
14.87
12.83
11.36
10.84
11.43
13.03
15.22
17.47
19.36
20.70
21.58
22.20
22.66
22.99
23.06
22.72
21.93
20.83
19.73
18.97
18.79
19.17
19.80
20.14
19.59
17.75
14.78
11.41
8.86
8.53
11.38
17.62
26.56
36.83
46.83
55.25
61.43
65.47
67.94
69.14
68.42
63.81
52.43
31.30
-1.38
-45.48
-98.78
-157.44
-216.84
-272.25
-319.26
-354.09
-373.88
-376.99
-363.38
-334.55
-293.08
-241.78
-183.30
-120.41
-56.64
3.50
55.15
94.74
121.59
138.46
150.31
161.74
174.46
186.39
192.77
188.77
172.19
144.81
111.80
79.71
54.41
39.69
37.09
46.28
65.65
92.46
123.05
152.88
177.10
191.35
192.96
181.73
160.11
132.57
104.22
79.11
58.99
43.03
28.83
13.94
-2.68
-20.23
-36.70
-50.26
-60.60
-69.35
-79.31
-92.90
-110.71
-130.81
-149.24
-161.49
-164.15
-156.05
-138.44
-114.28
-87.14
-60.29
-36.11
-16.17
-1.36
7.92
11.86
11.49
8.56
5.17
3.07
3.19
5.36
8.68
11.97
14.36
15.44
15.30
14.33
13.05
12.00
11.57
11.95
13.02
14.37
15.41
15.64
14.94
13.57
12.13
11.17
10.92
11.14
11.28
10.65
8.76
5.40
0.72
-4.89
-10.92
-16.95
-22.71
-28.13
-33.20
-37.82
-41.60
-43.92
-43.95
-40.99
-34.78
-25.74
-14.95
-3.92
5.89
13.55
18.88
22.46
25.35
28.92
34.41
42.50
52.70
63.00
70.02
69.96
60.04
39.80
11.68
-19.54
-48.16
-69.01
-78.52
-75.08
-58.97
-32.11
1.94
38.43
72.11
98.58
115.49
122.98
123.04
118.14
109.90
98.56
83.54
64.39
41.66
16.92
-7.83
-30.96
-51.49
-68.96
-82.83
-92.07
-95.44
-92.34
-83.58
-71.72
-60.37
-53.08
-52.10
-57.87
-69.19
-83.97
-100.03
-115.44
-128.54
-137.61
-140.88
-136.80
-124.56
-104.73
-79.46
-52.20
-26.74
-6.13
8.30
17.29
23.22
28.99
36.68
46.83
58.34
69.26
77.69
82.64
84.22
83.42
81.62
80.14
79.98
81.57
84.72
88.46
91.20
90.88
85.49
73.64
55.22
31.68
5.91
-18.56
-38.65
-52.75
-61.26
-66.27
-70.56
-76.26
-84.03
-92.88
-100.77
-105.63
-106.23
-102.63
-96.03
-88.31
-81.37
-76.52
-74.00
-72.83
-70.94
-65.82
-55.44
-39.04
-17.71
5.90
28.34
46.47
58.35
63.66
63.51
59.81
54.56
49.20
44.31
39.68
34.68
28.77
21.87
14.62
8.09
3.42
1.34
1.90
4.58
8.58
13.14
17.65
21.70
24.98
27.27
28.54
28.92
28.75
28.35
27.89
27.33
26.54
25.49
24.34
23.37
22.82
22.71
22.88
23.10
23.20
23.27
23.47
23.92
24.54
25.01
24.96
24.13
22.60
20.76
19.13
18.16
17.99
18.40
18.97
19.23
18.89
18.00
16.81
15.65
14.70
13.87
12.82
11.14
8.56
5.12
1.15
-2.82
-6.29
-9.01
-11.13
-13.15
-15.71
-19.22
-23.64
-28.45
-32.77
-35.89
-37.53
-38.06
-38.23
-38.90
-40.67
-43.75
-47.97
-52.89
-57.84
-61.98
-64.45
-64.46
-61.62
-56.06
-48.49
-39.94
-31.48
-23.94
-17.74
-12.84
-8.92
-5.55
-2.32
0.97
4.25
7.32
9.83
11.57
12.52
12.91
13.10
13.50
14.37
15.80
17.76
20.04
22.37
24.43
25.94
26.72
26.70
25.94
24.55
22.68
20.46
18.13
16.03
14.55
13.99
14.47
15.79
17.53
19.23
20.56
21.54
22.46
23.67
25.31
27.20
28.85
29.77
29.71
28.70
27.06
25.13
23.04
20.66
17.71
14.03
9.70
5.20
1.08
-2.16
-4.37
-5.77
-6.81
-8.00
-9.77
-12.37
-15.96
-20.59
-26.17
-32.36
-38.50
-43.57
-46.45
-46.26
-42.70
-36.17
-27.76
-18.84
-10.66
-4.00
1.00
4.73
7.82
10.79
13.87
16.99
19.92
22.47
24.55
26.26
27.71
28.87
29.55
29.43
28.22
25.83
22.57
19.02
15.79
13.29
11.50
10.04
8.39
6.19
3.42
0.32
-2.87
-6.11
-9.71
-14.05
-19.28
-25.06
-30.61
-34.94
-37.26
-37.31
-35.42
-32.36
-29.00
-26.03
-23.76
-22.16
-20.89
-19.54
-17.76
-15.41
-12.61
-9.79
-7.59
-6.67
-7.55
-10.35
-14.78
-20.12
-25.53
-30.33
-34.24
-37.56
-40.98
-45.24
-50.71
-57.15
-63.62
-68.81
-71.37
-70.38
-65.61
-57.51
-47.10
-35.64
-24.37
-14.27
-5.91
0.62
5.59
9.51
12.90
16.15
19.50
22.97
26.48
29.86
32.89
35.36
37.09
38.00
38.24
38.13
38.13
38.60
39.65
41.05
42.30
42.87
42.43
41.02
39.06
37.13
35.70
34.94
34.79
34.95
35.19
35.33
35.24
34.83
33.91
32.34
30.12
27.40
24.50
21.76
19.42
17.45
15.64
13.67
11.24
8.19
4.49
0.23
-4.40
-9.12
-13.65
-17.75
-21.39
-24.77
-28.30
-32.43
-37.54
-43.73
-50.83
-58.42
-65.80
-72.12
-76.36
-77.50
-74.83
-68.24
-58.39
-46.57
-34.36
-23.11
-13.66
-6.21
-0.51
3.90
7.55
10.87
14.25
17.93
21.97
26.14
30.05
33.27
35.60
37.12
38.20
39.26
40.53
42.04
43.58
44.91
45.88
46.38
46.42
45.97
45.08
43.79
42.18
40.39
38.50
36.59
34.66
32.69
30.65
28.54
26.43
24.44
22.77
21.52
20.68
20.02
19.16
17.72
15.49
12.51
8.99
5.26
1.49
-2.18
-5.77
-9.26
-12.64
-15.94
-19.27
-22.82
-26.73
-30.96
-35.28
-39.36
-43.09
-46.69
-50.83
-56.31
-63.62
-72.54
-81.88
-89.80
-94.40
-94.40
-89.69
-81.32
-71.11
-60.92
-51.97
-44.66
-38.64
-33.29
-28.12
-22.92
-17.74
-12.63
-7.64
-2.90
1.21
4.20
5.77
6.36
7.47
11.40
20.52
36.11
57.54
82.25
106.45
126.50
139.87
145.61
143.97
135.84
122.30
104.78
85.39
66.97
52.51
44.03
41.72
43.56
46.22
46.40
42.17
33.62
22.45
10.98
1.19
-5.86
-10.06
-11.88
-11.92
-10.78
-9.02
-7.25
-6.18
-6.55
-8.89
-13.29
-19.29
-25.98
-32.32
-37.51
-41.31
-43.97
-46.05
-48.11
-50.65
-53.94
-58.20
-63.56
-69.88
-76.61
-82.71
-86.85
-87.74
-84.49
-76.88
-65.34
-50.82
-34.65
-18.35
-3.40
8.99
18.13
24.00
27.09
28.19
27.97
26.89
25.20
23.22
21.44
20.48
20.83
22.69
25.86
29.97
34.72
39.91
45.33
50.59
55.02
58.00
59.21
58.89
57.67
56.29
55.09
54.01
52.70
50.90
48.64
46.19
43.82
41.50
39.01
36.15
33.01
30.04
27.82
26.70
26.49
26.56
26.09
24.46
21.38
16.94
11.34
4.73
-2.83
-11.20
-20.06
-28.90
-37.12
-44.30
-50.34
-55.43
-59.85
-63.75
-66.94
-68.94
-69.14
-67.06
-62.54
-55.84
-47.53
-38.36
-29.12
-20.36
-12.38
-5.26
1.05
6.51
10.93
14.01
15.57
15.76
15.21
14.91
15.89
18.82
23.74
30.07
36.83
43.03
48.04
51.80
54.61
56.92
59.00
60.75
61.73
61.39
59.28
55.24
49.45
42.22
33.95
24.96
15.48
5.72
-4.10
-13.62
-22.49
-30.39
-37.17
-42.80
-47.45
-51.28
-54.45
-57.03
-59.10
-60.97
-63.41
-67.74
-75.60
-88.40
-106.59
-129.07
-153.07
-174.69
-189.88
-195.50
-190.16
-174.49
-150.79
-122.39
-92.88
-65.46
-42.55
-25.49
-14.39
-8.13
-4.63
-1.35
3.92
12.47
24.23
38.04
52.05
64.48
74.18
80.97
85.51
88.97
92.51
96.76
101.58
105.98
108.56
107.95
103.50
95.49
85.11
74.07
64.02
56.14
51.03
48.76
49.01
51.21
54.44
57.50
59.07
57.98
53.59
46.02
36.14
25.27
14.81
5.81
-1.15
-6.14
-9.74
-12.84
-16.34
-20.82
-26.38
-32.61
-38.87
-44.63
-49.67
-54.07
-57.90
-60.95
-62.67
-62.37
-59.62
-54.65
-48.35
-42.05
-37.04
-34.09
-33.20
-33.61
-34.23
-34.00
-32.38
-29.41
-25.54
-21.23
-16.66
-11.49
-5.15
2.78
12.24
22.47
32.16
39.78
43.99
43.93
39.47
31.34
21.03
10.65
2.45
-1.69
-0.78
4.98
14.29
25.11
35.29
43.05
47.36
47.98
45.27
39.93
32.83
24.86
16.92
9.82
4.14
0.12
-2.55
-4.66
-7.24
-11.18
-16.86
-23.90
-31.21
-37.33
-40.98
-41.59
-39.55
-36.23
-33.28
-32.04
-33.15
-36.28
-40.52
-44.73
-47.80
-48.57
-45.98
-39.30
-28.69
-15.42
-1.72
9.92
17.58
20.31
18.15
11.61
1.52
-11.08
-24.59
-36.72
-44.80
-46.46
-40.32
-26.36
-5.70
19.79
47.84
76.00
101.55
121.63
133.77
136.56
130.02
115.97
97.63
78.86
63.23
53.00
48.59
48.74
51.09
53.21
53.45
51.30
47.13
41.76
35.89
29.96
24.17
18.71
13.79
9.65
6.31
3.49
0.61
-2.89
-7.34
-12.57
-17.99
-22.82
-26.42
-28.64
-29.82
-30.64
-31.86
-33.99
-37.20
-41.37
-46.14
-51.07
-55.72
-59.52
-61.89
-62.25
-60.15
-55.43
-48.36
-39.55
-30.00
-20.79
-12.86
-6.64
-1.99
1.75
5.37
9.39
13.71
17.62
20.11
20.28
17.84
13.25
7.67
2.58
-0.61
-0.99
1.59
6.47
12.28
17.26
19.80
18.88
14.58
8.08
1.39
-3.39
-4.82
-2.65
2.01
7.30
11.37
13.24
13.07
11.96
11.25
11.75
13.39
15.34
16.51
16.20
14.42
11.80
9.21
7.17
5.74
4.56
3.33
2.18
1.78
3.00
6.33
11.51
17.32
22.04
24.04
22.35
16.94
8.65
-1.17
-11.13
-20.10
-27.51
-33.45
-38.50
-43.52
-49.24
-55.88
-62.94
-69.28
-73.47
-74.24
-71.04
-64.13
-54.62
-44.03
-33.94
-25.47
-19.09
-14.67
-11.62
-9.30
-7.09
-4.56
-1.48
2.23
6.40
10.60
14.17
16.40
16.85
15.67
13.56
11.68
11.07
12.31
15.28
19.26
23.28
26.48
28.31
28.61
27.55
25.46
22.82
20.21
18.24
17.43
18.08
20.05
22.82
25.56
27.37
27.59
25.97
22.81
18.78
14.69
11.18
8.40
5.95
3.12
-0.74
-5.85
-11.74
-17.34
-21.36
-22.84
-21.52
-18.11
-14.06
-11.02
-10.29
-12.27
-16.37
-21.31
-25.65
-28.34
-29.08
-28.35
-27.19
-26.89
-28.68
-33.29
-40.70
-49.85
-58.74
-64.84
-65.89
-60.62
-49.34
-33.77
-16.53
-0.35
12.75
21.71
26.42
27.54
26.10
23.29
20.18
17.51
15.67
14.64
14.25
14.30
14.71
15.56
16.93
18.66
20.37
21.44
21.36
20.03
17.94
16.22
16.31
19.53
26.56
37.17
50.12
63.43
74.80
82.19
84.30
80.83
72.62
61.30
48.91
37.33
27.82
20.84
16.02
12.47
9.19
5.37
0.75
-4.42
-9.50
-13.75
-16.62
-18.00
-18.20
-17.81
-17.51
-17.84
-19.18
-21.84
-26.15
-32.59
-41.54
-53.07
-66.69
-81.29
-95.40
-107.56
-116.64
-122.01
-123.32
-120.36
-113.01
-101.42
-86.20
-68.51
-49.91
-32.07
-16.48
-4.52
2.60
3.94
-0.69
-10.29
-22.31
-33.24
-39.66
-39.52
-32.93
-22.08
-10.24
-0.48
5.22
6.27
3.44
-1.52
-6.01
-7.08
-2.10
10.17
28.78
50.55
71.05
86.21
93.92
94.50
90.07
83.13
75.35
67.13
58.20
48.61
39.22
31.57
26.98
25.62
26.28
26.83
25.28
20.73
13.76
5.92
-1.18
-6.72
-11.03
-15.19
-20.21
-26.32
-32.79
-38.33
-41.88
-43.20
-42.99
-42.38
-42.33
-43.04
-43.91
-43.94
-42.21
-38.39
-32.87
-26.52
-20.39
-15.29
-11.64
-9.46
-8.39
-7.84
-7.17
-5.76
-3.18
0.79
6.16
12.71
20.03
27.53
34.35
39.53
42.19
41.78
38.43
32.94
26.64
21.05
17.39
16.38
18.13
22.19
27.70
33.52
38.41
41.27
41.45
38.88
34.22
28.66
23.50
19.77
17.87
17.40
17.37
16.48
13.57
8.06
0.11
-9.43
-19.27
-28.08
-34.92
-39.36
-41.62
-42.33
-42.33
-42.40
-43.06
-44.57
-47.01
-50.43
-54.86
-60.28
-66.46
-72.85
-78.56
-82.57
-83.86
-81.72
-75.92
-66.65
-54.65
-41.04
-27.17
-14.31
-3.44
5.03
11.27
16.00
20.19
24.73
30.14
36.34
42.67
48.15
51.86
53.36
52.91
51.34
49.78
49.10
49.57
50.80
51.92
52.05
50.66
47.84
44.30
41.08
39.11
38.81
39.88
41.40
42.29
41.72
39.51
36.15
32.54
29.59
27.86
27.36
27.67
28.09
27.81
26.14
22.51
16.55
8.16
-2.38
-14.44
-27.08
-39.17
-49.70
-57.99
-63.77
-67.11
-68.26
-67.49
-65.11
-61.61
-57.75
-54.53
-52.82
-53.00
-54.63
-56.55
-57.34
-55.82
-51.47
-44.35
-34.87
-23.39
-10.21
4.32
19.40
33.57
44.88
51.40
52.04
47.02
38.07
27.86
19.15
13.97
13.07
16.01
21.53
28.15
34.69
40.42
45.03
48.41
50.63
51.85
52.45
52.83
53.19
53.43
53.14
51.90
49.63
46.76
44.14
42.67
42.79
44.15
45.72
46.06
43.87
38.48
30.11
19.85
9.45
0.73
-4.90
-6.91
-5.84
-3.02
-0.09
1.63
1.44
-0.82
-5.06
-11.19
-19.14
-28.72
-39.37
-50.16
-60.06
-68.23
-74.18
-77.81
-79.10
-78.06
-74.61
-68.66
-60.13
-49.11
-35.71
-20.21
-3.07
14.80
31.98
46.52
56.25
59.24
54.45
42.16
24.24
3.73
-15.82
-31.39
-41.13
-44.65
-42.60
-36.10
-26.17
-13.69
0.26
13.97
25.18
31.65
32.12
27.09
18.86
10.74
5.76
5.45
9.26
14.99
19.80
21.40
18.95
13.20
5.95
-0.78
-5.54
-7.84
-8.04
-6.92
-5.21
-3.29
-1.16
1.24
3.71
5.47
5.26
1.70
-6.18
-18.28
-33.14
-48.11
-60.01
-66.08
-64.96
-57.18
-44.98
-31.50
-19.68
-11.40
-7.02
-5.68
-5.78
-5.79
-4.62
-1.86
2.17
6.73
10.86
13.70
14.83
14.46
13.52
13.54
16.16
22.47
32.48
44.81
56.88
65.65
68.66
64.83
54.88
41.01
26.09
12.78
2.84
-3.11
-5.37
-4.86
-2.75
-0.25
1.55
1.86
0.38
-2.73
-6.87
-11.28
-15.37
-18.89
-21.89
-24.53
-26.79
-28.35
-28.68
-27.30
-24.19
-20.02
-16.16
-14.35
-16.13
-22.22
-32.06
-43.77
-54.63
-61.85
-63.40
-58.59
-48.18
-33.96
-18.15
-2.78
10.64
21.24
28.68
33.14
35.18
35.67
35.56
35.54
35.78
35.88
35.15
33.13
30.02
26.86
25.24
26.64
31.76
40.04
49.61
57.77
61.74
59.45
50.07
34.31
14.21
-7.27
-26.81
-41.53
-49.53
-50.29
-44.87
-35.47
-24.78
-15.23
-8.23
-3.94
-1.57
0.12
2.10
4.58
6.98
8.18
7.10
3.26
-2.91
-10.05
-16.32
-20.12
-20.79
-19.01
-16.68
-16.19
-19.44
-26.93
-37.45
-48.37
-56.67
-59.94
-57.20
-49.03
-37.22
-24.04
-11.51
-0.98
7.09
12.93
17.25
20.93
24.79
29.46
35.29
42.25
50.00
57.96
65.42
71.69
76.33
79.14
80.24
79.92
78.47
75.96
72.33
67.35
60.99
53.54
45.72
38.44
32.57
28.59
26.39
25.28
24.29
22.56
19.74
16.12
12.59
10.18
9.66
11.15
14.05
17.16
19.10
18.71
15.36
9.00
0.13
-10.54
-22.24
-34.36
-46.49
-58.40
-69.97
-81.12
-91.71
-101.51
-110.01
-116.54
-120.33
-120.85
-118.12
-113.00
-106.95
-101.62
-98.05
-96.08
-94.25
-90.34
-82.36
-69.56
-53.06
-35.43
-19.76
-8.44
-2.19
0.04
0.53
1.78
5.67
12.99
23.49
36.15
49.43
61.61
70.97
76.23
76.87
73.42
67.41
60.94
55.94
53.50
53.63
55.28
56.87
56.90
54.48
49.59
43.06
36.10
29.93
25.25
22.05
19.77
17.51
14.63
10.85
6.34
1.55
-3.15
-7.56
-11.73
-15.77
-19.71
-23.44
-26.83
-29.98
-33.43
-38.32
-46.05
-57.87
-73.85
-92.38
-110.02
-122.20
-124.50
-114.00
-90.16
-54.97
-12.49
32.07
73.28
106.49
128.51
138.11
136.10
125.10
108.80
90.96
74.57
61.39
51.76
44.96
39.35
32.90
23.51
9.58
-9.55
-33.46
-60.87
-90.29
-120.51
-150.88
-180.91
-209.70
-235.44
-255.30
-266.09
-265.10
-250.84
-223.34
-184.03
-135.28
-80.09
-21.84
35.87
89.47
135.82
172.81
199.60
216.63
225.28
227.36
224.63
218.56
210.21
200.30
189.33
177.61
165.44
153.10
140.82
128.66
116.58
104.48
92.41
80.71
70.01
61.03
54.13
49.10
45.09
40.87
35.31
27.73
18.13
7.04
-4.73
-16.35
-27.11
-36.48
-44.22
-50.42
-55.63
-60.69
-66.45
-73.21
-80.48
-86.86
-90.53
-89.93
-84.52
-74.98
-62.90
-50.12
-37.98
-26.96
-16.83
-7.26
1.66
9.17
14.20
15.93
14.28
10.08
4.63
-0.86
-5.71
-9.76
-13.12
-15.73
-17.24
-17.09
-14.91
-10.83
-5.47
0.28
5.64
10.15
13.66
16.04
17.00
16.07
12.89
7.62
1.18
-4.98
-9.45
-11.54
-11.67
-11.03
-10.83
-11.39
-11.88
-10.68
-6.46
0.94
10.08
18.48
23.61
23.98
19.57
11.66
2.06
-7.59
-16.25
-23.53
-29.60
-35.02
-40.60
-47.24
-55.54
-65.46
-76.10
-85.69
-92.12
-93.54
-89.06
-78.98
-64.77
-48.62
-32.83
-19.19
-8.56
-0.71
5.53
11.58
18.33
25.35
30.81
32.04
26.73
14.24
-3.75
-23.56
-40.72
-51.44
-53.80
-47.99
-35.72
-19.26
-0.65
18.57
37.12
53.64
66.63
74.71
77.18
74.32
67.44
58.47
49.23
40.95
33.99
28.06
22.69
17.58
12.79
8.54
4.98
2.03
-0.65
-3.54
-7.02
-11.36
-16.67
-23.01
-30.29
-38.34
-46.77
-54.94
-62.07
-67.38
-70.44
-71.33
-70.80
-70.09
-70.61
-73.41
-78.71
-85.76
-92.96
-98.43
-100.58
-98.46
-91.97
-81.62
-68.34
-53.14
-37.16
-21.47
-7.05
5.47
15.94
24.69
32.36
39.58
46.70
53.63
59.91
65.03
68.64
70.72
71.58
71.66
71.51
71.53
71.99
72.92
74.09
75.04
75.22
74.17
71.73
68.12
63.81
59.37
55.21
51.52
48.27
45.35
42.69
40.21
37.77
35.13
31.97
28.04
23.40
18.45
13.77
9.92
7.15
5.26
3.77
2.12
-0.09
-2.98
-6.46
-10.37
-14.56
-18.98
-23.62
-28.37
-33.03
-37.40
-41.41
-45.32
-49.75
-55.42
-62.77
-71.52
-80.51
-87.80
-91.37
-89.72
-82.57
-70.90
-56.62
-41.89
-28.46
-17.25
-8.40
-1.49
4.12
9.00
13.55
18.02
22.58
27.29
32.11
36.90
41.34
45.13
48.06
50.12
51.50
52.48
53.35
54.29
55.30
56.30
57.08
57.42
57.12
56.04
54.19
51.76
49.07
46.41
43.96
41.74
39.67
37.67
35.73
33.89
32.16
30.44
28.61
26.55
24.21
21.69
19.11
16.56
14.06
11.55
8.97
6.25
3.34
0.19
-3.17
-6.63
-9.99
-13.04
-15.65
-17.97
-20.31
-22.99
-26.25
-30.07
-34.29
-38.70
-43.17
-47.72
-52.44
-57.47
-62.92
-68.93
-75.53
-82.48
-89.07
-94.13
-96.23
-94.16
-87.44
-76.61
-63.06
-48.60
-34.92
-23.10
-13.47
-5.76
0.60
6.19
11.33
16.15
20.60
24.58
28.10
31.26
34.18
36.96
39.65
42.23
44.68
46.99
49.15
51.13
52.83
54.11
54.79
54.71
53.77
52.04
49.72
47.21
44.92
43.17
42.02
41.22
40.30
38.80
36.51
33.52
30.24
27.13
24.47
22.32
20.54
18.88
17.11
15.05
12.60
9.70
6.39
2.83
-0.76
-4.12
-7.14
-9.83
-12.37
-15.02
-17.95
-21.27
-24.96
-28.91
-33.02
-37.16
-41.23
-45.20
-49.20
-53.50
-58.47
-64.37
-71.10
-78.02
-83.92
-87.29
-86.75
-81.58
-72.03
-59.31
-45.21
-31.50
-19.51
-9.79
-2.23
3.72
8.60
12.77
16.39
19.43
21.86
23.77
25.33
26.78
28.39
30.31
32.59
35.07
37.51
39.61
41.13
41.98
42.18
41.87
41.20
40.33
39.36
38.28
37.07
35.63
33.93
32.04
30.11
28.31
26.78
25.47
24.23
22.86
21.26
19.48
17.74
16.22
14.91
13.60
11.97
9.71
6.74
3.24
-0.42
-3.86
-6.83
-9.35
-11.67
-14.15
-17.08
-20.57
-24.50
-28.60
-32.56
-36.22
-39.55
-42.70
-45.89
-49.41
-53.54
-58.55
-64.48
-71.05
-77.44
-82.41
-84.60
-82.96
-77.16
-67.71
-55.88
-43.22
-31.15
-20.60
-11.90
-4.92
0.74
5.48
9.71
13.66
17.43
21.06
24.55
27.87
31.02
33.96
36.62
38.92
40.76
42.09
42.92
43.35
43.48
43.39
43.05
42.36
41.23
39.72
38.01
36.32
34.86
33.65
32.55
31.35
29.91
28.31
26.74
25.42
24.37
23.44
22.35
20.86
18.99
16.97
15.04
13.33
11.76
10.04
7.91
5.24
2.15
-1.14
-4.40
-7.50
-10.41
-13.17
-15.92
-18.81
-22.03
-25.67
-29.71
-33.91
-37.95
-41.57
-44.82
-48.07
-51.98
-57.13
-63.70
-71.28
-78.81
-84.85
-87.99
-87.24
-82.34
-73.80
-62.78
-50.75
-39.04
-28.62
-19.92
-12.88
-7.14
-2.23
2.31
6.77
11.34
16.00
20.57
24.84
28.53
31.52
33.82
35.60
37.15
38.76
40.60
42.65
44.70
46.50
47.78
48.37
48.21
47.32
45.75
43.61
41.06
38.40
35.96
33.97
32.48
31.29
30.03
28.40
26.33
23.99
21.68
19.65
17.98
16.64
15.55
14.68
13.93
13.15
12.04
10.24
7.55
4.05
0.13
-3.70
-7.08
-9.92
-12.49
-15.24
-18.53
-22.44
-26.72
-30.97
-34.87
-38.30
-41.41
-44.54
-48.06
-52.21
-57.14
-62.79
-68.92
-74.94
-79.96
-82.84
-82.53
-78.49
-70.95
-60.90
-49.70
-38.62
-28.47
-19.57
-11.82
-5.02
0.95
6.17
10.69
14.63
18.13
21.38
24.46
27.42
30.27
32.97
35.47
37.70
39.57
41.04
42.20
43.12
43.90
44.49
44.80
44.74
44.33
43.66
42.84
41.92
40.80
39.35
37.50
35.31
32.92
30.57
28.45
26.70
25.37
24.37
23.52
22.58
21.30
19.56
17.37
14.84
12.10
9.23
6.23
3.23
0.39
-2.07
-4.06
-5.77
-7.65
-10.24
-13.88
-18.53
-23.74
-28.86
-33.35
-36.88
-39.49
-41.53
-43.47
-45.87
-49.24
-53.91
-59.97
-67.14
-74.71
-81.52
-86.25
-87.61
-84.80
-77.79
-67.38
-55.04
-42.46
-31.05
-21.58
-14.10
-8.14
-2.98
1.92
6.85
11.81
16.63
21.15
25.26
28.96
32.25
35.13
37.56
39.50
41.01
42.25
43.50
44.95
46.62
48.28
49.53
49.97
49.43
48.03
46.12
44.13
42.35
40.87
39.58
38.29
36.79
34.94
32.76
30.40
28.10
26.14
24.65
23.54
22.58
21.35
19.55
17.00
13.83
10.28
6.66
3.25
0.15
-2.69
-5.46
-8.37
-11.62
-15.31
-19.43
-23.86
-28.42
-32.94
-37.32
-41.54
-45.66
-49.84
-54.38
-59.60
-65.77
-72.74
-79.87
-85.91
-89.36
-88.91
-83.96
-74.86
-62.83
-49.58
-36.72
-25.33
-15.86
-8.21
-2.02
3.09
7.44
11.26
14.85
18.46
22.27
26.25
30.17
33.67
36.42
38.27
39.36
40.01
40.62
41.54
42.90
44.63
46.42
47.84
48.47
48.02
46.46
44.03
41.13
38.19
35.54
33.32
31.53
30.07
28.81
27.62
26.44
25.26
24.11
23.04
21.94
20.58
18.68
16.04
12.63
8.73
4.74
1.02
-2.18
-4.88
-7.25
-9.57
-12.21
-15.54
-19.77
-24.87
-30.58
-36.37
-41.65
-46.02
-49.45
-52.33
-55.37
-59.29
-64.66
-71.50
-79.18
-86.43
-91.63
-93.21
-90.24
-82.69
-71.45
-58.07
-44.22
-31.28
-20.13
-11.04
-3.82
2.04
7.20
12.23
17.43
22.77
27.96
32.63
36.55
39.71
42.22
44.20
45.68
46.68
47.29
47.77
48.39
49.32
50.48
51.55
52.18
52.16
51.44
50.11
48.29
46.02
43.38
40.54
37.75
35.30
33.38
31.99
30.90
29.85
28.52
26.76
24.58
22.20
19.86
17.84
16.18
14.75
13.23
11.27
8.69
5.54
2.04
-1.54
-5.00
-8.27
-11.40
-14.48
-17.64
-20.98
-24.58
-28.47
-32.62
-36.96
-41.44
-46.10
-51.08
-56.61
-62.92
-70.06
-77.70
-85.02
-90.73
-93.39
-91.85
-85.69
-75.56
-62.96
-49.74
-37.47
-26.97
-18.27
-10.87
-4.17
2.28
8.61
14.74
20.55
25.87
30.58
34.59
37.88
40.53
42.67
44.47
46.03
47.42
48.66
49.80
50.88
51.87
52.59
52.74
52.07
50.50
48.23
45.69
43.37
41.63
40.53
39.87
39.35
38.65
37.58
36.14
34.44
32.64
30.85
29.08
27.29
25.39
23.31
21.03
18.57
15.94
13.14
10.17
7.03
3.76
0.39
-3.07
-6.67
-10.47
-14.49
-18.64
-22.78
-26.79
-30.62
-34.33
-38.03
-41.74
-45.48
-49.21
-53.05
-57.25
-62.13
-67.86
-74.18
-80.37
-85.25
-87.53
-86.24
-80.99
-72.17
-60.81
-48.33
-36.10
-25.23
-16.22
-9.08
-3.39
1.47
6.09
10.86
15.91
21.06
26.01
30.40
34.02
36.88
39.23
41.35
43.42
45.39
47.08
48.27
48.94
49.25
49.44
49.65
49.73
49.39
48.35
46.52
44.09
41.41
38.86
36.66
34.84
33.34
32.05
30.90
29.81
28.78
27.75
26.63
25.29
23.59
21.48
18.98
16.22
13.38
10.58
7.82
5.01
2.08
-0.91
-3.79
-6.47
-8.96
-11.54
-14.53
-18.19
-22.45
-26.95
-31.20
-34.88
-37.94
-40.66
-43.51
-47.04
-51.69
-57.65
-64.78
-72.47
-79.67
-85.03
-87.26
-85.46
-79.44
-69.85
-58.02
-45.61
-34.11
-24.43
-16.72
-10.53
-5.07
0.34
5.99
11.76
17.31
22.30
26.59
30.15
32.99
35.16
36.70
37.78
38.72
39.86
41.44
43.41
45.50
47.29
48.41
48.57
47.68
45.84
43.30
40.45
37.72
35.52
34.06
33.31
33.03
32.86
32.48
31.61
30.15
28.12
25.65
22.98
20.34
17.94
15.82
13.88
11.96
9.87
7.46
4.67
1.49
-2.02
-5.68
-9.29
-12.63
-15.66
-18.49
-21.36
-24.54
-28.11
-31.86
-35.51
-38.81
-41.74
-44.58
-47.80
-51.84
-56.94
-63.02
-69.65
-76.05
-81.23
-84.08
-83.71
-79.72
-72.33
-62.44
-51.40
-40.51
-30.73
-22.45
-15.49
-9.32
-3.40
2.60
8.69
14.62
20.01
24.58
28.28
31.28
33.89
36.37
38.87
41.35
43.68
45.73
47.37
48.55
49.24
49.48
49.34
48.88
48.17
47.24
46.07
44.62
42.91
41.00
38.93
36.74
34.44
32.04
29.64
27.43
25.62
24.28
23.35
22.53
21.54
20.15
18.28
15.97
13.30
10.35
7.15
3.80
0.44
-2.73
-5.54
-7.97
-10.16
-12.38
-14.99
-18.26
-22.28
-26.94
-31.93
-36.82
-41.19
-44.80
-47.71
-50.31
-53.22
-57.10
-62.37
-69.00
-76.32
-83.12
-87.89
-89.24
-86.35
-79.30
-69.00
-56.98
-44.84
-33.77
-24.35
-16.55
-9.96
-4.13
1.29
6.52
11.62
16.61
21.47
26.10
30.32
33.98
36.92
39.15
40.78
42.05
43.20
44.45
45.88
47.43
48.84
49.77
49.85
48.88
46.91
44.26
41.44
38.94
37.09
35.91
35.12
34.34
33.23
31.66
29.70
27.55
25.43
23.40
21.44
19.45
17.30
15.00
12.60
10.19
7.74
5.20
2.45
-0.54
-3.65
-6.63
-9.23
-11.36
-13.18
-15.11
-17.54
-20.73
-24.61
-28.88
-33.18
-37.27
-41.13
-44.93
-48.91
-53.30
-58.25
-63.91
-70.24
-76.98
-83.41
-88.40
-90.61
-88.96
-83.08
-73.51
-61.57
-48.92
-36.98
-26.56
-17.85
-10.56
-4.28
1.33
6.41
11.08
15.43
19.58
23.70
27.84
31.91
35.69
38.95
41.51
43.35
44.65
45.60
46.40
47.09
47.58
47.67
47.19
46.11
44.52
42.69
40.89
39.33
38.06
36.96
35.85
34.51
32.84
30.90
28.85
26.89
25.16
23.67
22.29
20.78
18.90
16.56
13.85
10.99
8.20
5.64
3.27
0.94
-1.43
-3.88
-6.29
-8.62
-10.90
-13.41
-16.48
-20.29
-24.75
-29.45
-33.92
-37.79
-40.99
-43.77
-46.48
-49.49
-53.11
-57.59
-63.12
-69.73
-76.98
-83.90
-89.01
-90.78
-88.11
-80.89
-69.99
-57.01
-43.74
-31.62
-21.37
-13.10
-6.37
-0.62
4.66
9.71
14.63
19.34
23.75
27.82
31.52
34.82
37.68
40.04
41.89
43.35
44.54
45.63
46.67
47.57
48.20
48.40
48.11
47.37
46.26
44.90
43.43
41.91
40.44
39.08
37.86
36.74
35.64
34.42
32.94
31.15
29.11
26.96
24.94
23.20
21.78
20.46
18.96
16.97
14.35
11.17
7.69
4.20
0.92
-2.08
-4.83
-7.34
-9.66
-11.83
-14.02
-16.49
-19.57
-23.47
-28.12
-33.19
-38.13
-42.47
-46.05
-49.14
-52.36
-56.47
-62.01
-69.00
-76.83
-84.30
-89.98
-92.55
-91.22
-85.94
-77.29
-66.38
-54.44
-42.58
-31.61
-22.01
-13.87
-7.00
-1.02
4.55
10.08
15.73
21.40
26.75
31.42
35.13
37.89
39.90
41.49
42.98
44.56
46.24
47.92
49.40
50.52
51.13
51.13
50.49
49.28
47.62
45.72
43.82
42.08
40.63
39.46
38.50
37.58
36.55
35.25
33.59
31.61
29.47
27.36
25.43
23.64
21.81
19.75
17.31
14.56
11.72
8.98
6.37
3.78
1.04
-1.86
-4.78
-7.51
-9.95
-12.21
-14.64
-17.59
-21.27
-25.56
-30.13
-34.62
-38.78
-42.55
-46.10
-49.75
-53.95
-59.14
-65.61
-73.26
-81.37
-88.61
-93.35
-94.15
-90.28
-82.08
-70.84
-58.32
-46.13
-35.34
-26.21
-18.44
-11.46
-4.74
2.08
9.16
16.41
23.61
30.44
36.56
41.71
45.81
48.94
51.27
53.02
54.37
55.43
56.27
56.94
57.42
57.63
57.42
56.59
55.07
52.88
50.25
47.49
44.89
42.66
40.85
39.35
37.93
36.37
34.47
32.07
29.17
25.86
22.35
18.88
15.74
13.04
10.71
8.44
5.67
1.86
-3.40
-10.17
-18.13
-26.56
-34.68
-41.80
-47.69
-52.58
-57.10
-62.02
-67.80
-74.32
-80.85
-86.27
-89.45
-89.67
-86.88
-81.69
-75.18
-68.62
-63.17
-59.66
-58.24
-58.26
-58.36
-56.79
-52.04
-43.54
-31.90
-18.80
-6.25
4.14
11.64
16.54
19.62
21.80
23.69
25.63
27.79
30.23
33.07
36.23
39.49
42.44
44.65
45.87
46.14
45.70
44.92
44.12
43.43
42.79
41.96
40.70
38.86
36.51
33.88
31.33
29.30
28.18
28.31
29.84
32.67
36.37
40.27
43.64
45.95
47.05
47.17
46.77
46.24
45.77
45.22
44.32
42.79
40.53
37.60
34.22
30.67
27.18
23.87
20.73
17.61
14.26
10.39
5.78
0.29
-6.04
-13.05
-20.41
-27.75
-34.72
-41.13
-47.12
-53.13
-59.70
-67.24
-75.68
-84.26
-91.68
-96.40
-97.20
-93.57
-85.92
-75.41
-63.57
-51.92
-41.48
-32.72
-25.53
-19.44
-13.89
-8.41
-2.75
3.06
8.81
14.24
19.09
23.20
26.55
29.21
31.32
33.07
34.65
36.25
37.98
39.83
41.70
43.32
44.43
44.82
44.48
43.57
42.35
41.07
39.86
38.68
37.38
35.86
34.10
32.23
30.47
29.00
27.84
26.84
25.73
24.27
22.36
20.08
17.62
15.14
12.75
10.40
7.92
5.14
1.84
-2.05
-6.48
-11.22
-15.96
-20.36
-24.16
-27.29
-29.91
-32.37
-35.17
-38.87
-43.88
-50.35
-57.93
-65.71
-72.30
-76.18
-76.17
-71.77
-63.36
-52.05
-39.37
-26.73
-15.22
-5.47
2.30
8.09
11.93
13.90
14.16
13.07
11.31
9.81
9.54
11.18
14.77
19.74
25.12
30.03
33.94
36.85
39.02
40.65
41.68
41.84
40.79
38.48
35.21
31.58
28.23
25.61
23.91
23.09
22.96
23.23
23.47
23.14
21.62
18.42
13.37
6.76
-0.68
-8.02
-14.45
-19.51
-23.18
-25.79
-27.84
-29.73
-31.63
-33.54
-35.33
-36.91
-38.28
-39.49
-40.64
-41.83
-43.10
-44.47
-45.92
-47.54
-49.41
-51.75
-54.79
-58.66
-63.21
-67.87
-71.64
-73.31
-71.90
-67.02
-59.13
-49.41
-39.34
-30.11
-22.29
-15.77
-9.99
-4.32
1.66
8.03
14.59
21.02
26.90
31.88
35.67
38.11
39.30
39.64
39.73
40.25
41.70
44.32
48.03
52.59
57.59
62.60
67.13
70.68
72.82
73.24
71.95
69.20
65.48
61.32
57.13
53.08
49.15
45.18
41.13
37.00
32.93
29.04
25.41
21.90
18.29
14.37
10.08
5.65
1.44
-2.17
-5.06
-7.45
-9.75
-12.44
-15.81
-19.84
-24.23
-28.60
-32.54
-35.76
-38.13
-39.68
-40.69
-41.66
-43.35
-46.55
-51.79
-59.06
-67.53
-75.76
-82.03
-84.92
-83.82
-79.07
-71.75
-63.18
-54.42
-46.05
-38.15
-30.60
-23.31
-16.23
-9.24
-2.02
5.84
14.65
24.30
34.21
43.52
51.46
57.60
61.97
64.86
66.58
67.32
67.18
66.28
64.80
62.98
61.05
59.17
57.50
56.25
55.67
55.95
56.99
58.45
59.76
60.44
60.26
59.39
58.27
57.49
57.53
58.61
60.59
62.91
64.70
64.92
62.51
56.79
47.57
35.46
21.66
7.70
-5.03
-15.70
-24.23
-31.09
-36.96
-42.25
-47.00
-50.95
-53.88
-55.91
-57.57
-59.56
-62.52
-66.75
-72.22
-78.59
-85.42
-92.08
-97.85
-101.84
-103.17
-101.23
-95.89
-87.63
-77.43
-66.52
-56.00
-46.58
-38.50
-31.48
-24.97
-18.44
-11.54
-4.39
2.60
8.88
14.05
18.00
21.00
23.48
25.85
28.34
30.94
33.59
36.22
38.85
41.48
43.98
46.03
47.20
47.15
45.79
43.37
40.33
37.20
34.40
32.19
30.63
29.59
28.84
28.10
27.06
25.58
23.68
21.53
19.29
17.00
14.49
11.53
7.96
3.89
-0.30
-4.17
-7.41
-10.08
-12.58
-15.47
-19.17
-23.72
-28.73
-33.60
-37.75
-40.88
-43.11
-44.88
-46.76
-49.25
-52.64
-56.95
-61.92
-66.98
-71.27
-73.76
-73.56
-70.19
-63.85
-55.39
-46.02
-36.86
-28.60
-21.38
-14.98
-9.06
-3.33
2.31
7.91
13.42
18.74
23.71
28.12
31.74
34.49
36.47
37.90
39.04
40.06
41.03
41.95
42.77
43.44
43.91
44.05
43.67
42.57
40.74
38.36
35.91
33.97
32.93
32.82
33.20
33.35
32.61
30.71
27.91
24.80
22.02
19.97
18.62
17.63
16.50
14.82
12.37
9.25
5.70
2.08
-1.32
-4.38
-7.17
-9.92
-12.95
-16.51
-20.73
-25.67
-31.32
-37.52
-43.98
-50.18
-55.53
-59.61
-62.45
-64.64
-67.14
-70.79
-75.84
-81.69
-87.09
-90.67
-91.67
-90.19
-87.17
-83.93
-81.58
-80.63
-80.92
-81.81
-82.60
-82.95
-83.09
-83.80
-86.05
-90.52
-97.09
-104.60
-111.20
-115.20
-115.97
-114.44
-112.84
-113.68
-118.54
-127.10
-136.98
-144.32
-144.73
-134.30
-110.41
-72.50
-22.66
34.20
90.76
138.94
171.91
186.12
182.12
164.07
137.92
109.46
82.84
60.13
41.85
27.70
17.29
10.29
6.24
4.38
3.65
2.89
1.09
-2.28
-6.97
-11.88
-15.43
-16.11
-13.26
-7.24
0.74
9.37
17.75
25.66
33.27
40.61
47.31
52.60
55.80
56.81
56.33
55.76
56.74
60.59
67.91
78.41
90.87
103.44
114.17
121.69
125.58
126.31
124.90
122.56
120.45
119.70
121.24
125.56
132.31
140.25
147.56
152.63
154.88
155.06
155.02
156.97
162.69
172.81
186.55
201.77
215.48
224.46
226.32
220.43
208.32
193.29
179.12
168.66
162.72
159.69
156.20
148.38
133.37
110.39
81.22
49.68
20.36
-3.10
-19.34
-29.74
-37.70
-47.05
-60.29
-77.58
-96.78
-114.61
-128.19
-136.39
-140.12
-141.55
-142.85
-144.98
-146.95
-146.55
-141.48
-130.77
-115.47
-98.34
-82.58
-70.56
-62.81
-58.00
-53.88
-48.40
-40.57
-30.61
-19.56
-8.59
1.30
9.28
14.44
15.87
13.07
6.45
-2.42
-11.32
-18.41
-23.16
-26.73
-31.28
-38.89
-50.39
-65.17
-81.69
-98.35
-114.13
-128.56
-141.37
-152.17
-160.51
-166.29
-170.09
-173.02
-176.20
-180.16
-184.72
-189.30
-193.56
-197.70
-202.13
-206.69
-210.15
-210.36
-205.24
-193.94
-177.41
-158.03
-138.58
-120.94
-105.54
-91.59
-77.92
-63.68
-48.68
-33.20
-17.48
-1.48
15.06
32.30
49.91
67.09
82.85
96.43
107.54
116.52
124.07
130.85
137.05
142.28
145.55
145.74
142.05
134.50
124.11
112.63
102.03
93.83
88.60
85.96
84.98
84.69
84.57
84.44
84.20
83.60
82.19
79.68
76.23
72.67
70.06
69.25
70.47
73.18
76.39
79.07
80.49
80.31
78.51
75.21
70.54
64.81
58.50
52.31
47.07
43.58
42.46
44.19
48.97
56.67
66.54
76.99
85.61
89.64
86.70
75.67
57.38
34.59
11.42
-7.87
-20.24
-24.82
-23.10
-18.25
-13.88
-12.75
-15.96
-23.03
-32.57
-43.16
-54.00
-65.05
-76.74
-89.53
-103.52
-118.42
