1520861501.00
64.000000
-0.00
-0.00
-0.00
-0.00
-0.00
-0.00
-0.00
-0.00
-0.00
-0.00
0.00
0.01
0.01
-0.00
-0.03
-0.05
-0.05
0.00
0.13
0.36
0.66
1.01
1.37
1.72
2.06
2.40
2.79
3.24
3.80
4.42
5.06
5.66
6.20
6.68
7.15
7.68
8.31
9.14
10.09
11.04
11.88
12.56
13.14
13.76
14.65
15.96
17.91
20.32
22.90
25.38
27.58
29.57
31.68
34.32
37.81
42.54
48.15
54.10
59.83
64.97
69.58
74.14
79.34
85.71
93.76
103.00
112.62
121.73
129.77
136.75
143.30
150.75
157.77
166.64
177.95
191.79
206.97
220.57
228.25
225.36
208.53
176.87
132.76
80.05
23.07
-34.94
-92.44
-149.16
-205.23
-260.37
-313.74
-363.87
-409.83
-450.91
-486.50
-515.74
-537.23
-549.22
-549.96
-538.37
-514.21
-478.67
-433.88
-382.45
-327.02
-269.84
-212.63
-156.66
-102.95
-52.37
-5.90
35.58
71.43
101.35
125.50
144.38
158.69
169.15
176.37
180.75
182.57
182.07
179.51
175.23
169.65
163.18
156.15
148.81
141.30
133.69
126.02
118.33
110.69
103.16
95.80
88.68
81.83
75.25
68.95
62.95
57.25
51.86
46.78
42.03
37.59
33.45
29.61
26.07
22.81
19.83
17.11
14.67
12.48
10.54
8.83
7.35
6.07
4.97
4.05
3.27
2.62
2.09
1.65
1.30
1.01
0.79
0.61
0.47
0.37
0.29
0.23
0.19
0.17
0.16
0.16
0.17
0.18
0.21
0.24
0.27
0.31
0.35
0.39
0.44
0.49
0.53
0.58
0.63
0.69
0.75
0.81
0.88
0.96
1.04
1.13
1.24
1.35
1.48
1.63
1.79
1.97
2.17
2.39
2.64
2.91
3.21
3.55
3.91
4.31
4.74
5.21
5.71
6.25
6.83
7.46
8.13
8.84
9.59
10.40
11.24
12.14
13.07
14.06
15.11
16.23
17.40
18.64
19.91
21.18
22.39
23.46
24.29
24.75
24.74
24.13
22.84
20.82
18.10
14.73
10.79
6.49
2.00
-2.46
-6.67
-10.46
-13.66
-16.17
-17.93
-18.94
-19.26
-18.99
-18.28
-17.25
-16.02
-14.67
-13.24
-11.72
-10.13
-8.43
-6.70
-4.98
-3.31
-1.72
-0.17
1.37
2.98
4.73
6.69
8.75
10.82
12.83
14.75
16.63
18.59
20.77
23.32
26.34
29.53
32.61
35.37
37.73
39.78
41.79
44.09
47.00
50.72
54.71
58.45
61.49
63.60
64.86
65.69
66.63
68.13
70.43
72.71
74.02
73.50
70.49
64.73
56.13
44.48
28.81
12.12
-5.11
-23.11
-42.54
-64.24
-89.04
-117.13
-147.52
-177.64
-203.50
-221.48
-228.89
-225.13
-212.16
-193.68
-173.76
-155.42
-139.94
-126.96
-115.78
-105.39
-94.95
-83.85
-71.64
-58.00
-42.94
-26.88
-10.61
4.58
17.59
27.72
34.82
39.14
41.37
42.31
42.81
43.57
44.81
46.44
48.13
49.49
50.20
50.16
49.45
48.32
47.03
45.70
44.36
42.94
41.28
39.19
36.51
33.14
29.17
24.87
20.59
16.70
13.39
10.57
7.89
4.89
1.18
-3.41
-8.72
-14.30
-19.44
-23.38
-25.41
-25.07
-22.20
-17.04
-10.19
-2.47
5.24
12.18
17.83
21.97
24.63
26.04
26.50
26.35
25.88
25.36
24.97
24.84
25.04
25.53
26.17
26.76
27.09
27.02
26.52
25.67
24.62
23.50
22.35
21.08
19.52
17.48
14.91
11.90
8.69
5.61
2.87
0.53
-1.53
-3.55
-5.76
-8.31
-11.26
-14.64
-18.43
-22.61
-26.93
-30.89
-33.76
-34.75
-33.31
-29.35
-23.33
-16.08
-8.55
-1.54
4.45
9.14
12.49
14.57
15.52
15.61
15.15
14.51
14.02
13.90
14.22
14.94
15.92
16.98
17.94
18.64
18.99
18.93
18.46
17.62
16.46
15.03
13.41
11.64
9.72
7.54
5.04
2.19
-0.85
-3.83
-6.50
-8.72
-10.57
-12.24
-14.04
-16.25
-19.00
-22.29
-25.91
-29.40
-32.18
-33.56
-33.01
-30.22
-25.31
-18.81
-11.50
-4.26
2.15
7.22
10.72
12.70
13.40
13.18
12.41
11.47
10.65
10.19
10.22
10.81
11.87
13.18
14.46
15.44
15.89
15.80
15.25
14.44
13.53
12.63
11.71
10.64
9.25
7.44
5.21
2.68
0.08
-2.42
-4.70
-6.76
-8.69
-10.61
-12.68
-15.01
-17.75
-20.96
-24.62
-28.45
-31.91
-34.27
-34.79
-33.02
-28.97
-23.17
-16.49
-9.87
-4.02
0.68
4.17
6.59
8.13
8.97
9.26
9.20
9.01
8.94
9.18
9.74
10.51
11.31
12.01
12.59
13.09
13.58
14.03
14.27
14.11
13.41
12.18
10.54
8.64
6.54
4.21
1.57
-1.39
-4.51
-7.53
-10.18
-12.32
-14.01
-15.48
-17.09
-19.13
-21.81
-25.19
-29.05
-32.95
-36.20
-38.00
-37.76
-35.22
-30.63
-24.65
-18.09
-11.68
-5.89
-0.90
3.23
6.52
8.94
10.52
11.36
11.68
11.69
11.62
11.61
11.71
12.02
12.54
13.24
14.03
14.72
15.16
15.22
14.91
14.24
13.23
11.81
9.95
7.62
4.94
2.08
-0.72
-3.28
-5.51
-7.38
-8.96
-10.38
-11.85
-13.62
-16.03
-19.26
-23.38
-28.10
-32.87
-36.95
-39.53
-39.97
-38.00
-33.78
-27.84
-21.03
-14.22
-8.14
-3.22
0.44
2.97
4.64
5.67
6.26
6.55
6.70
6.92
7.44
8.39
9.75
11.33
12.75
13.72
14.00
13.57
12.59
11.28
9.88
8.49
7.13
5.69
4.08
2.18
0.03
-2.31
-4.72
-7.15
-9.63
-12.21
-14.98
-17.95
-21.15
-24.62
-28.40
-32.41
-36.38
-39.75
-41.74
-41.64
-39.02
-33.98
-27.11
-19.24
-11.26
-3.87
2.48
7.57
11.37
14.03
15.79
16.96
17.82
18.65
19.62
20.86
22.44
24.36
26.52
28.74
30.80
32.52
33.83
34.78
35.42
35.81
35.94
35.73
35.06
33.82
31.94
29.37
26.07
21.94
16.94
11.02
4.26
-3.20
-11.17
-19.46
-27.88
-36.16
-43.86
-50.37
-54.88
-56.68
-55.31
-50.81
-43.70
-34.92
-25.58
-16.71
-9.10
-3.17
1.02
3.68
5.14
5.74
5.75
5.40
4.88
4.48
4.45
4.99
6.12
7.63
9.22
10.53
11.38
11.78
11.84
11.68
11.37
10.85
9.99
8.70
6.95
4.86
2.63
0.50
-1.32
-2.74
-3.79
-4.71
-5.88
-7.74
-10.66
-14.69
-19.55
-24.57
-28.82
-31.37
-31.51
-28.97
-23.97
-17.16
-9.44
-1.78
5.03
10.47
14.38
16.89
18.36
19.22
19.83
20.49
21.27
22.23
23.36
24.74
26.40
28.32
30.42
32.56
34.62
36.51
38.14
39.33
39.73
38.97
36.75
33.13
28.56
23.72
19.20
15.26
11.68
7.89
3.17
-3.08
-11.22
-21.33
-33.20
-46.14
-59.06
-70.46
-78.80
-82.85
-82.12
-76.92
-68.23
-57.42
-45.75
-34.32
-23.82
-14.64
-6.93
-0.71
4.13
7.71
10.17
11.61
12.23
12.30
12.20
12.25
12.59
13.18
13.77
14.13
14.16
13.88
13.34
12.39
10.71
7.94
3.95
-1.02
-6.34
-11.27
-15.37
-18.62
-21.40
-24.26
-27.62
-31.67
-36.24
-40.96
-45.27
-48.50
-49.94
-49.02
-45.44
-39.31
-31.20
-22.03
-12.77
-4.28
2.89
8.55
12.88
16.19
18.88
21.21
23.28
24.98
26.12
26.53
26.16
25.10
23.51
21.66
19.74
17.93
16.30
14.86
13.56
12.31
10.99
9.47
7.67
5.54
3.14
0.56
-2.08
-4.80
-7.76
-11.25
-15.53
-20.57
-25.87
-30.54
-33.44
-33.69
-30.92
-25.56
-18.56
-11.18
-4.54
0.69
4.36
6.78
8.49
10.17
12.39
15.51
19.48
23.77
27.39
29.27
28.61
25.28
19.90
13.64
7.78
3.24
0.44
-0.77
-0.82
-0.28
0.30
0.44
-0.20
-1.77
-4.21
-7.24
-10.48
-13.71
-16.97
-20.50
-24.73
-29.92
-35.99
-42.38
-48.09
-51.96
-52.94
-50.46
-44.65
-36.30
-26.56
-16.66
-7.51
0.43
7.09
12.54
16.91
20.26
22.57
23.91
24.50
24.64
24.73
25.04
25.73
26.76
27.99
29.19
30.20
30.95
31.43
31.63
31.47
30.75
29.25
26.85
23.62
19.81
15.82
12.00
8.52
5.34
2.21
-1.22
-5.35
-10.52
-16.90
-24.33
-32.25
-39.70
-45.40
-48.18
-47.25
-42.54
-34.71
-25.00
-14.79
-5.25
2.90
9.48
14.67
18.78
22.10
24.84
27.10
28.99
30.62
32.15
33.68
35.23
36.69
37.86
38.52
38.51
37.83
36.62
35.11
33.47
31.70
29.60
26.87
23.25
18.75
13.59
8.19
3.03
-1.57
-5.49
-8.81
-11.81
-14.87
-18.44
-22.89
-28.39
-34.75
-41.30
-46.99
-50.65
-51.25
-48.28
-41.86
-32.76
-22.16
-11.32
-1.30
7.29
14.25
19.70
23.82
26.76
28.58
29.37
29.39
29.12
29.09
29.72
31.11
32.99
34.85
36.22
36.84
36.72
36.09
35.21
34.25
33.17
31.79
29.86
27.21
23.82
19.83
15.50
11.14
7.00
3.18
-0.39
-3.95
-7.80
-12.27
-17.56
-23.67
-30.36
-37.08
-43.04
-47.31
-49.01
-47.60
-42.98
-35.65
-26.52
-16.71
-7.22
1.25
8.34
13.98
18.26
21.31
23.25
24.33
24.82
25.10
25.53
26.40
27.81
29.69
31.77
33.66
35.01
35.62
35.49
34.76
33.69
32.43
30.99
29.23
26.97
24.06
20.54
16.59
12.48
8.47
4.73
1.27
-2.10
-5.66
-9.72
-14.51
-20.12
-26.42
-33.10
-39.63
-45.34
-49.41
-51.05
-49.61
-44.85
-37.01
-26.90
-15.70
-4.66
5.15
13.13
19.12
23.30
26.00
27.58
28.31
28.45
28.30
28.20
28.47
29.28
30.61
32.18
33.61
34.46
34.49
33.64
32.06
29.97
27.58
24.98
22.10
18.78
14.97
10.75
6.38
2.22
-1.47
-4.57
-7.28
-9.95
-13.08
-17.03
-21.96
-27.74
-33.88
-39.68
-44.24
-46.66
-46.23
-42.55
-35.73
-26.36
-15.43
-4.07
6.66
16.02
23.64
29.42
33.53
36.22
37.84
38.80
39.57
40.57
42.10
44.21
46.72
49.33
51.72
53.69
55.22
56.40
57.33
58.11
58.70
59.03
59.05
58.77
58.35
58.01
58.04
58.61
59.67
60.94
61.79
61.30
58.33
51.73
40.59
24.62
4.41
-18.54
-42.00
-63.51
-80.90
-92.71
-98.36
-98.06
-92.52
-82.80
-70.21
-56.20
-42.39
-30.20
-20.67
-14.12
-10.22
-8.11
-6.84
-5.62
-4.02
-1.96
0.36
2.60
4.37
5.34
5.38
4.57
3.21
1.62
0.07
-1.35
-2.69
-4.03
-5.38
-6.67
-7.85
-8.94
-10.08
-11.45
-13.19
-15.29
-17.70
-20.34
-23.28
-26.73
-30.96
-36.09
-41.91
-47.74
-52.47
-54.89
-54.06
-49.65
-42.15
-32.65
-22.53
-12.96
-4.70
1.94
6.95
10.29
11.89
11.70
9.89
6.99
3.82
1.23
-0.15
-0.15
1.00
2.85
4.95
6.98
8.76
10.19
11.14
11.48
11.14
10.09
8.41
6.20
3.60
0.73
-2.26
-5.22
-8.02
-10.61
-13.01
-15.34
-17.78
-20.56
-23.93
-28.08
-33.06
-38.55
-43.89
-48.04
-49.90
-48.57
-43.73
-35.73
-25.58
-14.54
-3.86
5.56
13.24
19.11
23.30
26.04
27.65
28.57
29.34
30.49
32.30
34.67
37.04
38.64
38.82
37.36
34.61
31.25
28.04
25.41
23.36
21.46
19.18
16.07
11.95
6.94
1.33
-4.48
-10.14
-15.42
-20.20
-24.62
-28.88
-33.27
-38.01
-43.18
-48.57
-53.68
-57.74
-59.87
-59.21
-55.27
-48.13
-38.44
-27.31
-15.97
-5.54
3.32
10.32
15.50
19.04
21.10
21.92
21.82
21.27
20.84
20.97
21.86
23.36
25.10
26.66
27.81
28.53
28.96
29.17
29.04
28.28
26.59
23.80
20.10
15.95
11.97
8.78
6.74
5.84
5.62
5.22
3.49
-0.66
-7.89
-18.13
-30.45
-43.18
-54.36
-62.22
-65.61
-64.21
-58.46
-49.33
-38.04
-25.79
-13.66
-2.58
6.72
13.72
18.23
20.42
20.82
20.19
19.36
18.89
19.04
19.72
20.62
21.43
21.92
22.04
21.85
21.44
20.85
20.07
19.05
17.70
15.91
13.57
10.58
7.00
3.01
-1.04
-4.80
-8.07
-10.94
-13.72
-16.88
-20.80
-25.66
-31.33
-37.31
-42.83
-46.96
-48.74
-47.45
-42.75
-34.88
-24.62
-13.18
-1.95
7.81
15.29
20.23
22.92
24.00
24.25
24.30
24.59
25.31
26.47
28.01
29.72
31.39
32.76
33.68
34.19
34.56
35.22
36.39
37.84
38.72
37.75
33.78
26.28
15.76
3.66
-8.17
-18.13
-25.46
-30.36
-33.73
-36.65
-39.87
-43.59
-47.46
-50.75
-52.66
-52.53
-49.95
-44.82
-37.33
-28.00
-17.52
-6.80
3.16
11.47
17.48
21.02
22.37
22.28
21.60
21.12
21.25
22.05
23.26
24.53
25.56
26.18
26.38
26.24
25.84
25.16
24.07
22.42
20.05
16.96
13.26
9.23
5.12
1.15
-2.63
-6.28
-10.00
-14.03
-18.56
-23.79
-29.67
-35.91
-41.82
-46.44
-48.67
-47.70
-43.27
-35.83
-26.47
-16.51
-7.21
0.57
6.48
10.55
13.00
14.12
14.16
13.37
12.12
10.85
9.99
9.84
10.43
11.55
12.81
13.86
14.40
14.29
13.50
12.05
10.00
7.44
4.52
1.38
-1.84
-5.12
-8.55
-12.31
-16.59
-21.54
-27.11
-33.08
-38.95
-44.01
-47.43
-48.45
-46.60
-41.89
-34.82
-26.30
-17.40
-9.09
-2.03
3.49
7.43
9.94
11.22
11.51
11.09
10.30
9.51
9.05
9.17
9.96
11.33
13.05
14.76
16.11
16.77
16.54
15.39
13.39
10.72
7.58
4.13
0.50
-3.24
-7.08
-11.10
-15.54
-20.64
-26.55
-33.14
-39.84
-45.77
-49.81
-51.00
-48.86
-43.49
-35.65
-26.44
-17.06
-8.49
-1.26
4.50
8.96
12.48
15.32
17.66
19.55
20.98
21.96
22.56
22.95
23.31
23.79
24.51
25.45
26.52
27.55
28.25
28.37
27.62
25.84
23.01
19.32
15.11
10.81
6.76
3.07
-0.41
-4.11
-8.57
-14.24
-21.21
-29.02
-36.69
-42.93
-46.44
-46.38
-42.56
-35.52
-26.38
-16.47
-6.97
1.33
8.13
13.48
17.63
20.80
23.13
24.75
25.81
26.63
27.54
28.82
30.54
32.48
34.29
35.63
36.35
36.49
36.20
35.53
34.31
32.18
28.75
23.85
17.64
10.69
3.70
-2.67
-8.09
-12.59
-16.52
-20.40
-24.74
-29.93
-36.08
-42.98
-50.01
-56.16
-60.18
-60.95
-57.83
-50.97
-41.33
-30.37
-19.55
-9.95
-1.98
4.46
9.75
14.15
17.76
20.49
22.27
23.21
23.60
23.85
24.30
25.09
26.12
27.20
28.11
28.76
29.17
29.45
29.63
29.60
29.16
27.98
25.85
22.72
18.81
14.56
10.41
6.64
3.27
0.10
-3.20
-6.91
-11.25
-16.31
-22.05
-28.24
-34.37
-39.65
-43.09
-43.76
-41.15
-35.37
-27.11
-17.50
-7.70
1.41
9.40
16.14
21.67
26.03
29.16
30.99
31.65
31.48
31.01
30.79
31.15
32.07
33.24
34.19
34.52
34.08
32.93
31.33
29.55
27.75
25.95
24.01
21.70
18.84
15.37
11.38
7.16
3.02
-0.73
-3.98
-6.86
-9.70
-12.95
-17.02
-22.11
-28.11
-34.48
-40.34
-44.66
-46.47
-45.18
-40.76
-33.76
-25.07
-15.71
-6.55
1.85
9.17
15.30
20.18
23.81
26.28
27.77
28.58
29.08
29.59
30.30
31.26
32.35
33.36
34.06
34.20
33.68
32.47
30.64
28.34
25.74
22.98
20.09
17.04
13.73
10.13
6.28
2.33
-1.47
-4.97
-8.16
-11.22
-14.50
-18.39
-23.14
-28.71
-34.72
-40.44
-44.97
-47.41
-47.08
-43.73
-37.61
-29.42
-20.14
-10.82
-2.37
4.60
9.78
13.12
14.79
15.11
14.53
13.58
12.82
12.67
13.31
14.62
16.29
17.90
19.12
19.76
19.80
19.28
18.23
16.63
14.43
11.64
8.32
4.64
0.79
-3.02
-6.61
-9.90
-12.93
-15.91
-19.18
-23.03
-27.66
-32.90
-38.22
-42.76
-45.59
-45.86
-43.19
-37.70
-30.04
-21.23
-12.35
-4.29
2.36
7.46
11.09
13.49
14.94
15.66
15.82
15.61
15.26
14.98
14.95
15.21
15.65
16.08
16.26
16.03
15.30
14.11
12.44
10.30
7.64
4.45
0.80
-3.10
-7.00
-10.65
-13.96
-17.03
-20.15
-23.72
-28.13
-33.57
-39.85
-46.31
-51.90
-55.43
-55.91
-52.89
-46.62
-37.96
-28.05
-17.99
-8.59
-0.28
6.78
12.55
17.03
20.21
22.18
23.20
23.68
24.07
24.65
25.48
26.39
27.06
27.24
26.89
26.12
25.17
24.21
23.24
22.12
20.59
18.42
15.48
11.83
7.64
3.18
-1.21
-5.26
-8.88
-12.23
-15.73
-19.88
-25.03
-31.15
-37.63
-43.42
-47.33
-48.42
-46.25
-41.03
-33.51
-24.66
-15.49
-6.78
0.90
7.30
12.38
16.25
19.12
21.20
22.67
23.68
24.35
24.82
25.23
25.67
26.18
26.68
27.03
27.10
26.77
26.02
24.87
23.33
21.39
19.00
16.08
12.61
8.63
4.30
-0.14
-4.43
-8.39
-12.00
-15.45
-19.07
-23.23
-28.21
-34.00
-40.24
-46.21
-50.98
-53.59
-53.35
-50.06
-44.08
-36.22
-27.48
-18.73
-10.55
-3.20
3.21
8.62
12.88
15.91
17.71
18.55
18.86
19.15
19.78
20.84
22.18
23.42
24.23
24.42
24.02
23.22
22.29
21.41
20.56
19.57
18.14
16.02
13.14
9.60
5.64
1.57
-2.31
-5.86
-9.06
-12.08
-15.25
-18.94
-23.48
-28.95
-35.05
-41.02
-45.83
-48.39
-47.89
-44.09
-37.36
-28.55
-18.72
-8.90
0.13
7.87
14.01
18.45
21.20
22.50
22.70
22.32
21.91
21.86
22.33
23.25
24.34
25.28
25.83
25.92
25.61
25.06
24.44
23.83
23.15
22.16
20.55
18.09
14.68
10.51
5.95
1.46
-2.59
-6.12
-9.26
-12.33
-15.68
-19.56
-24.03
-29.01
-34.20
-39.06
-42.83
-44.69
-43.97
-40.34
-34.05
-25.86
-16.74
-7.70
0.55
7.59
13.28
17.57
20.55
22.33
23.17
23.41
23.46
23.64
24.13
24.93
25.91
26.85
27.58
27.99
28.01
27.66
26.96
25.91
24.47
22.52
19.99
16.86
13.20
9.18
5.00
0.87
-3.08
-6.78
-10.36
-14.02
-18.07
-22.74
-28.03
-33.62
-38.86
-42.93
-45.01
-44.53
-41.36
-35.80
-28.57
-20.57
-12.69
-5.66
0.07
4.33
7.09
8.51
8.82
8.37
7.61
6.99
6.85
7.33
8.37
9.77
11.28
12.70
13.86
14.65
14.93
14.59
13.60
11.96
9.74
7.01
3.81
0.19
-3.78
-7.95
-12.16
-16.32
-20.50
-24.85
-29.58
-34.65
-39.79
-44.27
-47.17
-47.58
-44.94
-39.26
-31.18
-21.79
-12.28
-3.69
3.34
8.57
12.07
14.06
14.84
14.74
14.09
13.27
12.64
12.46
12.87
13.79
15.04
16.38
17.61
18.60
19.26
19.49
19.12
18.01
16.03
13.23
9.84
6.16
2.51
-0.93
-4.19
-7.42
-10.83
-14.59
-18.75
-23.28
-27.97
-32.45
-36.10
-38.18
-37.89
-34.70
-28.56
-19.93
-9.72
0.99
11.31
20.67
28.84
35.84
41.75
46.61
50.46
53.45
55.81
57.90
60.03
62.38
64.90
67.30
69.15
70.03
69.69
68.11
65.50
62.16
58.38
54.31
49.97
45.30
40.29
34.99
29.55
24.14
18.89
13.87
9.05
4.33
-0.41
-5.20
-9.89
-14.12
-17.25
-18.61
-17.68
-14.30
-8.86
-2.20
4.54
10.19
13.79
14.75
12.89
8.38
1.70
-6.46
-15.27
-23.85
-31.36
-37.14
-40.79
-42.27
-41.90
-40.23
-37.92
-35.53
-33.36
-31.49
-29.91
-28.62
-27.80
-27.75
-28.72
-30.72
-33.39
-36.06
-37.92
-38.44
-37.48
-35.45
-33.14
-31.42
-30.99
-32.05
-34.30
-36.99
-39.23
-40.31
-39.89
-38.09
-35.34
-32.07
-28.54
-24.82
-20.86
-16.72
-12.59
-8.78
-5.54
-2.88
-0.62
1.51
3.62
5.57
6.93
7.18
5.84
2.72
-1.96
-7.55
-13.02
-17.29
-19.46
-19.14
-16.52
-12.28
-7.33
-2.54
1.54
4.64
6.78
8.03
8.44
7.92
6.27
3.30
-1.10
-6.60
-12.44
-17.43
-20.26
-20.00
-16.43
-10.18
-2.49
5.27
12.10
17.56
21.73
24.95
27.45
29.26
30.26
30.29
29.48
28.18
26.93
26.14
26.01
26.33
26.65
26.41
25.21
22.93
19.71
15.85
11.62
7.19
2.65
-1.98
-6.60
-11.04
-15.07
-18.53
-21.39
-23.87
-26.37
-29.34
-33.07
-37.50
-42.15
-46.08
-48.23
-47.68
-43.94
-37.16
-28.12
-17.98
-7.94
1.06
8.58
14.58
19.28
22.93
25.67
27.54
28.56
28.87
28.73
28.41
28.12
27.91
27.63
27.06
25.97
24.20
21.65
18.31
14.26
9.74
5.08
0.72
-3.01
-5.94
-8.22
-10.21
-12.42
-15.34
-19.26
-24.23
-29.89
-35.51
-40.02
-42.31
-41.47
-37.13
-29.61
-19.91
-9.38
0.56
8.89
15.04
18.98
21.04
21.77
21.71
21.32
20.87
20.44
19.99
19.47
18.89
18.34
17.86
17.42
16.78
15.62
13.64
10.76
7.12
3.01
-1.26
-5.51
-9.71
-13.97
-18.42
-23.26
-28.63
-34.68
-41.48
-48.85
-56.32
-63.06
-68.03
-70.29
-69.22
-64.81
-57.59
-48.51
-38.71
-29.25
-20.95
-14.28
-9.32
-5.81
-3.34
-1.46
0.19
1.87
3.69
5.75
8.06
10.53
12.92
14.92
16.19
16.58
16.20
15.40
14.63
14.15
13.93
13.64
12.85
11.26
8.89
6.06
3.17
0.49
-2.08
-4.88
-8.33
-12.54
-17.04
-20.81
-22.52
-21.06
-15.88
-7.29
3.76
15.99
28.21
39.59
49.72
58.48
65.81
71.61
75.73
78.08
78.69
77.74
75.41
71.87
67.15
61.31
54.44
46.75
38.49
29.95
21.38
12.92
4.80
-2.80
-9.63
-15.62
-20.87
-25.63
-30.22
-34.82
-39.43
-44.01
-48.62
-53.56
-59.19
-65.73
-72.84
-79.57
-84.51
-86.23
-83.88
-77.43
-67.71
-56.15
-44.25
-33.20
-23.65
-15.68
-9.01
-3.23
1.95
6.57
10.55
13.79
16.31
18.23
19.72
20.90
21.79
22.42
22.86
23.25
23.70
24.16
24.36
23.89
22.43
19.90
16.57
12.85
9.15
5.65
2.31
-1.12
-4.96
-9.47
-14.85
-21.09
-27.91
-34.67
-40.37
-43.86
-44.16
-40.82
-34.15
-25.16
-15.23
-5.66
2.68
9.42
14.65
18.63
21.59
23.65
24.94
25.66
26.18
26.83
27.84
29.16
30.55
31.73
32.50
32.84
32.84
32.56
31.99
31.01
29.47
27.26
24.38
20.90
16.97
12.81
8.61
4.49
0.43
-3.78
-8.46
-13.93
-20.23
-26.99
-33.39
-38.32
-40.67
-39.66
-35.04
-27.23
-17.12
-5.96
5.05
14.96
23.15
29.44
33.88
36.74
38.32
38.97
39.02
38.83
38.70
38.84
39.27
39.83
40.23
40.24
39.74
38.82
37.67
36.40
35.00
33.28
31.00
28.02
24.41
20.39
16.22
12.04
7.79
3.29
-1.72
-7.50
-14.20
-21.76
-29.82
-37.63
-44.10
-48.02
-48.45
-45.02
-38.13
-28.83
-18.50
-8.49
0.23
7.13
12.08
15.17
16.63
16.80
16.05
14.84
13.59
12.64
12.13
12.07
12.29
12.61
12.85
12.91
12.76
12.41
11.84
10.99
9.78
8.12
5.99
3.45
0.60
-2.46
-5.73
-9.32
-13.43
-18.19
-23.54
-29.02
-33.81
-36.86
-37.21
-34.37
-28.57
-20.74
-12.28
-4.61
1.19
4.65
5.87
5.33
3.62
1.27
-1.35
-3.93
-6.19
-7.84
-8.67
-8.58
-7.70
-6.31
-4.84
-3.70
-3.16
-3.29
-4.01
-5.18
-6.63
-8.27
-10.10
-12.21
-14.72
-17.78
-21.51
-26.02
-31.33
-37.40
-43.99
-50.58
-56.34
-60.23
-61.23
-58.67
-52.54
-43.53
-32.86
-21.91
-11.75
-2.97
4.32
10.25
15.02
18.71
21.39
23.19
24.35
25.17
25.90
26.63
27.40
28.17
28.93
29.68
30.28
30.47
29.86
28.12
25.16
21.13
16.42
11.42
6.41
1.50
-3.32
-8.17
-13.19
-18.54
-24.40
-30.78
-37.37
-43.44
-47.92
-49.72
-48.09
-42.95
-34.88
-24.99
-14.50
-4.48
4.36
11.68
17.45
21.84
25.07
27.35
28.85
29.71
30.08
30.10
29.97
29.84
29.82
29.92
30.02
29.98
29.66
28.94
27.71
25.89
23.42
20.29
16.57
12.44
8.06
3.59
-0.93
-5.57
-10.55
-16.15
-22.58
-29.82
-37.44
-44.53
-49.84
-52.14
-50.64
-45.28
-36.80
-26.50
-15.80
-5.84
2.82
10.05
15.98
20.73
24.33
26.78
28.20
28.87
29.21
29.53
29.99
30.51
30.95
31.15
31.09
30.84
30.41
29.71
28.52
26.57
23.72
20.02
15.72
11.14
6.62
2.37
-1.53
-5.24
-8.99
-13.12
-17.97
-23.69
-30.14
-36.75
-42.57
-46.46
-47.37
-44.77
-38.75
-30.08
-19.93
-9.53
0.18
8.63
15.64
21.18
25.28
27.90
29.10
29.13
28.42
27.54
26.95
26.82
27.04
27.35
27.51
27.43
27.14
26.69
25.99
24.86
23.06
20.48
17.18
13.40
9.42
5.49
1.73
-1.84
-5.37
-9.13
-13.47
-18.72
-24.99
-31.97
-38.89
-44.64
-48.03
-48.16
-44.70
-37.97
-28.85
-18.54
-8.23
1.11
8.86
14.79
18.94
21.58
23.05
23.73
23.89
23.77
23.51
23.21
22.90
22.64
22.42
22.22
21.97
21.57
20.90
19.84
18.25
16.02
13.15
9.71
5.92
2.12
-1.45
-4.70
-7.79
-11.05
-14.89
-19.58
-25.14
-31.22
-37.17
-42.08
-44.94
-44.93
-41.55
-34.92
-25.77
-15.32
-4.88
4.42
11.92
17.48
21.32
23.78
25.13
25.54
25.17
24.21
23.04
22.02
21.48
21.51
22.01
22.68
23.20
23.36
23.00
22.10
20.63
18.58
15.98
12.91
9.50
5.95
2.38
-1.12
-4.55
-8.03
-11.76
-16.02
-21.06
-26.90
-33.17
-39.03
-43.28
-44.74
-42.69
-37.12
-28.76
-18.84
-8.67
0.72
8.70
14.96
19.45
22.21
23.35
23.15
22.05
20.58
19.23
18.33
17.95
17.96
18.19
18.46
18.68
18.83
18.83
18.53
17.74
16.26
14.02
11.11
7.71
4.10
0.47
-3.08
-6.57
-10.12
-13.85
-17.95
-22.57
-27.79
-33.42
-38.97
-43.55
-46.10
-45.66
-41.76
-34.67
-25.35
-15.19
-5.46
2.93
9.64
14.73
18.43
20.91
22.29
22.67
22.32
21.65
21.08
20.90
21.16
21.72
22.33
22.81
23.07
23.11
22.87
22.21
20.92
18.80
15.78
11.98
7.69
3.30
-0.87
-4.59
-7.89
-10.99
-14.29
-18.19
-22.99
-28.56
-34.32
-39.26
-42.20
-42.22
-38.92
-32.62
-24.20
-14.82
-5.60
2.64
9.36
14.35
17.51
18.90
18.69
17.20
14.89
12.33
10.04
8.40
7.63
7.70
8.46
9.56
10.55
10.99
10.45
8.76
5.98
2.47
-1.26
-4.71
-7.59
-9.90
-11.90
-14.04
-16.74
-20.29
-24.69
-29.58
-34.25
-37.74
-39.09
-37.57
-32.98
-25.77
-16.86
-7.43
1.43
8.93
14.75
18.84
21.35
22.46
22.30
21.04
18.94
16.34
13.69
11.49
10.06
9.53
9.74
10.26
10.56
10.13
8.69
6.22
2.92
-0.89
-4.94
-9.06
-13.22
-17.49
-21.98
-26.83
-32.19
-38.10
-44.41
-50.57
-55.70
-58.71
-58.64
-55.01
-48.02
-38.48
-27.59
-16.56
-6.36
2.39
9.45
14.80
18.53
20.79
21.78
21.75
21.03
20.03
19.13
18.65
18.72
19.31
20.17
20.97
21.37
21.04
19.77
17.51
14.29
10.30
5.82
1.15
-3.45
-7.80
-11.93
-16.00
-20.33
-25.22
-30.76
-36.66
-42.21
-46.34
-47.95
-46.25
-41.02
-32.79
-22.61
-11.79
-1.56
7.24
14.18
19.22
22.56
24.52
25.46
25.71
25.55
25.18
24.74
24.30
23.89
23.54
23.26
23.04
22.83
22.51
21.96
20.97
19.38
17.06
13.95
10.08
5.63
0.88
-3.90
-8.45
-12.74
-16.98
-21.57
-26.99
-33.47
-40.86
-48.42
-54.97
-59.12
-59.74
-56.30
-49.14
-39.30
-28.22
-17.28
-7.43
0.88
7.61
12.89
16.86
19.63
21.32
22.18
22.54
22.75
23.09
23.65
24.38
25.15
25.82
26.34
26.68
26.78
26.53
25.74
24.20
21.79
18.54
14.63
10.30
5.84
1.45
-2.82
-7.11
-11.72
-16.96
-22.98
-29.58
-36.12
-41.55
-44.75
-44.82
-41.44
-34.98
-26.36
-16.73
-7.19
1.45
8.76
14.59
18.99
22.05
23.93
24.81
24.93
24.60
24.19
23.98
24.21
24.91
25.92
26.97
27.73
27.89
27.27
25.80
23.57
20.75
17.62
14.42
11.27
8.16
4.91
1.26
-3.03
-8.11
-13.99
-20.50
-27.28
-33.68
-38.81
-41.65
-41.32
-37.49
-30.48
-21.30
-11.31
-1.80
6.30
12.60
17.14
20.15
21.86
22.43
22.05
20.93
19.44
18.00
16.98
16.61
16.87
17.58
18.34
18.76
18.49
17.32
15.22
12.34
8.95
5.37
1.80
-1.74
-5.35
-9.28
-13.70
-18.73
-24.31
-30.17
-35.82
-40.56
-43.52
-43.85
-40.95
-34.82
-26.11
-16.04
-6.07
2.55
9.10
13.51
16.09
17.32
17.58
17.05
15.86
14.21
12.38
10.76
9.68
9.26
9.42
9.90
10.35
10.39
9.74
8.21
5.79
2.61
-1.06
-4.95
-8.88
-12.85
-16.96
-21.42
-26.34
-31.70
-37.34
-42.89
-47.80
-51.35
-52.70
-51.09
-46.12
-37.98
-27.46
-15.83
-4.44
5.63
13.87
20.24
25.03
28.56
30.99
32.35
32.69
32.16
31.10
29.98
29.16
28.80
28.76
28.72
28.34
27.37
25.76
23.63
21.13
18.37
15.33
11.93
8.07
3.68
-1.24
-6.64
-12.53
-18.90
-25.67
-32.52
-38.79
-43.52
-45.62
-44.25
-39.13
-30.74
-20.17
-8.82
2.07
11.68
19.73
26.26
31.42
35.30
37.85
39.08
39.11
38.28
37.08
35.95
35.14
34.71
34.56
34.51
34.40
34.05
33.28
31.87
29.67
26.58
22.70
18.29
13.64
9.04
4.62
0.32
-4.05
-8.81
-14.23
-20.40
-27.05
-33.49
-38.67
-41.45
-40.96
-36.96
-29.95
-21.01
-11.48
-2.52
5.18
11.43
16.38
20.29
23.37
25.68
27.24
28.09
28.36
28.29
28.09
27.89
27.72
27.50
27.10
26.39
25.25
23.60
21.40
18.61
15.22
11.28
6.95
2.47
-1.87
-5.88
-9.54
-13.06
-16.81
-21.19
-26.44
-32.47
-38.76
-44.39
-48.22
-49.19
-46.62
-40.52
-31.56
-20.94
-10.01
0.05
8.50
15.09
19.90
23.19
25.22
26.22
26.38
25.95
25.23
24.57
24.23
24.33
24.80
25.41
25.84
25.83
25.21
23.92
21.93
19.23
15.85
11.86
7.52
3.18
-0.83
-4.30
-7.26
-10.05
-13.12
-16.94
-21.77
-27.53
-33.73
-39.49
-43.70
-45.25
-43.39
-37.96
-29.54
-19.27
-8.60
1.17
9.12
14.90
18.60
20.56
21.28
21.23
20.83
20.41
20.14
20.09
20.20
20.35
20.45
20.40
20.11
19.50
18.51
17.09
15.31
13.25
11.00
8.54
5.82
2.76
-0.60
-4.16
-7.79
-11.47
-15.32
-19.62
-24.63
-30.37
-36.49
-42.19
-46.44
-48.18
-46.67
-41.78
-34.02
-24.44
-14.32
-4.83
3.24
9.54
14.07
16.98
18.50
18.86
18.33
17.26
16.02
14.92
14.17
13.84
13.89
14.24
14.80
15.47
16.10
16.44
16.18
15.11
13.15
10.45
7.34
4.25
1.44
-0.98
-3.18
-5.51
-8.39
-12.13
-16.79
-22.16
-27.63
-32.36
-35.32
-35.62
-32.77
-26.86
-18.62
-9.17
0.22
8.56
15.27
20.24
23.61
25.65
26.61
26.74
26.25
25.38
24.39
23.49
22.84
22.53
22.52
22.71
22.92
22.87
22.30
21.02
18.98
16.31
13.27
10.11
6.95
3.83
0.63
-2.77
-6.51
-10.72
-15.56
-21.07
-27.13
-33.30
-38.80
-42.62
-43.81
-41.82
-36.71
-29.21
-20.48
-11.78
-4.12
1.96
6.34
9.21
10.85
11.53
11.44
10.74
9.61
8.29
7.06
6.18
5.79
5.87
6.21
6.46
6.28
5.42
3.83
1.66
-0.86
-3.54
-6.32
-9.29
-12.53
-16.11
-20.03
-24.28
-28.80
-33.48
-38.04
-41.91
-44.28
-44.35
-41.60
-36.01
-28.17
-19.10
-9.94
-1.68
5.02
9.86
12.81
14.04
13.83
12.54
10.62
8.58
6.91
6.03
6.08
6.93
8.15
9.15
9.39
8.54
6.60
3.82
0.62
-2.67
-5.86
-9.03
-12.38
-16.18
-20.61
-25.75
-31.52
-37.66
-43.72
-48.94
-52.44
-53.28
-50.83
-45.01
-36.37
-26.03
-15.32
-5.44
2.78
9.00
13.23
15.68
16.65
16.47
15.50
14.17
12.92
12.07
11.83
12.20
12.98
13.86
14.44
14.36
13.37
11.45
8.79
5.75
2.60
-0.56
-3.87
-7.63
-12.12
-17.37
-23.22
-29.38
-35.55
-41.42
-46.61
-50.46
-52.11
-50.72
-45.83
-37.69
-27.30
-16.09
-5.49
3.55
10.66
15.96
19.78
22.42
24.07
24.89
25.02
24.64
24.00
23.25
22.55
21.94
21.44
21.02
20.56
19.87
18.68
16.79
14.13
10.83
7.13
3.29
-0.54
-4.38
-8.44
-13.02
-18.34
-24.50
-31.22
-37.90
-43.61
-47.26
-47.90
-45.01
-38.69
-29.69
-19.18
-8.46
1.41
9.73
16.26
21.07
24.43
26.66
28.06
28.85
29.23
29.32
29.24
29.02
28.70
28.25
27.65
26.85
25.79
24.44
22.79
20.79
18.43
15.69
12.58
9.19
5.65
2.10
-1.37
-4.77
-8.28
-12.14
-16.52
-21.40
-26.37
-30.60
-33.06
-32.72
-28.99
-21.97
-12.50
-1.93
8.29
17.04
23.75
28.40
31.29
32.79
33.17
32.59
31.28
29.55
27.90
26.80
26.53
27.09
28.17
29.27
29.91
29.77
28.75
26.95
24.55
21.74
18.67
15.38
11.88
8.12
4.06
-0.37
-5.26
-10.73
-16.76
-23.17
-29.41
-34.60
-37.74
-37.98
-34.96
-28.99
-20.96
-12.04
-3.37
4.28
10.46
15.03
17.97
19.37
19.41
18.33
16.52
14.37
12.25
10.35
8.81
7.63
6.79
6.16
5.60
4.91
3.88
2.42
0.51
-1.79
-4.38
-7.21
-10.34
-13.93
-18.22
-23.41
-29.51
-36.29
-43.06
-48.85
-52.48
-53.02
-50.03
-43.75
-35.07
-25.18
-15.27
-6.24
1.38
7.37
11.62
14.14
14.96
14.26
12.44
10.06
7.74
5.95
4.93
4.57
4.55
4.47
3.98
2.92
1.32
-0.62
-2.69
-4.76
-6.84
-9.09
-11.82
-15.32
-19.83
-25.40
-31.82
-38.57
-44.77
-49.36
-51.29
-49.82
-44.75
-36.53
-26.16
-14.89
-3.92
5.90
14.09
20.49
25.04
27.75
28.69
28.09
26.45
24.47
22.90
22.26
22.64
23.71
24.87
25.52
25.29
24.12
22.22
19.86
17.24
14.38
11.12
7.23
2.48
-3.25
-9.99
-17.62
-25.84
-34.11
-41.63
-47.36
-50.24
-49.49
-44.90
-36.95
-26.74
-15.67
-5.03
4.30
11.98
18.06
22.75
26.23
28.55
29.74
29.93
29.47
28.83
28.50
28.75
29.52
30.40
30.82
30.30
28.63
25.99
22.80
19.48
16.23
12.99
9.48
5.46
0.76
-4.61
-10.64
-17.31
-24.51
-31.89
-38.64
-43.62
-45.60
-43.75
-37.98
-29.08
-18.44
-7.65
2.01
9.87
15.81
20.11
23.14
25.17
26.34
26.74
26.56
26.14
25.95
26.32
27.31
28.64
29.81
30.31
29.85
28.46
26.38
23.89
21.14
18.10
14.65
10.67
