1520863314.00
64.000000
-0.00
-0.00
-0.00
-0.00
-0.00
-0.00
-0.00
-0.00
-0.00
-0.00
0.00
0.01
0.01
-0.00
-0.03
-0.05
-0.05
0.00
0.13
0.36
0.66
1.01
1.37
1.72
2.06
2.40
2.79
3.24
3.80
4.42
5.06
5.66
6.20
6.68
7.15
7.68
8.31
9.14
10.09
11.04
11.88
12.56
13.14
13.76
14.65
15.96
17.91
20.32
22.90
25.38
27.58
29.57
31.68
34.32
37.81
42.54
48.15
54.10
59.83
64.97
69.58
74.14
79.34
85.71
93.76
103.00
112.62
121.73
129.77
136.75
143.30
150.75
157.77
166.64
177.95
191.79
206.97
220.57
228.25
225.36
208.53
176.87
132.76
80.05
23.07
-34.94
-92.44
-149.16
-205.23
-260.37
-313.74
-363.87
-409.83
-450.91
-486.50
-515.74
-537.23
-549.22
-549.96
-538.37
-514.21
-478.67
-433.88
-382.45
-327.02
-269.84
-212.63
-156.66
-102.95
-52.37
-5.90
35.58
71.43
101.35
125.50
144.38
158.69
169.15
176.37
180.75
182.57
182.07
179.51
175.23
169.65
163.18
156.15
148.81
141.30
133.69
126.02
118.33
110.69
103.16
95.80
88.68
81.83
75.25
68.95
62.95
57.25
51.86
46.78
42.03
37.59
33.45
29.61
26.07
22.81
19.83
17.11
14.67
12.48
10.54
8.83
7.35
6.07
4.97
4.05
3.27
2.62
2.09
1.65
1.30
1.01
0.79
0.61
0.47
0.37
0.29
0.23
0.19
0.17
0.16
0.16
0.17
0.19
0.22
0.25
0.28
0.32
0.36
0.41
0.45
0.50
0.55
0.60
0.65
0.71
0.77
0.83
0.90
0.98
1.06
1.16
1.26
1.38
1.51
1.66
1.83
2.02
2.22
2.46
2.71
2.99
3.30
3.64
4.02
4.42
4.86
5.34
5.86
6.41
7.01
7.65
8.32
9.05
9.82
10.63
11.49
12.40
13.34
14.35
15.42
16.55
17.74
19.00
20.27
21.54
22.74
23.77
24.53
24.89
24.75
23.96
22.48
20.26
17.33
13.76
9.64
5.19
0.60
-3.91
-8.13
-11.87
-14.97
-17.35
-18.94
-19.77
-19.89
-19.44
-18.55
-17.35
-15.94
-14.40
-12.76
-11.04
-9.26
-7.44
-5.64
-3.95
-2.39
-0.93
0.45
1.84
3.32
4.95
6.77
8.65
10.47
12.20
13.84
15.50
17.32
19.44
21.95
24.88
27.86
30.60
32.94
34.93
36.76
38.77
41.25
44.37
48.10
51.76
54.74
56.73
57.75
58.16
58.58
59.55
61.30
63.73
65.68
66.07
64.17
59.68
52.75
43.60
32.04
16.83
0.51
-16.97
-36.17
-57.89
-82.79
-111.07
-141.88
-173.10
-201.27
-222.38
-233.74
-234.42
-225.82
-211.33
-194.95
-179.74
-166.87
-155.50
-143.62
-129.78
-113.20
-94.10
-73.40
-52.22
-31.45
-11.76
6.37
22.59
36.17
46.60
53.76
58.03
60.28
61.60
63.02
65.22
68.38
72.12
75.98
79.61
82.85
85.76
88.40
90.77
92.73
94.06
94.43
93.61
91.53
88.28
84.17
79.66
75.25
71.37
68.16
65.44
62.74
59.50
55.27
49.84
43.22
35.52
26.76
16.88
5.85
-6.13
-18.43
-30.00
-39.57
-45.99
-48.58
-47.27
-42.63
-35.68
-27.62
-19.57
-12.38
-6.57
-2.31
0.47
1.96
2.33
1.79
0.53
-1.10
-2.59
-3.35
-2.91
-1.19
1.49
4.43
6.86
8.21
8.26
7.16
5.17
2.50
-0.79
-4.76
-9.41
-14.54
-19.78
-24.63
-28.68
-31.74
-33.89
-35.40
-36.57
-37.74
-39.15
-41.03
-43.53
-46.64
-50.13
-53.44
-55.83
-56.53
-55.07
-51.47
-46.37
-40.78
-35.69
-31.72
-28.80
-26.25
-23.09
-18.55
-12.39
-5.06
2.54
9.47
15.21
19.77
23.61
27.22
30.81
34.22
37.03
38.88
39.69
39.66
39.11
38.23
36.90
34.75
31.33
26.37
19.96
12.57
4.89
-2.45
-9.07
-14.95
-20.30
-25.55
-31.02
-36.85
-42.91
-48.75
-53.69
-56.89
-57.52
-54.94
-48.91
-39.73
-28.24
-15.66
-3.25
7.94
17.31
24.69
30.18
33.98
36.23
37.10
36.73
35.46
33.71
31.90
30.37
29.20
28.30
27.50
26.64
25.64
24.48
23.09
21.34
19.01
15.88
11.89
7.21
2.17
-2.73
-7.04
-10.55
-13.32
-15.72
-18.25
-21.42
-25.54
-30.62
-36.32
-41.93
-46.55
-49.22
-49.10
-45.68
-38.95
-29.38
-17.95
-5.93
5.35
14.80
21.80
26.31
28.78
29.88
30.24
30.24
30.00
29.53
28.89
28.23
27.73
27.46
27.28
26.95
26.23
25.08
23.58
21.89
20.00
17.79
15.05
11.71
7.94
4.07
0.48
-2.66
-5.50
-8.37
-11.75
-15.99
-21.16
-26.97
-32.79
-37.64
-40.48
-40.42
-37.04
-30.54
-21.75
-11.87
-2.06
6.81
14.33
20.40
25.03
28.22
29.90
30.04
28.80
26.61
24.03
21.61
19.72
18.41
17.53
16.88
16.33
15.86
15.48
15.17
14.86
14.36
13.51
12.18
10.27
7.72
4.51
0.69
-3.63
-8.20
-12.73
-17.06
-21.20
-25.41
-30.09
-35.55
-41.83
-48.53
-54.87
-59.76
-62.16
-61.32
-57.04
-49.65
-39.99
-29.08
-17.92
-7.27
2.38
10.72
17.59
22.86
26.50
28.64
29.61
29.85
29.87
30.06
30.58
31.35
32.09
32.50
32.36
31.56
30.18
28.32
26.04
23.32
20.03
16.08
11.43
6.18
0.55
-5.14
-10.54
-15.45
-19.80
-23.82
-27.96
-32.71
-38.41
-44.98
-51.87
-58.05
-62.39
-63.91
-62.07
-56.93
-49.02
-39.20
-28.43
-17.62
-7.53
1.26
8.41
13.80
17.57
20.00
21.46
22.32
22.83
23.15
23.34
23.44
23.47
23.41
23.26
23.00
22.58
21.94
20.94
19.46
17.33
14.48
10.96
6.92
2.63
-1.62
-5.63
-9.38
-12.98
-16.75
-21.02
-26.09
-31.97
-38.35
-44.48
-49.32
-51.83
-51.21
-47.17
-40.04
-30.63
-20.05
-9.41
0.39
8.78
15.47
20.43
23.75
25.60
26.20
25.87
25.01
24.08
23.45
23.30
23.56
23.96
24.24
24.19
23.79
23.11
22.14
20.81
18.92
16.29
12.87
8.75
4.25
-0.33
-4.69
-8.70
-12.44
-16.11
-20.10
-24.74
-30.24
-36.49
-43.00
-48.89
-53.06
-54.45
-52.34
-46.58
-37.70
-26.77
-15.12
-4.00
5.76
13.79
20.10
24.80
27.98
29.69
30.01
29.25
27.92
26.64
25.88
25.81
26.29
26.97
27.53
27.82
27.81
27.54
26.94
25.79
23.75
20.58
16.18
10.77
4.80
-1.20
-6.77
-11.69
-16.06
-20.20
-24.59
-29.65
-35.57
-42.16
-48.87
-54.73
-58.64
-59.54
-56.75
-50.23
-40.62
-29.15
-17.25
-6.18
3.28
10.90
16.80
21.24
24.39
26.27
26.92
26.51
25.39
24.03
22.84
22.12
21.87
21.94
22.07
22.01
21.59
20.65
19.08
16.81
13.82
10.18
6.05
1.66
-2.78
-7.14
-11.47
-16.02
-21.13
-27.05
-33.74
-40.72
-47.04
-51.51
-53.03
-50.95
-45.30
-36.80
-26.64
-16.15
-6.37
2.13
9.20
15.03
19.81
23.60
26.31
27.79
28.04
27.34
26.18
25.12
24.58
24.70
25.27
25.85
25.98
25.35
23.86
21.66
18.95
15.86
12.40
8.46
3.94
-1.20
-6.89
-13.03
-19.53
-26.26
-32.87
-38.73
-42.84
-44.14
-41.88
-35.94
-26.99
-16.27
-5.18
5.09
13.85
20.86
26.23
30.12
32.68
33.95
33.99
32.92
31.09
28.99
27.17
26.08
25.87
26.36
27.08
27.44
26.94
25.39
22.92
19.82
16.43
12.89
9.13
5.00
0.32
-4.91
-10.63
-16.75
-23.24
-30.02
-36.78
-42.80
-46.95
-48.04
-45.20
-38.30
-28.07
-15.88
-3.28
8.42
18.41
26.39
32.41
36.65
39.29
40.56
40.72
40.13
39.25
38.53
38.32
38.69
39.42
40.09
40.22
39.56
38.17
36.31
34.32
32.33
30.15
27.42
23.78
19.09
13.58
7.69
1.96
-3.26
-7.91
-12.19
-16.51
-21.32
-26.96
-33.52
-40.71
-47.90
-54.11
-58.26
-59.42
-57.05
-51.15
-42.30
-31.51
-19.94
-8.67
1.46
9.91
16.49
21.18
24.12
25.55
25.83
25.42
24.84
24.52
24.72
25.43
26.42
27.37
28.00
28.20
27.94
27.22
25.99
24.05
21.21
17.36
12.61
7.32
1.98
-2.98
-7.37
-11.33
-15.23
-19.54
-24.61
-30.53
-37.06
-43.63
-49.42
-53.48
-54.92
-53.11
-47.85
-39.53
-29.03
-17.58
-6.42
3.48
11.60
17.78
22.19
25.07
26.68
27.26
27.02
26.25
25.22
24.20
23.40
22.93
22.81
22.95
23.19
23.30
23.03
22.10
20.33
17.61
14.01
9.67
4.81
-0.26
-5.29
-10.09
-14.68
-19.27
-24.24
-29.92
-36.30
-42.91
-48.79
-52.78
-53.82
-51.29
-45.24
-36.35
-25.66
-14.34
-3.44
6.28
14.31
20.41
24.57
26.97
27.92
27.86
27.24
26.50
26.01
25.96
26.38
27.15
27.99
28.61
28.72
28.10
26.65
24.41
21.49
18.03
14.12
9.86
5.34
0.69
-3.90
-8.33
-12.61
-17.02
-21.95
-27.75
-34.48
-41.67
-48.38
-53.35
-55.44
-53.88
-48.57
-40.04
-29.31
-17.64
-6.21
4.05
12.60
19.29
24.20
27.55
29.59
30.59
30.83
30.63
30.34
30.18
30.23
30.37
30.42
30.21
29.72
29.04
28.27
27.38
26.20
24.44
21.84
18.30
13.93
8.98
3.80
-1.30
-6.14
-10.63
-14.86
-19.08
-23.71
-29.19
-35.74
-43.14
-50.58
-56.77
-60.33
-60.20
-56.09
-48.58
-38.84
-28.23
-17.87
-8.44
-0.20
6.74
12.25
16.09
18.04
18.11
16.65
14.34
11.94
10.04
8.80
8.04
7.32
6.15
4.15
1.14
-2.89
-7.94
-14.02
-21.17
-29.45
-38.81
-49.04
-59.71
-70.24
-79.98
-88.44
-95.54
-101.69
-107.73
-114.66
-123.30
-133.97
-146.34
-159.56
-172.52
-183.97
-192.74
-197.69
-197.91
-193.08
-183.87
-172.01
-159.74
-148.72
-139.05
-129.08
-116.20
-98.26
-74.70
-46.88
-17.19
12.21
40.33
67.36
93.87
119.88
144.44
165.95
182.97
194.92
202.10
205.44
205.93
204.22
200.56
194.95
187.35
177.87
166.86
154.86
142.52
130.43
118.99
108.41
98.73
89.92
81.99
75.00
68.98
63.78
59.06
54.26
48.74
42.10
34.40
26.30
19.04
14.05
12.46
14.67
20.17
27.64
35.48
42.26
47.13
49.75
50.19
48.67
45.44
40.87
35.52
30.13
25.50
22.22
20.48
20.05
20.44
21.11
21.65
21.82
21.49
20.63
19.17
17.09
14.41
11.20
7.51
3.45
-0.92
-5.54
-10.40
-15.56
-21.16
-27.32
-34.05
-41.02
-47.49
-52.46
-54.91
-54.16
-50.24
-43.84
-36.11
-28.31
-21.36
-15.74
-11.51
-8.59
-6.90
-6.45
-7.20
-8.96
-11.35
-13.82
-15.93
-17.37
-18.05
-18.06
-17.55
-16.69
-15.69
-14.82
-14.29
-14.28
-14.80
-15.69
-16.72
-17.67
-18.41
-18.93
-19.32
-19.72
-20.37
-21.62
-23.86
-27.28
-31.69
-36.32
-39.85
-40.81
-38.03
-31.13
-20.68
-7.99
5.29
17.70
28.26
36.55
42.49
46.16
47.66
47.13
44.84
41.31
37.21
33.31
30.23
28.28
27.40
27.29
27.57
27.94
28.27
28.56
28.85
29.08
29.08
28.61
27.50
25.66
23.10
19.79
15.61
10.42
4.26
-2.49
-8.96
-13.90
-16.05
-14.48
-8.99
-0.17
10.76
22.28
32.98
41.86
48.45
52.71
54.83
55.11
53.76
50.98
47.04
42.38
37.59
33.30
29.96
27.73
26.40
25.47
24.36
22.59
19.84
15.97
11.00
5.04
-1.66
-8.76
-15.80
-22.39
-28.33
-33.78
-39.09
-44.61
-50.34
-55.79
-60.05
-62.20
-61.65
-58.43
-53.15
-46.66
-39.79
-33.09
-26.89
-21.34
-16.61
-12.85
-10.17
-8.56
-7.84
-7.75
-7.98
-8.23
-8.28
-8.01
-7.44
-6.76
-6.27
-6.21
-6.62
-7.31
-7.94
-8.24
-8.25
-8.29
-8.88
-10.57
-13.61
-17.93
-23.14
-28.60
-33.52
-37.06
-38.44
-37.16
-33.11
-26.66
-18.58
-9.85
-1.38
6.17
12.40
17.17
20.43
22.23
22.67
21.97
20.42
18.43
16.40
14.66
13.45
12.79
12.59
12.55
12.31
11.57
10.13
8.07
5.64
3.14
0.77
-1.52
-4.04
-7.23
-11.47
-16.90
-23.24
-29.82
-35.63
-39.62
-40.96
-39.25
-34.66
-27.88
-19.84
-11.48
-3.53
3.59
9.67
14.60
18.26
20.58
21.52
21.23
20.03
18.33
16.60
15.15
14.10
13.33
12.57
11.54
10.13
8.40
6.54
4.79
3.25
1.86
0.44
-1.26
-3.49
-6.47
-10.38
-15.29
-21.04
-27.15
-32.72
-36.63
-37.89
-35.98
-31.04
-23.82
-15.42
-6.85
1.14
8.17
14.06
18.68
21.89
23.53
23.58
22.30
20.17
17.79
15.69
14.19
13.33
12.89
12.58
12.08
11.21
9.96
8.47
6.88
5.32
3.75
2.04
-0.02
-2.63
-5.88
-9.87
-14.59
-20.00
-25.91
-31.83
-36.96
-40.33
-41.02
-38.51
-32.92
-24.95
-15.71
-6.41
2.00
8.90
14.12
17.73
19.98
21.13
21.43
21.09
20.30
19.20
17.94
16.65
15.46
14.44
13.55
12.71
11.75
10.55
9.05
7.24
5.17
2.88
0.43
-2.18
-4.92
-7.85
-11.02
-14.62
-18.81
-23.61
-28.74
-33.54
-37.07
-38.35
-36.71
-32.05
-24.87
-16.18
-7.15
1.18
8.12
13.41
17.11
19.48
20.77
21.12
20.63
19.42
17.75
16.03
14.71
14.07
14.05
14.30
14.30
13.65
12.19
10.10
7.70
5.28
2.99
0.75
-1.65
-4.45
-7.88
-12.08
-17.05
-22.59
-28.16
-32.98
-36.17
-36.98
-35.06
-30.56
-24.08
-16.47
-8.60
-1.20
5.20
10.28
13.90
16.01
16.73
16.28
15.00
13.32
11.64
10.33
9.57
9.34
9.39
9.36
8.91
7.84
6.22
4.33
2.46
0.78
-0.80
-2.60
-5.06
-8.54
-13.14
-18.67
-24.65
-30.31
-34.84
-37.42
-37.45
-34.70
-29.39
-22.14
-13.89
-5.58
2.01
8.40
13.43
17.07
19.35
20.30
19.96
18.47
16.11
13.37
10.80
8.89
7.87
7.60
7.65
7.44
6.54
4.86
2.64
0.28
-1.88
-3.81
-5.80
-8.32
-11.78
-16.35
-21.86
-27.86
-33.64
-38.38
-41.23
-41.45
-38.58
-32.69
-24.39
-14.74
-4.99
3.82
10.99
16.31
19.87
21.89
22.53
21.93
20.26
17.85
15.16
12.74
10.95
9.88
9.28
8.75
7.88
6.47
4.59
2.47
0.42
-1.44
-3.16
-5.02
-7.31
-10.24
-13.89
-18.21
-23.09
-28.35
-33.61
-38.24
-41.29
-41.78
-38.97
-32.78
-23.83
-13.37
-2.80
6.66
14.25
19.76
23.25
25.03
25.37
24.55
22.89
20.73
18.45
16.38
14.74
13.61
12.94
12.56
12.26
11.81
11.03
9.78
8.04
5.86
3.37
0.66
-2.22
-5.32
-8.75
-12.66
-17.15
-22.23
-27.78
-33.47
-38.76
-42.90
-45.00
-44.27
-40.24
-33.07
-23.52
-12.83
-2.31
6.98
14.45
20.00
23.77
25.98
26.78
26.29
24.73
22.46
20.07
18.12
16.98
16.71
17.03
17.51
17.79
17.72
17.30
16.58
15.55
14.05
11.88
8.94
5.35
1.39
-2.54
-6.15
-9.35
-12.34
-15.52
-19.34
-24.11
-29.80
-35.88
-41.41
-45.17
-46.08
-43.49
-37.46
-28.74
-18.49
-7.95
1.87
10.35
17.18
22.26
25.55
27.10
27.08
25.84
23.91
21.88
20.19
19.05
18.40
18.00
17.60
17.08
16.47
15.89
15.40
14.94
14.27
13.11
11.25
8.67
5.57
2.24
-0.99
-3.99
-6.78
-9.55
-12.58
-16.13
-20.38
-25.32
-30.63
-35.75
-39.81
-41.86
-41.14
-37.31
-30.62
-21.85
-12.06
-2.36
6.41
13.67
19.15
22.84
24.86
25.47
24.97
23.78
22.27
20.80
19.66
19.05
19.00
19.40
20.02
20.56
20.85
20.75
20.26
19.38
18.05
16.17
13.67
10.53
6.87
2.87
-1.28
-5.42
-9.50
-13.49
-17.51
-21.71
-26.27
-31.30
-36.60
-41.61
-45.43
-47.06
-45.69
-41.04
-33.45
-23.77
-13.22
-2.96
6.05
13.29
18.58
22.08
24.12
25.07
25.26
24.92
24.20
23.22
22.12
21.09
20.34
19.92
19.80
19.81
19.69
19.22
18.29
16.88
15.03
12.78
10.14
7.09
3.67
-0.01
-3.77
-7.43
-10.92
-14.35
-18.00
-22.17
-27.02
-32.37
-37.59
-41.66
-43.48
-42.16
-37.37
-29.48
-19.45
-8.63
1.66
10.43
17.10
21.57
24.08
25.05
24.91
24.07
22.88
21.62
20.52
19.75
19.40
19.40
19.59
19.74
19.66
19.24
18.45
17.36
15.97
14.17
11.81
8.75
5.00
0.84
-3.32
-7.09
-10.25
-12.94
-15.55
-18.55
-22.35
-27.06
-32.43
-37.94
-42.86
-46.41
-47.82
-46.54
-42.32
-35.32
-26.14
-15.66
-4.93
5.09
13.67
20.35
24.97
27.56
28.39
27.85
26.45
24.71
23.11
21.92
21.25
20.98
20.90
20.76
20.38
19.69
18.70
17.44
15.99
14.34
12.45
10.27
7.75
4.89
1.80
-1.43
-4.61
-7.73
-10.87
-14.32
-18.42
-23.46
-29.43
-35.88
-41.97
-46.57
-48.67
-47.64
-43.41
-36.50
-27.81
-18.36
-9.10
-0.74
6.30
11.78
15.63
17.90
18.80
18.66
17.91
17.03
16.37
16.14
16.31
16.68
16.99
16.97
16.46
15.51
14.26
12.88
11.42
9.79
7.70
4.89
1.21
-3.27
-8.26
-13.32
-18.11
-22.41
-26.27
-29.92
-33.71
-37.92
-42.62
-47.58
-52.11
-55.24
-55.91
-53.30
-47.16
-37.90
-26.50
-14.21
-2.22
8.57
17.64
24.77
29.97
33.37
35.23
35.88
35.71
35.10
34.30
33.51
32.74
31.95
31.07
30.06
28.93
27.75
26.59
25.43
24.21
22.69
20.62
17.78
14.09
9.68
4.81
-0.16
-4.97
-9.43
-13.61
-17.72
-22.09
-27.02
-32.54
-38.27
-43.42
-46.88
-47.55
-44.75
-38.41
-29.21
-18.38
-7.34
2.67
10.91
17.13
21.52
24.39
26.00
26.54
26.14
25.08
23.79
22.76
22.32
22.44
22.79
22.86
22.33
21.18
19.71
18.27
17.06
15.95
14.57
12.48
9.46
5.67
1.46
-2.71
-6.55
-9.99
-13.25
-16.71
-20.80
-25.82
-31.72
-38.05
-43.92
-48.22
-49.87
-48.23
-43.23
-35.44
-25.80
-15.48
-5.52
3.30
10.50
15.91
19.55
21.60
22.35
22.13
21.26
20.10
18.99
18.23
17.96
18.20
18.79
19.43
19.83
19.78
19.19
18.07
16.43
14.27
11.53
8.19
4.29
-0.02
-4.57
-9.19
-13.85
-18.70
-23.99
-29.80
-35.96
-41.78
-46.20
-48.03
-46.38
-40.95
-32.25
-21.47
-10.10
0.46
9.23
15.84
20.36
23.11
24.49
24.82
24.36
23.35
22.06
20.74
19.64
18.92
18.63
18.74
19.12
19.55
19.77
19.45
18.34
16.27
13.29
9.57
5.38
0.97
-3.44
-7.76
-11.97
-16.18
-20.60
-25.51
-31.06
-37.11
-43.07
-47.83
-50.08
-48.71
-43.29
-34.22
-22.74
-10.42
1.22
11.13
18.84
24.33
27.84
29.75
30.47
30.42
30.00
29.51
29.14
28.89
28.69
28.41
27.96
27.32
26.54
25.72
24.89
23.98
22.78
20.95
18.19
14.34
9.53
4.13
-1.35
-6.50
-11.10
-15.26
-19.38
-23.95
-29.37
-35.72
-42.52
-48.77
-53.10
-54.14
-51.06
-43.85
-33.40
-21.17
-8.74
2.60
12.09
19.45
24.72
28.10
29.82
30.18
29.56
28.38
27.07
25.97
25.29
25.06
25.21
25.50
25.70
25.60
25.13
24.28
23.12
21.64
19.69
17.12
13.78
9.73
5.24
0.73
-3.41
-7.01
-10.23
-13.53
-17.50
-22.62
-28.94
-36.00
-42.77
-47.95
-50.30
-49.08
-44.30
-36.69
-27.49
-17.99
-9.28
-1.99
3.58
7.38
9.41
9.76
8.66
6.55
4.07
1.93
0.69
0.54
1.26
2.39
3.41
4.04
4.27
4.25
4.18
4.05
3.68
2.72
0.86
-2.02
-5.71
-9.77
-13.65
-16.92
-19.48
-21.61
-23.88
-26.94
-31.33
-37.25
-44.39
-51.87
-58.27
-61.90
-61.16
-55.05
-43.66
-28.22
-10.84
6.17
20.97
32.66
41.27
47.31
51.43
54.05
55.39
55.63
55.08
54.17
53.34
52.84
52.65
52.56
52.29
51.69
50.79
49.73
48.67
47.63
46.38
44.56
41.76
37.75
32.67
26.94
21.21
16.02
11.64
7.94
4.46
0.62
-4.11
-10.05
-17.17
-25.02
-32.69
-38.92
-42.37
-42.02
-37.52
-29.35
-18.73
-7.14
4.09
14.10
22.54
29.43
34.85
38.91
41.75
43.63
44.98
46.29
48.00
50.24
52.87
55.44
57.43
58.36
57.86
55.77
52.10
47.02
40.78
33.60
25.68
17.14
8.21
-0.82
-9.53
-17.43
-24.09
-29.32
-33.31
-36.54
-39.74
-43.61
-48.59
-54.61
-61.02
-66.65
-70.18
-70.43
-66.81
-59.48
-49.28
-37.47
-25.34
-13.92
-3.81
4.71
11.62
16.95
20.79
23.27
24.64
25.26
25.53
25.74
26.01
26.26
26.36
26.15
25.58
24.63
23.35
21.71
19.70
17.29
14.56
11.59
8.46
5.20
1.77
-1.91
-5.88
-10.17
-14.78
-19.67
-24.74
-29.65
-33.79
-36.32
-36.36
-33.49
-27.92
-20.58
-12.88
-6.15
-1.22
1.79
3.33
4.01
4.32
4.36
4.01
3.11
1.69
0.02
-1.49
-2.50
-2.87
-2.70
-2.24
-1.76
-1.50
-1.59
-2.07
-2.96
-4.24
-5.91
-7.91
-10.19
-12.71
-15.51
-18.70
-22.51
-27.11
-32.46
-38.14
-43.33
-46.96
-48.03
-45.88
-40.52
-32.54
-23.02
-13.14
-3.78
4.50
11.54
17.36
22.02
25.50
27.80
28.94
29.08
28.47
27.39
26.06
24.59
22.97
21.14
18.99
16.48
13.60
10.37
6.88
3.21
-0.57
-4.44
-8.47
-12.76
-17.52
-22.92
-29.04
-35.68
-42.31
-48.03
-51.74
-52.47
-49.73
-43.70
-35.23
-25.57
-15.99
-7.40
-0.20
5.63
10.31
13.96
16.52
17.78
17.59
16.00
13.40
10.33
7.43
5.22
4.13
4.51
6.50
10.07
14.88
20.30
25.54
29.81
32.60
33.65
32.98
30.70
26.94
21.80
15.41
8.02
0.06
-7.83
-14.79
-19.87
-22.19
-21.23
-17.02
-10.20
-1.84
6.89
15.02
21.97
27.50
31.52
34.01
34.90
34.20
32.12
29.12
25.87
22.98
20.85
19.48
18.61
17.86
16.95
15.84
14.64
13.47
12.35
11.06
9.31
6.85
3.63
-0.15
-4.15
-7.97
-11.38
-14.38
-17.16
-20.10
-23.57
-27.86
-33.01
-38.83
-44.76
-49.98
-53.56
-54.61
-52.55
-47.33
-39.49
-29.99
-20.02
-10.60
-2.42
4.23
9.33
12.95
15.17
16.09
15.93
15.05
13.95
13.07
12.73
12.92
13.40
13.84
13.95
13.61
12.89
11.90
10.76
9.48
8.00
6.16
3.90
1.16
-1.99
-5.43
-8.99
-12.48
-15.76
-18.79
-21.61
-24.36
-27.28
-30.57
-34.44
-38.98
-44.06
-49.23
-53.62
-56.11
-55.58
-51.37
-43.54
-32.95
-20.93
-8.85
2.25
11.80
19.62
25.65
29.88
32.30
33.05
32.49
31.18
29.74
28.68
28.22
28.33
28.75
29.15
29.23
28.85
28.06
27.01
25.86
24.70
23.39
21.66
19.25
16.02
12.07
7.64
3.07
-1.40
-5.62
-9.59
-13.42
-17.26
-21.29
-25.76
-30.83
-36.48
-42.34
-47.69
-51.50
-52.74
-50.69
-45.22
-36.83
-26.51
-15.43
-4.65
5.11
13.45
20.22
25.30
28.62
30.15
30.03
28.66
26.65
24.66
23.26
22.68
22.83
23.41
24.06
24.52
24.66
24.49
24.03
23.23
22.00
20.22
17.83
14.85
11.36
7.53
3.54
-0.40
-4.11
-7.43
-10.29
-12.75
-15.02
-17.42
-20.33
-24.05
-28.63
-33.82
-39.03
-43.43
-46.11
-46.31
-43.60
-37.97
-29.90
-20.19
-9.84
0.18
9.08
16.31
21.58
24.88
26.36
26.35
25.29
23.69
22.02
20.68
19.89
19.68
19.94
20.47
21.07
21.64
22.12
22.48
22.59
22.28
21.25
19.26
16.21
12.22
7.62
2.85
-1.70
-5.80
-9.46
-12.93
-16.56
-20.68
-25.47
-30.84
-36.36
-41.34
-44.84
-45.99
-44.11
-39.04
-31.10
-21.17
-10.35
0.24
9.68
17.40
23.15
26.89
28.75
28.94
27.81
25.79
23.37
20.97
18.87
17.20
15.96
15.08
14.45
13.90
13.26
12.28
10.78
8.66
5.95
2.81
-0.55
-3.96
-7.35
-10.72
-14.19
-17.94
-22.11
-26.82
-31.99
-37.27
-42.03
-45.39
-46.43
-44.47
-39.28
-31.20
-21.14
-10.32
-0.01
8.84
15.66
20.35
23.13
24.33
24.29
23.27
21.48
19.14
16.59
14.19
12.36
11.34
11.15
11.55
12.15
12.51
12.30
11.37
9.65
7.18
4.01
0.24
-3.99
-8.44
-12.87
-17.18
-21.43
-25.92
-31.01
-36.87
-43.29
-49.53
-54.43
-56.77
-55.65
-50.80
-42.67
-32.29
-20.94
-9.77
0.34
8.84
15.45
20.07
22.76
23.72
23.33
22.06
20.41
18.76
17.27
16.02
15.04
14.34
14.00
14.02
14.25
14.43
14.21
13.26
11.39
8.58
4.94
0.73
-3.73
-8.15
-12.36
-16.36
-20.40
-24.89
-30.25
-36.64
-43.72
-50.66
-56.26
-59.30
-58.85
-54.58
-46.81
-36.46
-24.79
-13.09
-2.41
6.70
14.08
19.87
24.26
27.39
29.30
30.11
30.06
29.61
29.22
29.19
29.52
29.95
30.16
29.93
29.27
28.33
27.27
26.11
24.69
22.72
19.92
16.13
11.33
5.68
-0.46
-6.63
-12.39
-17.46
-21.85
-25.81
-29.89
-34.59
-40.22
-46.73
-53.58
-59.89
-64.58
-66.62
-65.32
-60.47
-52.40
-41.93
-30.19
-18.32
-7.24
2.50
10.73
17.51
23.00
27.38
30.75
33.29
35.16
36.62
37.91
39.23
40.63
42.07
43.42
44.56
45.42
45.99
46.23
46.10
45.44
44.13
42.03
39.18
35.71
31.83
27.75
23.58
19.34
14.98
10.41
5.60
0.62
-4.40
-9.29
-13.96
-18.46
-23.09
-28.25
-34.24
-41.03
-47.97
-53.95
-57.56
-57.66
-53.74
-46.08
-35.58
-23.52
-11.14
0.54
10.82
19.29
25.74
30.19
32.86
34.14
34.52
34.47
34.32
34.28
34.41
34.68
35.00
35.26
35.33
35.11
34.51
33.50
32.12
30.38
28.29
25.84
23.04
19.94
16.64
13.21
9.68
6.00
2.10
-2.02
-6.23
-10.31
-14.06
-17.40
-20.49
-23.66
-27.34
-31.84
-37.25
-43.38
-49.64
-55.16
-58.83
-59.55
-56.62
-49.89
-39.98
-28.08
-15.64
-3.97
6.06
14.08
20.08
24.23
26.77
27.86
27.80
26.94
25.74
24.71
24.21
24.40
25.16
26.22
27.22
27.93
28.21
28.03
27.42
26.40
24.93
22.95
20.40
17.32
13.81
9.97
5.96
1.94
-1.98
-5.69
-9.18
-12.47
-15.65
-18.88
-22.37
-26.33
-30.86
-35.95
-41.21
-45.97
-49.28
-50.20
-48.04
-42.60
-34.32
-24.14
-13.26
-2.83
6.36
13.89
19.69
23.81
26.33
27.19
26.46
24.39
21.61
18.94
17.18
16.77
17.58
19.06
20.48
21.34
21.50
21.16
20.56
19.86
18.91
17.45
15.22
12.18
8.48
4.40
0.24
-3.80
-7.61
-11.18
-14.58
-17.97
-21.62
-25.83
-30.74
-36.23
-41.76
-46.46
-49.33
-49.52
-46.57
-40.54
-31.95
-21.66
-10.70
-0.10
9.26
16.77
22.16
25.54
27.22
27.62
27.18
26.20
24.95
23.70
22.73
22.32
22.58
23.46
24.71
25.96
26.85
27.10
26.54
25.18
23.13
20.56
17.68
14.62
11.43
8.08
4.48
0.60
-3.55
-7.79
-11.91
-15.71
-19.14
-22.29
-25.40
-28.72
-32.49
-36.85
-41.77
-46.97
-51.92
-55.83
-57.82
-57.13
-53.30
-46.42
-37.10
-26.36
-15.31
-5.01
3.86
10.94
16.18
19.69
21.68
22.42
22.25
21.63
21.02
20.79
21.16
22.10
23.42
24.82
26.02
26.80
27.00
26.59
25.61
24.19
22.44
20.43
18.14
15.49
12.39
8.81
4.81
0.58
-3.64
-7.63
-11.24
-14.48
-17.48
-20.54
-23.98
-28.04
-32.71
-37.62
-42.11
-45.35
-46.56
-45.22
-41.20
-34.72
-26.36
-16.88
-7.09
2.26
10.59
17.49
22.78
26.47
28.72
29.78
30.03
29.85
29.60
29.60
29.99
30.71
31.55
32.21
32.47
32.27
31.72
31.00
30.20
29.30
28.09
26.41
24.17
21.43
18.39
15.19
11.89
8.43
4.69
0.67
-3.47
-7.47
-11.06
-14.17
-16.94
-19.78
-23.12
-27.22
-31.98
-36.86
-40.97
-43.28
-42.93
-39.42
-32.86
-23.86
-13.39
-2.56
7.65
16.52
23.66
28.95
32.43
34.30
34.79
34.19
32.85
31.12
29.37
27.86
26.76
26.07
25.69
25.39
24.96
24.26
23.29
22.15
20.97
19.78
18.41
16.62
14.13
10.84
6.87
2.48
-2.05
-6.51
-10.87
-15.13
-19.26
-23.19
-26.87
-30.36
-33.85
-37.55
-41.50
-45.42
-48.69
-50.56
-50.34
-47.65
-42.48
-35.19
-26.42
-17.02
-7.93
-0.04
5.93
9.67
11.28
11.28
10.34
9.11
8.05
7.31
6.80
6.31
5.63
4.74
3.87
3.43
3.87
5.49
8.26
11.83
15.65
19.18
22.01
23.94
24.98
25.17
24.60
23.35
21.44
18.82
15.35
10.80
5.04
-1.79
-9.20
-16.29
-22.01
-25.43
-26.00
-23.69
-18.96
-12.62
-5.55
1.44
7.71
12.84
16.58
18.85
19.74
19.51
18.49
17.07
15.54
14.00
12.45
10.73
8.76
6.57
4.31
2.17
0.36
-1.07
-2.21
-3.19
-4.17
-5.22
-6.37
-7.63
-9.03
-10.59
-12.39
-14.44
-16.74
-19.29
-22.15
-25.43
-29.23
-33.51
-37.95
-41.93
-44.59
-45.10
-42.97
-38.26
-31.59
-23.98
-16.45
-9.74
-4.18
0.23
3.67
6.21
7.84
8.50
8.28
7.51
6.67
6.20
6.29
6.84
7.51
8.00
8.15
8.02
7.82
7.73
7.78
7.81
7.59
6.86
5.48
3.50
1.06
-1.60
-4.26
-6.73
-8.92
-10.84
-12.71
-14.83
-17.58
-21.21
-25.70
-30.65
-35.31
-38.76
-40.19
-39.13
-35.55
-29.90
-22.87
-15.30
-7.94
-1.38
3.98
8.01
10.79
12.58
13.67
14.34
14.74
14.90
14.84
14.62
14.39
14.33
14.56
15.05
15.69
16.27
16.69
16.91
17.03
17.11
17.11
16.82
15.93
14.18
11.53
8.21
4.56
0.94
-2.44
-5.54
-8.46
-11.28
-14.03
-16.76
-19.60
-22.75
-26.37
-30.39
-34.34
-37.34
-38.46
-36.92
-32.52
-25.61
-17.11
-8.10
0.39
7.62
13.25
17.21
19.63
20.72
20.74
19.99
18.90
17.88
17.26
17.27
17.81
18.66
19.48
19.98
20.06
19.71
18.99
17.98
16.73
15.30
13.73
12.09
10.40
8.67
6.83
4.79
2.50
-0.01
-2.64
-5.25
-7.72
-10.01
-12.25
-14.69
-17.64
-21.36
-25.93
-31.08
-36.21
-40.47
-42.98
-43.01
-40.24
-34.87
-27.51
-19.12
-10.74
-3.25
2.79
7.23
10.27
12.26
13.55
14.44
14.99
15.21
15.14
14.80
14.29
13.70
13.08
12.43
11.76
11.11
10.59
10.29
10.27
10.44
10.58
10.37
9.48
7.72
5.17
2.15
-0.84
-3.39
-5.33
-6.75
-7.98
-9.35
-11.11
-13.27
-15.78
-18.62
-21.86
-25.72
-30.34
-35.60
-40.98
-45.60
-48.50
-48.95
-46.69
-42.01
-35.65
-28.50
-21.38
-14.87
-9.29
-4.78
-1.43
0.73
1.71
1.64
0.82
-0.42
-1.65
-2.57
-2.97
-2.78
-2.08
-1.05
0.07
1.06
1.81
2.28
2.53
2.65
2.64
2.42
1.75
0.47
-1.56
-4.21
-7.19
-10.13
-12.71
-14.78
-16.50
-18.20
-20.32
-23.27
-27.25
-32.14
-37.43
-42.26
-45.54
-46.28
-43.82
-38.06
-29.50
-19.14
-8.15
2.36
11.56
18.94
24.33
27.75
29.46
29.84
29.44
28.88
28.77
29.57
31.38
33.95
36.70
38.98
40.31
40.57
39.98
38.95
37.75
36.36
34.43
31.51
27.38
22.26
16.75
11.61
7.29
3.71
0.30
-3.76
-9.04
-15.59
-22.84
-29.70
-34.94
-37.45
-36.54
-32.07
-24.43
-14.54
-3.56
7.28
16.98
24.96
30.99
35.09
37.38
37.98
37.12
35.24
32.99
31.15
30.29
30.59
31.81
33.39
34.79
35.58
35.64
34.97
33.59
31.48
28.57
24.78
20.20
15.02
9.55
4.11
-1.03
-5.77
-10.10
-14.25
-18.53
-23.34
-28.99
-35.56
-42.75
-49.81
-55.63
-59.00
-58.97
-55.10
-47.70
-37.68
-26.25
-14.59
-3.60
6.26
14.78
21.93
27.73
32.11
35.10
36.80
37.56
37.80
37.96
38.34
39.03
39.92
40.78
41.43
41.76
41.74
41.35
40.54
39.20
37.18
34.37
30.77
26.45
21.53
16.19
10.60
4.95
-0.49
-5.58
-10.28
-14.77
-19.37
-24.53
-30.58
-37.65
-45.51
-53.53
-60.71
-65.81
-67.67
-65.48
-59.13
-49.26
-37.10
-24.20
-11.84
-0.85
8.49
16.29
22.83
28.33
32.91
36.61
39.48
41.60
43.13
44.26
45.21
46.17
47.21
48.29
49.29
50.03
50.34
50.12
49.30
47.78
45.48
42.34
38.43
33.97
29.30
24.76
20.45
16.27
11.95
7.21
1.97
-3.60
-9.18
-14.43
-19.19
-23.55
-27.88
-32.65
-38.30
-45.03
-52.58
-60.26
-66.90
-71.19
-71.99
-68.66
-61.28
-50.64
-37.96
-24.60
-11.73
-0.13
9.78
17.91
24.32
29.15
32.61
34.95
36.52
37.66
38.70
39.84
41.07
42.30
43.35
44.03
44.26
44.00
43.31
42.24
40.81
38.98
36.64
33.66
29.95
25.59
20.83
16.01
11.44
7.25
3.39
-0.38
-4.23
-8.16
-12.07
-15.74
-19.06
-22.09
-25.02
-28.14
-31.65
-35.73
-40.55
-46.18
-52.58
-59.36
-65.67
-70.26
-71.82
-69.36
-62.67
-52.41
-39.88
-26.55
-13.69
-2.07
8.00
16.39
23.06
27.88
30.82
32.10
32.18
31.71
31.31
31.40
32.10
33.31
34.80
36.35
37.74
38.79
39.38
39.41
38.89
37.86
36.35
34.34
31.75
28.50
24.67
20.51
16.37
12.56
9.20
6.19
3.23
-0.00
-3.69
-7.78
-12.02
-16.13
-19.88
-23.24
-26.42
-29.81
-33.84
-38.84
-44.80
-51.35
-57.69
-62.73
-65.36
-64.67
-60.26
-52.36
-41.86
-30.03
-18.20
-7.38
1.83
9.27
15.01
19.18
21.91
23.31
23.63
23.25
22.64
22.23
22.25
22.75
23.59
24.59
25.49
26.07
26.16
25.74
24.91
23.86
22.74
21.55
20.10
18.10
15.35
11.86
7.88
3.80
-0.04
-3.47
-6.51
-9.32
-12.12
-15.13
-18.56
-22.58
-27.27
-32.54
-38.05
-43.16
-47.03
-48.72
-47.49
-42.95
-35.29
-25.27
-14.08
-3.03
6.76
14.58
20.22
23.79
25.61
25.98
25.18
23.54
21.44
19.40
17.91
17.34
17.71
18.74
19.98
20.96
21.40
21.24
20.60
19.61
18.38
16.83
14.82
12.16
8.70
4.51
-0.19
-5.03
-9.62
-13.72
-17.29
-20.45
-23.44
-26.46
-29.71
-33.39
-37.69
-42.67
-48.11
-53.36
-57.34
-58.90
-57.09
-51.61
-42.92
-32.08
-20.37
-9.02
1.08
9.44
15.88
20.40
23.18
24.46
24.55
23.86
22.76
21.64
20.80
20.44
20.62
21.29
22.29
23.47
24.62
25.52
25.99
25.83
24.97
23.35
21.03
18.14
14.80
11.14
7.27
3.30
-0.66
-4.51
-8.19
-11.69
-15.07
-18.35
-21.55
-24.78
-28.21
-32.15
-36.89
-42.56
-48.83
-54.87
-59.52
-61.53
-60.04
-54.82
-46.31
-35.50
-23.63
-11.94
-1.43
7.24
13.82
18.42
21.38
23.16
24.13
24.50
24.39
23.89
23.15
22.45
22.09
22.29
23.07
24.26
25.54
26.61
27.19
27.16
26.43
24.94
22.75
19.94
16.69
13.26
9.85
6.55
3.34
0.07
-3.37
-7.03
-10.79
-14.46
-17.90
-21.11
-24.27
-27.67
-31.66
-36.44
-41.92
-47.64
-52.81
-56.43
-57.52
-55.42
-49.92
-41.39
-30.69
-18.98
-7.45
2.82
11.17
17.28
21.24
23.40
24.22
24.21
23.84
23.50
23.43
23.76
24.42
25.27
26.24
27.24
28.26
29.26
30.09
30.52
30.32
29.34
27.51
24.99
21.94
18.57
15.06
11.51
8.00
4.58
1.27
-2.01
-5.28
-8.64
-12.07
-15.51
-18.89
-22.17
-25.38
-28.72
-32.44
-36.69
-41.43
-46.25
-50.38
-52.85
-52.70
-49.34
-42.73
-33.40
-22.36
-10.88
-0.13
8.97
15.91
20.62
23.34
24.52
24.70
24.33
23.78
23.32
23.07
23.11
23.49
24.16
25.03
25.90
26.49
26.64
26.26
25.45
24.36
23.08
21.61
19.87
17.78
15.30
12.55
9.58
6.44
3.12
-0.43
-4.15
-7.80
-11.14
-13.93
-16.18
-18.15
-20.22
-22.90
-26.56
-31.40
-37.22
-43.45
-49.09
-52.98
-54.07
-51.74
-46.06
-37.69
-27.66
-17.13
-7.08
1.78
9.08
14.66
18.62
21.21
22.73
23.52
23.79
23.69
23.35
22.93
22.67
22.79
23.37
24.36
25.55
26.68
27.50
27.81
27.53
26.60
25.06
22.96
20.38
17.37
13.98
10.27
6.31
2.25
-1.71
-5.37
-8.57
-11.31
-13.68
-15.94
-18.41
-21.41
-25.08
-29.38
-33.89
-37.89
-40.53
-41.03
-38.96
-34.33
-27.58
-19.47
-10.84
-2.52
4.86
10.93
15.46
18.43
19.91
20.08
19.24
17.77
16.19
14.98
14.44
14.57
15.15
15.76
16.13
16.17
16.04
15.94
15.93
15.85
15.32
14.05
11.85
8.79
5.09
1.02
-3.15
-7.20
-10.93
-14.21
-17.04
-19.64
-22.40
-25.70
-29.75
-34.30
-38.67
-41.84
-42.83
-40.94
-36.05
-28.61
-19.51
-9.88
-0.76
7.07
13.14
17.29
19.62
20.44
20.07
18.93
17.40
15.89
14.80
14.43
14.93
16.21
17.91
19.51
20.54
20.81
20.38
19.57
18.70
17.82
16.69
14.96
12.33
8.76
4.49
-0.06
-4.51
-8.60
-12.21
-15.39
-18.29
-21.15
-24.36
-28.25
-32.94
-38.21
-43.45
-47.75
-50.14
-49.89
-46.68
-40.68
-32.51
-23.05
-13.25
-4.01
3.99
10.31
14.74
17.34
18.40
18.40
17.92
17.51
17.53
18.11
19.13
20.39
21.62
22.67
23.39
23.70
23.55
22.95
21.94
20.55
18.71
16.32
13.27
9.56
5.38
1.06
-3.06
-6.79
-10.18
-13.44
-16.90
-20.82
-25.39
-30.62
-36.31
-41.92
-46.65
-49.56
-49.84
-47.11
-41.55
-33.81
-24.83
-15.58
-6.81
1.02
7.66
13.08
17.31
20.42
22.49
23.66
24.15
24.23
24.23
24.42
24.99
25.88
26.94
27.92
28.52
28.50
27.71
26.12
23.82
21.09
18.17
15.29
12.46
9.51
6.21
2.44
-1.72
-5.96
-10.01
-13.74
-17.28
-20.96
-25.15
-30.09
-35.79
-41.95
-48.00
-53.18
-56.59
-57.37
-54.95
-49.18
-40.50
-29.90
-18.60
-7.81
1.60
9.25
15.19
19.71
23.14
25.72
27.56
28.70
29.25
29.41
29.46
29.69
30.19
30.91
31.56
31.83
31.46
30.40
28.77
26.78
24.58
22.15
19.33
15.89
11.78
7.16
2.38
-2.14
-6.16
-9.70
-12.98
-16.38
-20.21
-24.63
-29.71
-35.39
-41.48
-47.55
-52.94
-56.75
-58.07
-56.29
-51.24
-43.32
-33.34
-22.35
-11.33
-1.11
7.76
14.91
20.17
23.55
25.23
25.58
25.14
24.49
24.15
24.46
25.44
26.89
28.39
29.55
30.09
29.98
29.35
28.41
27.25
25.73
23.60
20.59
16.63
11.91
6.88
2.01
-2.38
-6.23
-9.72
-13.16
-16.85
-21.03
-25.87
-31.42
-37.47
-43.50
-48.59
-51.64
-51.59
-47.88
-40.60
-30.61
-19.22
-7.79
2.58
11.32
18.32
23.76
27.88
30.79
32.51
33.07
32.67
31.78
31.03
30.98
31.92
33.69
35.77
37.49
38.31
38.05
36.79
34.88
32.66
30.30
27.77
24.90
21.47
17.34
12.53
7.22
1.73
-3.58
-8.44
-12.73
-16.57
-20.27
-24.23
-28.83
-34.31
-40.67
-47.65
-54.62
-60.64
-64.61
-65.45
-62.45
-55.50
-45.20
-32.74
-19.58
-7.06
3.87
12.80
19.80
25.12
29.12
32.00
33.93
35.04
35.60
35.96
36.55
37.61
39.15
40.92
42.52
43.55
43.80
43.19
41.83
39.86
37.41
34.55
31.29
27.62
23.48
18.87
13.85
8.53
3.13
-2.13
-7.04
-11.48
-15.44
-19.01
-22.45
-26.06
-30.24
-35.33
-41.44
-48.29
-55.10
-60.71
-63.85
-63.46
-59.06
-50.92
-39.94
-27.48
-14.93
-3.42
6.41
14.32
20.45
25.09
28.53
30.99
32.70
33.86
34.72
35.50
36.39
37.43
38.57
39.69
40.64
41.29
41.48
41.05
39.88
37.85
34.97
31.35
27.17
22.69
18.17
13.78
9.56
5.47
1.40
-2.72
-6.85
-10.90
-14.74
-18.34
-21.77
-25.21
-28.95
-33.29
-38.48
-44.55
-51.16
-57.54
-62.55
-64.89
-63.52
-58.01
-48.74
-36.81
-23.74
-11.01
0.25
9.46
16.58
21.84
25.58
28.14
29.72
30.56
30.94
31.20
31.68
32.57
33.87
35.28
36.48
37.09
36.98
36.16
34.81
33.06
31.00
28.62
25.93
22.99
19.86
16.64
13.34
9.92
6.30
2.46
-1.54
-5.57
-9.48
-13.17
-16.65
-20.09
-23.74
-27.91
-32.80
-38.45
-44.65
-50.83
-56.14
-59.54
-60.03
-56.96
-50.24
-40.39
-28.50
-15.90
-3.88
6.64
15.16
21.62
26.20
29.14
30.68
31.04
30.50
29.49
28.49
27.99
28.26
29.25
30.63
31.93
32.77
32.95
32.54
31.67
30.45
28.82
26.67
23.86
20.41
16.55
12.50
8.44
4.40
0.28
-3.99
-8.34
-12.55
-16.34
-19.52
-22.18
-24.71
-27.61
-31.36
-36.12
-41.67
-47.30
-52.01
-54.68
-54.40
-50.66
-43.55
-33.70
-22.20
-10.29
0.85
10.31
17.59
22.48
25.07
25.65
24.65
22.68
20.41
18.54
17.59
17.78
18.92
20.54
22.03
22.87
22.82
21.97
20.56
18.89
17.12
15.20
12.93
10.10
6.61
2.61
-1.61
-5.65
-9.24
-12.30
-15.00
-17.75
-21.01
-25.20
-30.43
-36.48
-42.62
-47.88
-51.09
-51.29
-47.95
-41.17
-31.59
-20.35
-8.79
1.90
10.80
17.44
21.77
24.08
24.79
24.32
23.11
21.55
20.05
19.00
18.68
19.13
20.10
21.19
21.96
22.13
21.64
20.63
19.30
17.71
15.86
13.62
10.88
7.59
3.80
-0.31
-4.57
-8.76
-12.71
-16.29
-19.50
-22.48
-25.56
-29.10
-33.42
-38.61
-44.40
-50.16
-54.92
-57.65
-57.41
