1520269688.00
64.000000
-0.00
-0.00
-0.00
-0.00
-0.00
-0.00
-0.00
-0.00
-0.00
-0.00
0.00
0.01
0.01
-0.00
-0.03
-0.05
-0.05
0.00
0.13
0.36
0.66
1.01
1.37
1.72
2.06
2.40
2.79
3.24
3.80
4.42
5.06
5.66
6.20
6.68
7.15
7.68
8.31
9.14
10.09
11.04
11.88
12.56
13.14
13.76
14.65
15.96
17.91
20.32
22.90
25.38
27.58
29.57
31.68
34.32
37.81
42.54
48.15
54.10
59.83
64.97
69.58
74.14
79.35
85.71
93.76
103.00
112.62
121.73
129.76
136.74
143.30
150.76
157.81
166.69
177.98
191.76
206.84
220.31
227.86
224.88
207.99
176.32
132.22
79.50
22.48
-35.63
-93.24
-150.08
-206.23
-261.39
-314.73
-364.82
-410.79
-451.98
-487.81
-517.35
-539.14
-551.33
-552.12
-540.44
-516.19
-480.71
-436.25
-385.46
-330.87
-274.52
-217.91
-162.15
-108.34
-57.59
-11.21
29.63
64.21
92.46
114.93
132.57
146.36
156.90
164.43
168.73
169.63
167.23
162.11
155.25
147.67
140.17
133.04
126.09
118.84
110.80
101.54
90.83
78.74
65.97
54.07
45.37
42.23
45.98
56.13
70.18
84.42
95.36
100.99
101.26
97.61
92.02
85.73
79.10
72.02
64.48
56.91
50.01
44.34
39.99
36.53
33.28
29.65
25.54
21.24
17.27
14.09
11.87
10.44
9.40
8.30
6.88
5.11
3.17
1.39
0.03
-0.78
-1.06
-1.05
-1.10
-1.52
-2.35
-3.32
-3.92
-3.66
-2.38
-0.46
1.31
2.10
1.48
-0.36
-2.74
-4.88
-6.24
-6.76
-6.69
-6.33
-5.80
-5.05
-4.02
-2.78
-1.60
-0.79
-0.51
-0.72
-1.24
-1.84
-2.35
-2.76
-3.06
-3.27
-3.35
-3.27
-3.00
-2.55
-1.95
-1.23
-0.46
0.33
1.11
1.76
2.21
2.41
2.38
2.25
2.18
2.31
2.70
3.28
3.95
4.57
5.08
5.53
6.06
6.79
7.77
8.95
10.12
10.98
11.27
10.78
9.49
7.58
5.39
3.13
1.05
-0.77
-2.31
-3.61
-4.76
-5.81
-6.79
-7.66
-8.37
-8.84
-9.02
-8.96
-8.77
-8.58
-8.48
-8.47
-8.48
-8.40
-8.15
-7.74
-7.24
-6.74
-6.29
-5.87
-5.41
-4.87
-4.28
-3.72
-3.31
-3.14
-3.19
-3.34
-3.43
-3.36
-3.14
-2.89
-2.75
-2.75
-2.81
-2.80
-2.64
-2.35
-2.09
-2.06
-2.33
-2.84
-3.39
-3.76
-3.84
-3.62
-3.17
-2.60
-1.94
-1.25
-0.57
-0.02
0.29
0.29
0.00
-0.46
-1.00
-1.57
-2.19
-2.91
-3.74
-4.57
-5.21
-5.55
-5.55
-5.37
-5.20
-5.16
-5.23
-5.29
-5.21
-4.98
-4.76
-4.82
-5.43
-6.73
-8.73
-11.35
-14.44
-17.81
-21.25
-24.48
-27.19
-29.10
-30.06
-30.12
-29.55
-28.69
-27.83
-27.04
-26.09
-24.53
-21.94
-18.08
-13.09
-7.49
-2.02
2.63
6.04
8.35
10.29
13.10
18.20
26.64
38.70
53.53
69.28
83.51
93.80
98.34
96.31
87.91
74.27
57.07
38.30
19.84
3.19
-10.76
-21.79
-30.12
-36.06
-39.74
-41.07
-39.94
-36.49
-31.22
-24.85
-18.03
-11.06
-3.91
3.53
11.20
18.63
25.11
30.00
33.06
34.61
35.36
36.08
37.33
39.26
41.70
44.30
46.70
48.64
50.04
50.92
51.37
51.44
51.07
50.14
48.53
46.24
43.47
40.59
37.98
35.90
34.39
33.28
32.35
31.49
30.70
29.98
29.32
28.55
27.48
25.98
24.08
21.98
19.89
17.91
15.95
13.81
11.29
8.36
5.18
1.96
-1.12
-4.03
-6.80
-9.44
-11.81
-13.73
-14.96
-15.40
-15.19
-14.70
-14.34
-14.51
-15.56
-17.95
-22.26
-29.15
-39.05
-51.93
-67.04
-82.92
-97.72
-109.76
-118.01
-122.33
-123.24
-121.63
-118.67
-115.43
-112.60
-110.30
-108.21
-105.80
-102.52
-97.93
-91.79
-84.77
-78.00
-72.50
-68.37
-64.75
-60.39
-54.24
-45.97
-36.07
-26.60
-20.09
-18.18
-20.49
-24.94
-28.92
-30.22
-27.35
-19.49
-7.75
5.28
16.01
20.84
16.59
0.84
-27.06
-64.97
-100.68
-120.06
-114.02
-84.99
-43.76
-1.32
35.78
65.61
88.78
106.38
117.75
121.29
116.15
103.91
88.38
73.68
62.55
55.57
51.78
48.01
40.96
28.81
12.37
-5.26
-20.10
-28.70
-29.02
-20.94
-6.59
9.97
24.22
32.80
34.49
30.17
22.37
14.48
8.06
4.90
5.57
9.22
14.13
18.48
20.95
21.17
19.68
17.42
15.34
13.70
12.27
10.84
9.53
8.83
9.21
10.61
12.35
13.46
13.05
10.83
7.40
3.96
1.54
0.52
0.43
0.30
-0.66
-2.87
-6.09
-9.61
-12.51
-14.03
-13.77
-11.85
-8.77
-5.12
-1.43
2.17
5.92
10.27
15.54
21.72
28.25
34.22
38.57
40.36
39.03
34.55
27.43
18.56
9.00
-0.24
-8.33
-14.54
-18.17
-18.64
-15.77
-10.05
-2.66
4.59
9.68
10.89
7.45
-0.07
-9.90
-19.61
-26.94
-30.63
-30.81
-28.89
-26.74
-25.77
-26.03
-26.50
-25.79
-22.96
-17.94
-11.62
-5.36
-0.57
1.80
2.08
1.08
-0.26
-1.12
-0.78
1.22
4.81
9.28
13.46
17.45
21.33
24.90
27.72
29.67
31.12
32.61
34.48
36.73
41.15
48.71
58.89
70.00
80.38
89.23
96.58
102.99
109.30
119.04
134.29
154.36
176.01
195.48
210.31
219.89
225.02
210.79
171.44
112.90
49.62
-5.20
-44.97
-68.69
-78.74
-79.50
-76.32
-71.36
-66.14
-62.05
-60.33
-61.43
-64.90
-70.01
-75.88
-82.43
-87.13
-87.94
-84.57
-78.50
-71.72
-65.73
-61.30
-58.54
-57.07
-54.83
-50.36
-43.55
-35.60
-28.15
-22.43
-18.52
-16.34
-15.62
-15.33
-14.76
-13.80
-12.76
-11.95
-11.41
-10.99
-10.62
-10.37
-10.12
-9.93
-10.08
-10.90
-12.67
-15.45
-19.05
-23.18
-27.42
-31.36
-34.70
-37.35
-39.34
-40.76
-41.68
-42.11
-42.00
-41.29
-39.88
-37.68
-34.62
-30.65
-25.82
-20.26
-14.20
-7.98
-1.90
3.79
8.94
13.47
17.40
20.80
23.82
26.69
29.68
33.05
36.98
41.41
46.00
50.15
53.15
54.33
53.30
50.03
44.83
38.23
30.75
22.82
14.71
6.66
-0.96
-7.64
-12.88
-16.32
-17.99
-18.36
-18.10
-17.85
-17.90
-18.14
-18.18
-17.62
-16.26
-14.25
-11.93
-9.68
-7.73
-6.10
-4.68
-3.38
-2.17
-1.15
-0.43
0.01
0.30
0.63
1.14
1.76
2.20
2.13
1.32
-0.14
-1.82
-3.18
-3.74
-3.33
-2.09
-0.33
1.72
3.99
6.61
9.70
13.22
16.88
20.30
23.15
25.41
27.33
29.41
32.07
35.49
39.42
43.21
46.06
47.29
46.77
45.15
43.83
44.61
49.17
58.52
72.67
90.52
110.05
128.76
144.17
154.32
158.18
155.83
148.32
137.18
124.01
109.91
95.44
80.74
65.91
51.22
37.23
24.53
13.50
4.23
-3.54
-10.18
-16.03
-21.34
-26.33
-31.21
-36.25
-41.60
-47.23
-52.73
-57.43
-60.63
-62.03
-62.08
-62.00
-63.43
-67.70
-75.27
-85.38
-96.39
-106.41
-114.05
-118.89
-121.36
-122.42
-122.95
-123.47
-124.01
-124.40
-124.43
-124.07
-123.40
-122.47
-121.18
-119.13
-115.77
-110.59
-103.38
-94.35
-84.14
-73.56
-63.30
-53.68
-44.68
-35.97
-27.20
-18.15
-8.88
0.26
8.76
16.11
21.95
26.23
29.20
31.29
32.93
34.42
35.84
37.18
38.35
39.27
39.87
40.00
39.42
37.85
35.07
30.97
25.66
19.44
12.67
5.76
-1.02
-7.61
-14.06
-20.54
-27.13
-33.74
-40.12
-46.01
-51.28
-56.02
-60.49
-64.96
-69.49
-73.90
-77.81
-80.76
-82.37
-82.44
-80.92
-77.99
-73.92
-69.10
-63.83
-58.28
-52.36
-45.76
-38.00
-28.67
-17.63
-5.15
8.14
21.38
33.74
44.68
53.99
61.72
68.05
72.97
76.29
77.65
76.68
73.29
67.67
60.34
51.98
43.25
34.72
26.81
19.77
13.70
8.59
4.35
0.85
-1.97
-4.09
-5.48
-6.13
-6.06
-5.34
-4.03
-2.15
0.30
3.30
6.63
9.93
12.67
14.34
14.66
13.69
11.87
9.88
8.45
8.09
9.01
11.06
13.83
16.85
19.77
22.38
24.62
26.43
27.75
28.51
28.74
28.64
28.52
28.71
29.39
30.49
31.78
32.96
33.73
33.91
33.36
31.96
29.69
26.68
23.28
19.92
16.94
14.33
11.68
8.37
3.97
-1.47
-7.21
-12.12
-15.10
-15.63
-13.96
-11.04
-8.04
-5.83
-4.68
-4.25
-3.88
-2.99
-1.35
0.91
3.43
5.83
7.84
9.27
9.92
9.54
7.87
4.77
0.40
-4.76
-10.05
-14.79
-18.56
-21.26
-23.09
-24.44
-25.70
-27.14
-28.86
-30.77
-32.63
-34.16
-35.03
-34.98
-33.96
-32.18
-30.09
-28.29
-27.23
-27.11
-27.76
-28.72
-29.44
-29.43
-28.42
-26.37
-23.42
-19.87
-16.06
-12.33
-8.97
-6.17
-3.96
-2.28
-0.99
0.00
0.75
1.23
1.44
1.39
1.05
0.41
-0.55
-1.83
-3.28
-4.69
-5.75
-6.20
-5.90
-4.83
-3.13
-1.00
1.32
3.59
5.58
7.10
8.03
8.36
8.21
7.75
7.22
6.76
6.37
5.89
5.06
3.68
1.71
-0.70
-3.22
-5.51
-7.35
-8.68
-9.55
-9.99
-9.93
-9.21
-7.67
-5.34
-2.45
0.61
3.40
5.62
7.16
8.14
8.74
9.12
9.38
9.57
9.69
9.77
9.92
10.20
10.62
11.10
11.45
11.50
11.15
10.46
9.61
8.79
8.18
7.82
7.63
7.44
7.06
6.38
5.36
4.09
2.71
1.39
0.24
-0.73
-1.62
-2.59
-3.80
-5.34
-7.18
-9.16
-11.01
-12.45
-13.18
-13.03
-11.90
-9.88
-7.17
-4.08
-0.93
2.01
4.57
6.70
8.41
9.71
10.63
11.16
11.32
11.17
10.82
10.39
9.97
9.60
9.27
8.95
8.67
8.48
8.43
8.51
8.62
8.59
8.25
7.50
6.40
5.08
3.76
2.55
1.52
0.63
-0.18
-0.98
-1.78
-2.66
-3.70
-5.05
-6.82
-8.97
-11.26
-13.33
-14.75
-15.18
-14.46
-12.66
-9.99
-6.77
-3.33
0.05
3.11
5.65
7.50
8.58
8.87
8.46
7.52
6.31
5.12
4.21
3.73
3.70
3.99
4.43
4.89
5.29
5.65
6.01
6.36
6.63
6.71
6.50
5.99
5.24
4.35
3.40
2.41
1.36
0.21
-1.06
-2.44
-3.88
-5.35
-6.81
-8.19
-9.33
-9.99
-9.91
-8.89
-6.89
-4.06
-0.72
2.72
5.88
8.48
10.40
11.66
12.35
12.58
12.44
12.01
11.35
10.55
9.71
8.96
8.40
8.11
8.04
8.08
8.06
7.83
7.32
6.59
5.73
4.87
4.06
3.27
2.39
1.33
0.06
-1.32
-2.70
-4.04
-5.37
-6.78
-8.37
-10.05
-11.62
-12.76
-13.18
-12.68
-11.23
-8.96
-6.11
-2.99
0.09
2.87
5.20
7.01
8.34
9.24
9.79
10.04
10.00
9.70
9.22
8.66
8.18
7.92
7.93
8.13
8.35
8.41
8.23
7.87
7.50
7.23
7.05
6.80
6.25
5.27
3.91
2.40
1.01
-0.10
-0.95
-1.71
-2.59
-3.72
-5.09
-6.62
-8.16
-9.54
-10.53
-10.92
-10.55
-9.36
-7.41
-4.92
-2.16
0.56
3.05
5.17
6.88
8.18
9.08
9.61
9.82
9.78
9.57
9.30
9.06
8.90
8.86
8.92
9.04
9.12
9.12
8.97
8.63
8.10
7.40
6.60
5.79
5.06
4.47
3.99
3.52
2.97
2.27
1.43
0.53
-0.36
-1.24
-2.22
-3.44
-4.97
-6.77
-8.57
-10.00
-10.67
-10.33
-8.99
-6.90
-4.42
-1.92
0.43
2.59
4.60
6.48
8.11
9.30
9.87
9.77
9.11
8.15
7.16
6.39
5.98
5.96
6.29
6.85
7.50
8.06
8.41
8.47
8.21
7.68
6.96
6.18
5.43
4.80
4.31
3.92
3.57
3.14
2.56
1.77
0.74
-0.49
-1.87
-3.29
-4.63
-5.78
-6.71
-7.39
-7.87
-8.12
-8.08
-7.63
-6.66
-5.19
-3.36
-1.38
0.52
2.18
3.57
4.66
5.43
5.84
5.83
5.47
4.90
4.36
4.07
4.10
4.39
4.75
5.00
5.05
4.93
4.70
4.48
4.31
4.20
4.10
3.92
3.62
3.18
2.61
1.99
1.35
0.72
0.10
-0.53
-1.18
-1.83
-2.43
-3.00
-3.58
-4.32
-5.29
-6.49
-7.73
-8.70
-9.08
-8.69
-7.55
-5.86
-3.88
-1.86
0.03
1.74
3.20
4.35
5.09
5.33
5.10
4.51
3.82
3.24
2.92
2.85
2.93
3.03
3.09
3.10
3.10
3.11
3.13
3.10
3.01
2.88
2.79
2.76
2.75
2.65
2.30
1.62
0.67
-0.40
-1.34
-2.03
-2.43
-2.69
-3.06
-3.76
-4.89
-6.32
-7.76
-8.84
-9.27
-8.95
-7.97
-6.59
-5.03
-3.44
-1.87
-0.31
1.20
2.57
3.66
4.37
4.71
4.78
4.72
4.66
4.63
4.59
4.52
4.42
4.32
4.26
4.28
4.38
4.52
4.68
4.82
4.88
4.76
4.33
3.53
2.39
1.05
-0.28
-1.37
-2.10
-2.47
-2.56
-2.54
-2.56
-2.74
-3.14
-3.81
-4.72
-5.86
-7.12
-8.35
-9.29
-9.65
-9.21
-7.88
-5.82
-3.34
-0.86
1.24
2.81
3.85
4.50
4.91
5.13
5.14
4.92
4.54
4.11
3.80
3.68
3.73
3.84
3.90
3.87
3.77
3.67
3.60
3.53
3.41
3.17
2.81
2.36
1.83
1.22
0.53
-0.24
-1.03
-1.76
-2.38
-2.89
-3.33
-3.76
-4.26
-4.89
-5.68
-6.64
-7.70
-8.73
-9.50
-9.77
-9.38
-8.34
-6.81
-5.03
-3.25
-1.61
-0.19
1.05
2.16
3.12
3.93
4.54
4.92
5.07
5.01
4.80
4.50
4.18
3.90
3.72
3.67
3.74
3.88
3.97
3.90
3.59
3.06
2.41
1.80
1.33
1.04
0.87
0.73
0.55
0.28
-0.09
-0.61
-1.27
-2.07
-2.93
-3.77
-4.52
-5.22
-5.99
-6.94
-8.07
-9.18
-9.91
-9.90
-8.95
-7.17
-4.87
-2.52
-0.49
1.01
1.99
2.59
3.01
3.37
3.72
4.03
4.26
4.40
4.44
4.42
4.40
4.42
4.52
4.68
4.85
5.00
5.06
5.03
4.93
4.79
4.66
4.54
4.40
4.21
3.97
3.67
3.32
2.92
2.45
1.92
1.37
0.86
0.45
0.14
-0.14
-0.53
-1.15
-2.04
-3.18
-4.44
-5.65
-6.62
-7.15
-7.14
-6.55
-5.48
-4.11
-2.63
-1.21
0.05
1.08
1.83
2.27
2.37
2.18
1.79
1.34
0.97
0.76
0.73
0.84
1.05
1.31
1.58
1.84
2.06
2.18
2.19
2.04
1.71
1.22
0.61
-0.07
-0.71
-1.27
-1.75
-2.23
-2.79
-3.48
-4.28
-5.11
-5.89
-6.58
-7.24
-7.95
-8.76
-9.63
-10.37
-10.72
-10.44
-9.43
-7.75
-5.65
-3.40
-1.26
0.62
2.17
3.40
4.26
4.74
4.82
4.54
4.06
3.59
3.30
3.27
3.46
3.74
4.01
4.20
4.31
4.38
4.44
4.51
4.59
4.64
4.64
4.57
4.36
3.97
3.38
2.63
1.79
0.93
0.12
-0.64
-1.39
-2.15
-2.88
-3.53
-4.10
-4.63
-5.23
-6.01
-6.99
-8.06
-8.98
-9.52
-9.47
-8.80
-7.56
-5.90
-3.97
-1.88
0.24
2.25
4.03
5.40
6.24
6.52
6.28
5.70
4.96
4.30
3.87
3.74
3.94
4.40
5.04
5.74
6.34
6.71
6.76
6.48
5.97
5.40
4.88
4.48
4.12
3.71
3.15
2.43
1.64
0.88
0.26
-0.21
-0.58
-0.98
-1.49
-2.18
-3.02
-3.96
-4.93
-5.92
-6.94
-7.98
-8.96
-9.71
-10.00
-9.64
-8.61
-7.05
-5.20
-3.28
-1.44
0.31
1.95
3.43
4.63
5.42
5.76
5.69
5.40
5.07
4.85
4.78
4.79
4.76
4.55
4.16
3.65
3.18
2.92
2.94
3.19
3.51
3.70
3.59
3.14
2.43
1.60
0.81
0.14
-0.41
-0.88
-1.37
-1.92
-2.50
-3.05
-3.52
-3.92
-4.39
-5.11
-6.28
-7.87
-9.67
-11.30
-12.35
-12.59
-11.98
-10.67
-8.87
-6.81
-4.63
-2.49
-0.55
1.04
2.17
2.84
3.15
3.25
3.27
3.27
3.28
3.31
3.32
3.30
3.21
3.06
2.88
2.74
2.73
2.88
3.13
3.37
3.52
3.55
3.44
3.22
2.89
2.39
1.70
0.88
0.04
-0.69
-1.23
-1.63
-2.00
-2.42
-2.94
-3.51
-4.06
-4.55
-5.00
-5.50
-6.15
-6.98
-7.97
-9.00
-9.88
-10.41
-10.44
-9.89
-8.78
-7.24
-5.43
-3.53
-1.69
-0.01
1.41
2.52
3.26
3.65
3.74
3.61
3.39
3.19
3.08
3.08
3.18
3.31
3.38
3.36
3.27
3.21
3.28
3.53
3.89
4.24
4.39
4.25
3.83
3.26
2.69
2.23
1.89
1.61
1.27
0.81
0.21
-0.46
-1.13
-1.72
-2.23
-2.69
-3.20
-3.84
-4.67
-5.63
-6.60
-7.35
-7.64
-7.31
-6.28
-4.63
-2.54
-0.29
1.86
3.72
5.16
6.17
6.78
7.04
6.99
6.70
6.26
5.80
5.46
5.32
5.40
5.63
5.91
6.15
6.32
6.42
6.47
6.46
6.34
6.08
5.62
5.01
4.29
3.58
2.96
2.46
2.01
1.49
0.79
-0.13
-1.18
-2.21
-3.04
-3.59
-3.87
-3.99
-4.11
-4.40
-4.96
-5.84
-6.99
-8.32
-9.66
-10.78
-11.45
-11.47
-10.74
-9.32
-7.35
-5.08
-2.77
-0.64
1.13
2.49
3.43
4.04
4.42
4.69
4.94
5.22
5.54
5.89
6.25
6.62
6.96
7.23
7.34
7.20
6.82
6.25
5.66
5.22
5.05
5.12
5.33
5.51
5.52
5.29
4.83
4.18
3.37
2.47
1.51
0.57
-0.27
-0.94
-1.41
-1.72
-1.98
-2.30
-2.81
-3.56
-4.51
-5.61
-6.75
-7.84
-8.79
-9.50
-9.86
-9.75
-9.10
-7.90
-6.24
-4.27
-2.18
-0.15
1.66
3.15
4.24
4.89
5.14
5.06
4.81
4.56
4.46
4.57
4.87
5.26
5.61
5.81
5.85
5.77
5.68
5.66
5.72
5.75
5.63
5.24
4.58
3.74
2.91
2.30
1.99
1.97
2.04
1.96
1.57
0.83
-0.11
-1.06
-1.87
-2.51
-3.04
-3.59
-4.20
-4.88
-5.56
-6.23
-6.94
-7.79
-8.79
-9.81
-10.59
-10.79
-10.21
-8.87
-6.98
-4.86
-2.83
-1.09
0.30
1.38
2.24
2.96
3.59
4.12
4.52
4.73
4.71
4.52
4.27
4.16
4.33
4.83
5.55
6.26
6.70
6.73
6.38
5.85
5.37
5.08
4.97
4.89
4.66
4.20
3.56
2.87
2.28
1.80
1.36
0.84
0.16
-0.70
-1.63
-2.55
-3.37
-4.07
-4.69
-5.28
-5.93
-6.74
-7.72
-8.86
-10.01
-10.96
-11.45
-11.26
-10.32
-8.71
-6.67
-4.50
-2.49
-0.82
0.45
1.36
2.02
2.51
2.88
3.12
3.18
3.08
2.86
2.63
2.48
2.46
2.55
2.68
2.79
2.86
2.88
2.91
2.95
3.00
3.03
2.98
2.81
2.49
1.98
1.29
0.43
-0.51
-1.41
-2.14
-2.61
-2.84
-2.89
-2.93
-3.11
-3.51
-4.17
-5.04
-6.09
-7.23
-8.39
-9.41
-10.14
-10.37
-9.97
-8.90
-7.28
-5.33
-3.30
-1.41
0.19
1.47
2.43
3.07
3.39
3.34
2.93
2.27
1.55
1.02
0.88
1.18
1.83
2.64
3.40
4.01
4.44
4.74
4.97
5.08
5.01
4.68
4.08
3.29
2.49
1.83
1.41
1.21
1.12
0.97
0.62
0.02
-0.79
-1.71
-2.61
-3.41
-4.06
-4.60
-5.06
-5.53
-6.09
-6.78
-7.61
-8.51
-9.35
-9.94
-10.13
-9.78
-8.88
-7.50
-5.77
-3.87
-1.97
-0.22
1.25
2.38
3.18
3.68
3.97
4.13
4.21
4.23
4.19
4.10
3.98
3.89
3.92
4.09
4.41
4.80
5.18
5.46
5.57
5.51
5.28
4.91
4.44
3.88
3.26
2.60
1.95
1.33
0.76
0.21
-0.36
-1.03
-1.83
-2.74
-3.65
-4.46
-5.07
-5.49
-5.78
-6.07
-6.49
-7.10
-7.91
-8.86
-9.83
-10.66
-11.16
-11.12
-10.37
-8.86
-6.72
-4.17
-1.56
0.83
2.77
4.17
5.01
5.36
5.27
4.86
4.29
3.73
3.36
3.29
3.49
3.84
4.18
4.37
4.37
4.28
4.18
4.17
4.21
4.23
4.12
3.81
3.32
2.70
2.01
1.29
0.57
-0.12
-0.75
-1.31
-1.79
-2.26
-2.77
-3.42
-4.27
-5.31
-6.50
-7.78
-9.02
-10.14
-10.99
-11.42
-11.31
-10.56
-9.20
-7.36
-5.27
-3.18
-1.27
0.39
1.79
2.94
3.85
4.45
4.70
4.62
4.30
3.92
3.61
3.46
3.52
3.76
4.16
4.64
5.14
5.55
5.75
5.70
5.41
4.95
4.43
3.88
3.31
2.66
1.93
1.17
0.47
-0.08
-0.46
-0.72
-1.01
-1.41
-1.99
-2.70
-3.48
-4.27
-5.05
-5.87
-6.76
-7.69
-8.53
-9.11
-9.21
-8.70
-7.56
-5.92
-3.99
-1.98
-0.08
1.62
3.05
4.20
5.03
5.48
5.55
5.26
4.72
4.10
3.59
3.35
3.44
3.85
4.46
5.12
5.72
6.14
6.32
6.24
5.90
5.35
4.62
3.79
2.97
2.26
1.68
1.20
0.73
0.14
-0.63
-1.57
-2.59
-3.55
-4.35
-5.00
-5.58
-6.27
-7.21
-8.42
-9.79
-11.05
-11.87
-12.00
-11.36
-10.01
-8.19
-6.14
-4.04
-1.98
-0.04
1.74
3.27
4.47
5.32
5.85
6.14
6.24
6.16
5.87
5.41
4.86
4.42
4.24
4.42
4.90
5.53
6.12
6.51
6.61
6.40
5.92
5.26
4.51
3.76
3.07
2.46
1.87
1.23
0.47
-0.42
-1.43
-2.45
-3.38
-4.16
-4.81
-5.40
-6.09
-7.02
-8.24
-9.70
-11.23
-12.56
-13.38
-13.43
-12.54
-10.73
-8.19
-5.24
-2.25
0.46
2.66
4.27
5.31
5.86
6.08
6.10
6.06
6.09
6.22
6.45
6.67
6.84
6.93
6.98
7.04
7.18
7.38
7.60
7.77
7.79
7.60
7.18
6.56
5.84
5.12
4.46
3.87
3.29
2.63
1.83
0.92
-0.07
-1.05
-1.98
-2.87
-3.69
-4.41
-5.04
-5.61
-6.25
-7.11
-8.30
-9.75
-11.24
-12.43
-12.96
-12.64
-11.41
-9.39
-6.83
-4.04
-1.37
0.90
2.59
3.69
4.31
4.66
4.91
5.13
5.32
5.47
5.56
5.66
5.85
6.17
6.62
7.13
7.62
7.97
8.12
8.04
7.72
7.24
6.70
6.17
5.69
5.24
4.77
4.22
3.59
2.92
2.25
1.59
0.90
0.08
-0.89
-2.01
-3.22
-4.44
-5.61
-6.74
-7.83
-8.90
-9.92
-10.83
-11.55
-11.97
-11.93
-11.34
-10.13
-8.37
-6.23
-3.94
-1.73
0.20
1.79
3.00
3.85
4.36
4.53
4.39
4.05
3.68
3.48
3.54
3.86
4.34
4.79
5.11
5.24
5.25
5.26
5.33
5.46
5.56
5.52
5.25
4.76
4.17
3.61
3.20
2.97
2.84
2.68
2.34
1.73
0.84
-0.30
-1.56
-2.82
-3.97
-4.96
-5.76
-6.46
-7.19
-8.07
-9.14
-10.31
-11.33
-11.87
-11.64
-10.47
-8.44
-5.83
-3.05
-0.52
1.49
2.87
3.74
4.27
4.62
4.88
5.04
5.07
5.02
4.95
4.99
5.20
5.55
5.91
6.15
6.17
5.98
5.67
5.34
5.02
4.64
4.12
3.41
2.57
1.75
1.12
0.77
0.65
0.60
0.47
0.15
-0.32
-0.85
-1.36
-1.84
-2.35
-2.95
-3.73
-4.69
-5.81
-7.01
-8.18
-9.17
-9.82
-9.98
-9.59
-8.65
-7.23
-5.44
-3.38
-1.18
0.97
2.92
4.48
5.55
6.13
6.29
6.18
5.96
5.74
5.58
5.53
5.60
5.78
6.02
6.26
6.45
6.55
6.54
6.46
6.32
6.12
5.84
5.49
5.07
4.65
4.25
3.89
3.53
3.09
2.51
1.76
0.89
-0.01
-0.85
-1.58
-2.22
-2.81
-3.43
-4.11
-4.86
-5.64
-6.43
-7.19
-8.00
-8.93
-10.02
-11.21
-12.24
-12.80
-12.56
-11.36
-9.29
-6.67
-3.90
-1.37
0.71
2.26
3.33
4.03
4.43
4.58
4.53
4.32
4.04
3.81
3.76
3.95
4.40
4.99
5.52
5.82
5.80
5.52
5.15
4.85
4.69
4.59
4.40
3.99
3.35
2.61
1.96
1.54
1.35
1.21
0.92
0.31
-0.64
-1.78
-2.87
-3.68
-4.09
-4.14
-4.06
-4.11
-4.56
-5.52
-6.93
-8.58
-10.14
-11.30
-11.81
-11.56
-10.57
-8.98
-6.98
-4.75
-2.50
-0.41
1.38
2.75
3.67
4.14
4.22
4.02
3.68
3.33
3.09
3.01
3.11
3.40
3.83
4.38
4.95
5.45
5.79
5.90
5.77
5.43
4.96
4.42
3.87
3.38
2.99
2.71
2.52
2.34
2.05
1.50
0.66
-0.44
-1.63
-2.72
-3.55
-4.09
-4.46
-4.86
-5.48
-6.39
-7.55
-8.76
-9.79
-10.41
-10.50
-10.03
-8.99
-7.49
-5.62
-3.54
-1.43
0.53
2.19
3.46
4.27
4.63
4.59
4.24
3.74
3.27
2.96
2.91
3.10
3.44
3.81
4.12
4.33
4.47
4.56
4.60
4.57
4.42
4.17
3.85
3.54
3.28
3.08
2.85
2.52
1.97
1.17
0.14
-1.03
-2.20
-3.25
-4.07
-4.65
-4.99
-5.20
-5.40
-5.73
-6.29
-7.12
-8.14
-9.15
-9.91
-10.17
-9.75
-8.62
-6.90
-4.82
-2.67
-0.73
0.85
1.99
2.72
3.15
3.37
3.45
3.43
3.32
3.12
2.92
2.78
2.79
2.97
3.25
3.54
3.75
3.83
3.79
3.70
3.59
3.47
3.32
3.12
2.85
2.52
2.13
1.66
1.08
0.35
-0.51
-1.45
-2.34
-3.07
-3.57
-3.84
-4.01
-4.26
-4.76
-5.62
-6.80
-8.11
-9.28
-10.05
-10.22
-9.77
-8.77
-7.39
-5.74
-3.93
-2.00
-0.00
1.96
3.71
5.06
5.87
6.08
5.77
5.10
4.30
3.53
2.94
2.62
2.62
2.90
3.41
3.98
4.45
4.70
4.66
4.38
3.94
3.44
2.95
2.45
1.93
1.40
0.86
0.32
-0.22
-0.82
-1.51
-2.26
-2.99
-3.60
-4.06
-4.44
-4.86
-5.45
-6.27
-7.30
-8.43
-9.49
-10.34
-10.81
-10.77
-10.14
-8.90
-7.13
-5.05
-2.93
-1.00
0.60
1.83
2.78
3.53
4.12
4.55
4.79
4.81
4.64
4.35
4.08
3.97
4.09
4.47
5.03
5.66
6.19
6.53
6.62
6.50
6.19
5.69
5.01
4.15
3.20
2.28
1.52
0.94
0.44
-0.14
-0.92
-1.90
-2.94
-3.86
-4.57
-5.10
-5.61
-6.25
-7.08
-8.06
-9.09
-10.03
-10.78
-11.21
-11.18
-10.55
-9.26
-7.33
-4.93
-2.28
0.33
2.63
4.41
5.56
6.06
6.02
5.66
5.20
4.82
4.63
4.62
4.74
4.92
5.11
5.34
5.62
5.94
6.29
6.59
6.78
6.82
6.68
6.37
5.90
5.26
4.48
3.60
2.75
2.07
1.64
1.43
1.28
1.00
0.44
-0.42
-1.47
-2.54
-3.51
-4.32
-5.00
-5.62
-6.28
-7.05
-7.99
-9.07
-10.17
-11.08
-11.48
-11.14
-9.93
-7.98
-5.60
-3.17
-1.02
0.74
2.15
3.35
4.38
5.21
5.69
5.76
5.50
5.14
4.98
5.18
5.68
6.25
6.63
6.69
6.53
6.37
6.40
6.65
6.99
7.20
7.10
6.70
6.10
5.49
4.96
4.52
4.11
3.62
3.02
2.31
1.53
0.73
-0.08
-0.88
-1.64
-2.32
-2.88
-3.29
-3.63
-4.03
-4.69
-5.76
-7.26
-9.02
-10.67
-11.78
-11.96
-11.06
-9.23
-6.84
-4.36
-2.11
-0.25
1.29
2.63
3.78
4.66
5.11
5.05
4.52
3.77
3.06
2.66
2.64
2.94
3.42
3.95
4.46
4.95
5.42
5.81
6.03
5.98
5.61
4.97
4.21
3.50
2.97
2.61
2.36
2.08
1.70
1.19
0.59
-0.04
-0.65
-1.24
-1.82
-2.45
-3.17
-4.00
-4.93
-5.90
-6.79
-7.43
-7.63
-7.24
-6.19
-4.60
-2.68
-0.72
1.02
2.42
3.46
4.19
4.69
4.97
5.02
4.84
4.49
4.09
3.76
3.60
3.59
3.67
3.78
3.89
4.02
4.17
4.34
4.48
4.55
4.53
4.42
4.25
3.99
3.61
3.08
2.41
1.69
1.00
0.39
-0.16
-0.72
-1.31
-1.91
-2.42
-2.77
-2.97
-3.22
-3.72
-4.66
-6.02
-7.63
-9.21
-10.53
-11.42
-11.82
-11.67
-10.92
-9.54
-7.60
-5.28
-2.89
-0.70
1.06
2.35
3.25
3.86
4.26
4.46
4.42
4.14
3.69
3.21
2.86
2.77
2.99
3.48
4.10
4.72
5.23
5.59
5.82
5.94
5.94
5.80
5.50
5.05
4.48
3.89
3.34
2.91
2.60
2.37
2.14
1.78
1.20
0.35
-0.68
-1.75
-2.72
-3.46
-4.00
-4.40
-4.82
-5.37
-6.15
-7.18
-8.45
-9.82
-11.09
-11.99
-12.26
-11.73
-10.39
-8.41
-6.06
-3.66
-1.49
0.26
1.49
2.21
2.53
2.60
2.55
2.53
2.59
2.80
3.14
3.61
4.15
4.67
5.09
5.32
5.35
5.23
5.07
4.96
4.91
4.86
4.70
4.34
3.74
2.96
2.12
1.36
0.79
0.43
0.20
-0.05
-0.43
-1.00
-1.67
-2.32
-2.82
-3.15
-3.40
-3.72
-4.26
-5.07
-6.13
-7.36
-8.67
-9.96
-11.09
-11.87
-12.06
-11.50
-10.14
-8.17
-5.92
-3.73
-1.85
-0.35
0.89
1.98
2.99
3.84
4.43
4.70
4.70
4.56
4.42
4.35
4.29
4.20
4.07
3.99
4.11
4.50
5.09
5.71
6.16
6.32
6.18
5.84
5.38
4.84
4.19
3.41
2.57
1.78
1.17
0.80
0.60
0.42
0.07
-0.54
-1.40
-2.40
-3.36
-4.11
-4.57
-4.79
-4.98
-5.37
-6.17
-7.41
-8.93
-10.40
-11.43
-11.72
-11.16
-9.81
-7.88
-5.62
-3.30
-1.11
0.79
2.24
3.17
3.58
3.54
3.25
2.88
2.58
2.44
2.44
2.55
2.73
2.96
3.23
3.52
3.80
4.05
4.24
4.36
4.41
4.40
4.30
4.09
3.75
3.32
2.86
2.48
2.17
1.86
1.40
0.69
-0.28
-1.33
-2.23
-2.80
-3.03
-3.12
-3.31
-3.83
-4.70
-5.77
-6.83
-7.69
-8.29
-8.58
-8.52
-8.00
-6.91
-5.20
-3.03
-0.71
1.38
2.94
3.88
4.29
4.38
4.33
4.28
4.23
4.17
4.08
3.97
3.84
3.68
3.46
3.18
2.91
2.79
2.94
3.42
4.14
4.84
5.26
5.20
4.63
3.71
2.70
1.79
1.09
0.55
0.03
-0.59
-1.35
-2.17
-2.90
-3.42
-3.70
-3.82
-3.97
-4.30
-4.92
-5.82
-6.92
-8.08
-9.11
-9.88
-10.21
-9.99
-9.13
-7.66
-5.70
-3.51
-1.36
0.51
1.97
3.01
3.69
4.07
4.16
3.97
3.54
2.98
2.46
2.18
2.24
2.65
3.29
4.04
4.76
5.35
5.76
5.95
5.91
5.65
5.22
4.67
4.04
3.38
2.72
2.10
1.53
1.01
0.45
-0.22
-1.05
-2.02
-3.01
-3.85
-4.44
-4.79
-5.01
-5.27
-5.73
-6.51
-7.68
-9.14
-10.69
-12.01
-12.73
-12.57
-11.45
-9.53
-7.16
-4.73
-2.52
-0.65
0.87
2.11
3.11
3.83
4.23
4.31
4.12
3.83
3.59
3.50
3.61
3.83
4.05
4.21
4.31
4.44
4.71
5.13
5.64
6.08
6.26
6.11
5.63
4.90
4.03
3.13
2.30
1.63
1.17
0.94
0.82
0.63
0.17
-0.68
-1.85
-3.16
-4.34
-5.26
-5.89
-6.37
-6.91
-7.62
-8.54
-9.59
-10.64
-11.55
-12.17
-12.38
-12.03
-11.02
-9.36
-7.20
-4.79
-2.41
-0.30
1.45
2.81
3.86
4.64
5.17
5.41
5.41
5.23
5.03
4.95
5.06
5.34
5.69
6.04
6.32
6.51
6.62
6.61
6.45
6.10
5.57
4.94
4.30
3.70
3.17
2.64
2.07
1.39
0.60
-0.30
-1.26
-2.24
-3.19
-4.05
-4.78
-5.42
-6.02
-6.69
-7.47
-8.36
-9.28
-10.07
-10.54
-10.49
-9.77
-8.33
-6.26
-3.81
-1.28
1.01
2.85
4.21
5.13
5.76
6.15
6.34
6.30
6.02
5.60
5.20
5.01
5.14
5.58
6.18
6.72
7.04
7.09
6.95
6.78
6.67
6.58
6.39
5.97
5.32
4.57
3.92
3.52
3.36
3.28
3.06
2.54
1.68
0.59
-0.58
-1.61
-2.36
-2.80
-3.00
-3.15
-3.50
-4.26
-5.52
-7.16
-8.95
-10.61
-11.88
-12.56
-12.55
-11.80
-10.34
-8.30
-5.89
-3.41
-1.11
0.83
2.34
3.44
4.15
4.54
4.63
4.46
4.08
3.59
3.13
2.82
2.77
3.01
3.48
4.06
4.62
5.08
5.42
5.65
5.79
5.80
5.66
5.32
4.82
4.20
3.51
2.77
2.00
1.23
0.53
-0.05
-0.52
-0.97
-1.51
-2.26
-3.24
-4.42
-5.71
-7.03
-8.26
-9.23
-9.70
-9.43
-8.31
-6.42
-4.06
-1.63
0.50
2.17
3.38
4.24
4.86
5.25
5.40
5.27
4.94
4.53
4.23
4.16
4.36
4.79
5.33
5.88
6.36
6.69
6.83
6.73
6.36
5.76
4.98
4.14
3.36
2.73
2.25
1.87
1.45
0.85
-0.02
-1.15
-2.39
-3.55
-4.45
-5.01
-5.33
-5.61
-6.10
-6.97
-8.25
-9.80
-11.35
-12.55
-13.10
-12.80
-11.63
-9.71
-7.37
-4.95
-2.80
-1.11
0.11
1.01
1.79
2.62
3.57
4.55
5.43
6.08
6.48
6.68
6.78
6.87
7.00
7.20
7.45
7.74
8.01
8.20
8.22
8.04
7.65
7.13
6.53
5.90
5.25
4.57
3.86
3.13
2.38
1.58
0.69
-0.33
-1.45
-2.60
-3.67
-4.60
-5.42
-6.26
-7.28
-8.52
-9.89
-11.14
-11.93
-11.95
-11.07
-9.33
-7.00
-4.42
-1.94
0.20
1.90
3.17
4.09
4.74
5.21
5.55
5.80
5.97
6.06
6.05
5.95
5.79
5.65
5.63
5.82
6.26
6.84
7.42
7.80
7.89
7.66
7.17
6.50
5.74
4.91
4.01
3.10
2.25
1.54
1.02
0.63
0.29
-0.12
-0.65
-1.27
-1.94
-2.67
-3.52
-4.62
-6.06
-7.82
-9.71
-11.48
-12.80
-13.40
-13.14
-12.01
-10.15
-7.80
-5.26
-2.84
-0.77
0.85
2.03
2.89
3.54
4.06
4.47
4.77
4.97
5.11
5.24
5.38
5.50
5.57
5.55
5.45
5.39
5.48
5.79
6.27
6.75
7.00
6.84
6.23
5.26
4.14
3.07
2.18
1.52
1.03
0.63
0.27
-0.14
-0.62
-1.24
-1.99
-2.84
-3.68
-4.42
-5.04
-5.64
-6.37
-7.37
-8.64
-10.01
-11.17
-11.75
-11.47
-10.29
-8.30
-5.78
-3.04
-0.39
1.97
3.87
5.22
5.94
6.00
5.43
4.43
3.30
2.37
1.91
2.03
2.62
3.49
4.44
5.31
6.01
6.49
6.72
6.66
6.33
5.84
5.28
4.72
4.17
3.55
2.80
1.89
0.90
-0.07
-0.93
-1.62
-2.15
-2.58
-2.98
-3.46
-4.10
-4.98
-6.06
-7.20
-8.20
-8.83
-8.91
-8.40
-7.33
-5.83
-4.04
-2.10
-0.15
1.69
3.30
4.58
5.49
6.01
6.17
6.02
5.64
5.20
4.81
4.62
4.68
4.97
5.38
5.76
5.98
5.99
5.86
5.70
5.59
5.59
5.61
5.51
5.18
4.56
3.73
2.83
2.05
1.45
1.00
0.55
-0.05
-0.86
-1.85
-2.89
-3.84
-4.60
-5.18
-5.68
-6.24
-6.99
-8.02
-9.29
-10.69
-12.02
-13.00
-13.36
-12.90
-11.59
-9.53
-7.00
-4.34
-1.85
0.25
1.85
2.99
3.78
4.36
4.81
5.18
5.47
5.70
5.91
6.13
6.38
6.62
6.80
6.86
6.77
6.60
6.42
6.32
6.32
6.38
6.37
6.16
5.71
5.06
4.31
3.61
3.03
2.54
2.06
1.46
0.69
-0.21
-1.12
-1.91
-2.54
-3.09
-3.66
-4.39
-5.29
-6.34
-7.47
-8.63
-9.73
-10.62
-11.12
-10.99
-10.13
-8.56
-6.49
-4.25
-2.13
-0.31
1.14
2.27
3.16
3.85
4.40
4.82
5.09
5.21
5.19
5.09
4.98
4.98
5.13
5.43
5.78
6.06
6.20
6.17
6.03
5.83
5.58
5.25
4.80
4.24
3.62
3.03
2.57
2.27
2.07
1.83
1.37
0.60
-0.47
-1.66
-2.78
-3.64
-4.19
-4.52
-4.82
-5.28
-6.01
-7.02
-8.23
-9.49
-10.60
-11.34
-11.49
-10.89
-9.51
-7.48
-5.11
-2.73
-0.67
0.90
1.96
2.61
3.00
3.23
3.31
3.24
3.03
2.74
2.55
2.63
3.09
3.84
4.67
5.32
5.63
5.60
5.37
5.13
4.98
4.86
4.64
4.23
3.67
3.09
2.64
2.40
2.34
2.31
2.16
1.80
1.19
0.38
-0.51
-1.36
-2.09
-2.67
-3.19
-3.78
-4.57
-5.63
-6.90
-8.23
-9.44
-10.32
-10.73
-10.59
-9.85
-8.58
-6.87
-4.89
-2.85
-0.94
0.68
1.93
2.75
3.17
3.25
3.08
2.82
2.58
2.43
2.37
2.41
2.51
2.69
2.95
3.27
3.57
3.74
3.73
3.52
3.20
2.87
2.61
2.43
2.26
2.04
1.71
1.31
0.90
0.51
0.11
-0.34
-0.89
-1.57
-2.28
-2.94
-3.49
-3.97
-4.50
-5.21
-6.13
-7.17
-8.08
-8.55
-8.35
-7.42
-5.92
-4.12
-2.31
-0.69
0.68
1.83
2.81
3.60
4.13
4.36
4.27
3.97
3.60
3.29
3.10
3.07
3.14
3.30
3.50
3.71
3.91
4.04
4.07
3.99
3.81
3.56
3.27
2.99
2.78
2.67
2.62
2.54
2.30
1.78
0.96
-0.10
-1.26
-2.37
-3.31
-4.02
-4.54
-4.92
-5.30
-5.76
-6.33
-7.06
-7.92
-8.91
-9.96
-10.97
-11.71
-11.97
-11.57
-10.46
-8.81
-6.86
-4.87
-2.99
-1.25
0.37
1.85
3.12
4.07
4.60
4.72
4.54
4.20
3.87
3.61
3.44
3.32
3.21
3.09
3.03
3.07
3.26
3.58
3.91
4.12
4.09
3.81
3.34
2.78
2.21
1.67
1.13
0.56
-0.05
-0.71
-1.40
-2.11
-2.77
-3.34
-3.77
-4.02
-4.17
-4.35
-4.72
-5.39
-6.39
-7.62
-8.91
-10.01
-10.68
-10.68
-9.91
-8.39
-6.31
-3.98
-1.70
0.28
1.85
2.97
3.65
3.92
3.81
3.41
2.89
2.47
2.33
2.52
2.97
3.50
3.99
4.37
4.68
4.99
5.33
5.63
5.78
5.66
5.27
4.70
4.09
3.61
3.29
3.07
2.78
2.33
1.69
0.95
0.26
-0.29
-0.76
-1.26
-1.94
-2.83
-3.83
-4.75
-5.42
-5.84
-6.15
-6.59
-7.31
-8.34
-9.52
-10.55
-11.08
-10.84
-9.75
-7.91
-5.64
-3.34
-1.36
0.10
1.08
1.74
2.31
2.88
3.45
3.91
4.16
4.17
4.04
3.90
3.84
3.88
3.98
4.06
4.09
4.08
4.05
4.04
4.04
4.01
3.89
3.63
3.25
2.81
2.41
2.12
1.94
1.81
1.64
1.31
0.78
0.01
-0.95
-2.01
-3.03
-3.86
-4.42
-4.71
-4.83
-4.96
-5.29
-5.96
-6.98
-8.28
-9.65
-10.81
-11.45
-11.36
-10.46
-8.85
-6.80
-4.61
-2.56
-0.77
0.74
2.01
3.02
3.72
4.02
3.92
3.53
3.06
2.71
2.60
2.74
3.08
3.52
3.96
4.35
4.67
4.87
4.94
4.87
4.66
4.34
3.97
3.58
3.23
2.89
2.54
2.10
1.48
0.68
-0.26
-1.21
-2.00
-2.50
-2.72
-2.78
-2.89
-3.23
-3.91
-4.91
-6.08
-7.21
-8.07
-8.45
-8.25
-7.45
-6.14
-4.45
-2.56
-0.63
1.17
2.71
3.85
4.54
4.78
4.66
4.32
3.94
3.63
3.45
3.42
3.51
3.68
3.88
4.06
4.19
4.27
4.30
4.32
4.34
4.33
4.23
4.00
3.65
3.20
2.71
2.22
1.71
1.14
0.51
-0.18
-0.88
-1.54
-2.16
-2.73
-3.28
-3.85
-4.48
-5.19
-6.06
-7.15
-8.49
-9.99
-11.45
-12.57
-13.03
-12.63
-11.36
-9.37
-6.99
-4.58
-2.40
-0.58
0.88
2.03
2.93
3.56
3.89
3.93
3.75
3.52
3.42
3.58
4.01
4.61
5.19
5.59
5.73
5.63
5.40
5.20
5.12
5.21
5.42
5.68
5.83
5.77
5.40
4.69
3.69
2.54
1.40
0.44
-0.26
-0.73
-1.09
-1.52
-2.13
-2.96
-3.94
-4.95
-5.88
-6.68
-7.35
-7.96
-8.60
-9.36
-10.26
-11.27
-12.27
-13.01
-13.22
-12.63
-11.13
-8.83
-6.04
-3.15
-0.53
1.57
3.06
3.97
4.39
4.45
4.28
4.03
3.84
3.82
4.03
4.46
5.04
5.68
6.29
6.77
7.06
7.12
6.96
6.64
6.22
5.77
5.31
4.84
4.37
3.88
3.44
3.06
2.73
2.40
1.95
1.29
0.39
-0.71
-1.89
-3.01
-3.97
-4.74
-5.33
-5.85
-6.41
-7.14
-8.15
-9.45
-10.96
-12.42
-13.50
-13.88
-13.34
-11.89
-9.69
-7.07
-4.33
-1.74
0.52
2.35
3.66
4.41
4.63
4.41
3.93
3.43
3.11
3.12
3.48
4.08
4.75
5.32
5.68
5.85
5.92
5.95
5.96
5.91
5.75
5.46
5.08
4.68
4.26
3.77
3.11
2.25
1.23
0.22
-0.60
-1.14
-1.44
-1.65
-1.96
-2.49
-3.27
-4.24
-5.34
-6.53
-7.76
-8.95
-9.86
-10.19
-9.65
-8.11
-5.66
-2.68
0.37
3.04
5.05
6.35
7.05
7.34
7.40
7.31
7.12
6.85
6.53
6.23
6.05
6.06
6.25
6.56
6.86
7.03
7.04
6.92
6.74
6.54
6.30
5.94
5.38
4.65
3.85
3.13
2.57
2.18
1.86
1.48
0.91
0.10
-0.90
-2.01
-3.10
-4.10
-5.01
-5.89
-6.87
-8.07
-9.51
-11.08
-12.56
-13.65
-14.07
-13.65
-12.35
-10.30
-7.77
-5.08
-2.49
-0.13
1.98
3.86
5.49
6.78
7.57
7.74
7.33
6.52
5.66
5.11
5.08
5.60
6.52
7.57
8.48
9.06
9.24
9.08
8.66
8.08
7.38
6.60
5.75
4.87
4.04
3.32
2.77
2.35
1.96
1.47
0.80
-0.07
-1.05
-2.01
-2.83
-3.49
-4.03
-4.57
-5.20
-6.03
-7.09
-8.41
-9.96
-11.62
-13.20
-14.39
-14.86
-14.34
-12.77
-10.31
-7.29
-4.17
-1.32
1.02
2.83
4.19
5.26
6.10
6.69
6.95
6.85
6.48
6.04
5.78
5.86
6.28
6.87
7.43
7.82
8.02
8.08
8.09
8.08
7.98
7.72
7.25
6.63
5.95
5.34
4.86
4.48
4.12
3.61
2.86
1.82
0.57
-0.73
-1.92
-2.90
-3.64
-4.25
-4.85
-5.55
-6.38
-7.39
-8.57
-9.93
-11.35
-12.63
-13.40
-13.30
-12.14
-9.99
-7.22
-4.31
-1.70
0.43
2.12
3.52
4.75
5.78
6.49
6.75
6.60
6.24
5.94
5.93
6.25
6.76
7.27
7.60
7.73
7.73
7.72
7.73
7.74
7.64
7.36
6.87
6.21
5.43
4.64
3.91
3.31
2.84
2.44
2.01
1.40
0.55
-0.51
-1.70
-2.85
-3.86
-4.70
-5.40
-6.04
-6.70
-7.49
-8.49
-9.77
-11.27
-12.83
-14.11
-14.71
-14.29
-12.74
-10.18
-6.97
-3.58
-0.48
2.01
3.77
4.81
5.30
5.40
5.25
4.97
4.65
4.41
4.34
4.51
4.90
5.41
5.88
6.23
6.42
6.52
6.63
6.80
6.99
7.09
6.95
6.53
5.84
5.00
4.13
3.32
2.59
1.91
1.22
0.48
-0.31
-1.12
-1.89
-2.59
-3.22
-3.85
-4.66
-5.74
-7.15
-8.73
-10.17
-11.10
-11.21
-10.40
-8.78
-6.62
-4.22
-1.85
0.31
2.19
3.72
4.86
5.55
5.83
5.77
5.52
5.26
5.14
5.23
5.53
5.98
6.46
6.92
7.31
7.62
7.82
7.86
7.70
7.36
6.90
6.39
5.86
5.27
4.56
3.71
2.78
1.91
1.23
0.75
0.33
-0.20
-1.01
-2.10
-3.32
-4.45
-5.36
-6.03
-6.60
-7.23
-8.07
-9.17
-10.50
-11.94
-13.33
-14.47
-15.09
-14.98
-14.00
-12.19
-9.74
-6.99
-4.30
-1.96
-0.08
1.38
2.56
3.59
4.52
5.31
5.88
6.16
6.19
6.03
5.83
5.65
5.53
5.48
5.46
5.48
5.57
5.76
6.01
6.23
6.31
6.15
5.73
5.04
4.18
3.21
2.21
1.24
0.34
-0.48
-1.22
-1.90
-2.58
-3.27
-3.99
-4.73
-5.49
-6.30
-7.19
-8.23
-9.40
-10.59
-11.58
-12.05
-11.74
-10.49
-8.40
-5.76
-2.95
-0.35
1.79
3.40
4.50
5.22
5.65
5.87
5.96
5.98
5.98
6.02
6.20
6.57
7.12
7.76
8.31
8.56
8.36
7.77
7.03
6.43
6.16
6.21
6.34
6.26
5.79
4.96
3.98
3.07
2.34
1.73
1.09
0.28
-0.74
-1.87
-2.96
-3.88
-4.59
-5.08
-5.43
-5.73
-6.12
-6.76
-7.79
-9.24
-10.95
-12.59
-13.73
-14.04
-13.33
-11.68
-9.35
-6.71
-4.08
-1.70
0.29
1.83
2.90
3.52
3.79
3.85
3.79
3.70
3.61
3.52
3.47
3.54
3.79
4.27
4.89
5.53
6.03
6.32
6.38
6.25
5.98
5.55
4.97
4.25
3.46
2.71
2.10
1.67
1.39
1.18
0.96
0.65
0.23
-0.35
-1.12
-2.13
-3.36
-4.76
-6.23
-7.60
-8.69
-9.34
-9.38
-8.76
-7.48
-5.69
-3.58
-1.41
0.58
2.24
3.53
4.49
5.17
5.64
5.87
5.82
5.49
4.99
4.50
4.21
4.23
4.53
4.94
5.29
5.48
5.54
5.56
5.61
5.65
5.59
5.30
4.76
4.09
3.43
2.89
2.47
2.01
1.34
0.37
-0.85
-2.13
-3.24
-4.00
-4.38
-4.47
-4.48
-4.62
-5.05
-5.81
-6.85
-8.04
-9.18
-10.08
-10.51
-10.32
-9.42
-7.87
-5.82
-3.51
-1.20
0.89
2.61
3.89
4.72
5.14
5.22
5.05
4.75
4.50
4.40
4.51
4.81
5.23
5.64
5.97
6.19
6.33
6.45
6.59
6.78
6.98
7.12
7.08
6.78
6.17
5.28
4.21
3.10
2.06
1.16
0.40
-0.27
-0.87
-1.38
-1.77
-2.00
-2.13
-2.27
-2.60
-3.26
-4.26
-5.53
-6.91
-8.24
-9.44
-10.42
-11.07
-11.27
-10.87
-9.78
-8.06
-5.92
-3.67
-1.58
0.21
1.65
2.79
3.62
4.12
4.27
4.11
3.77
3.48
3.43
3.70
4.22
4.86
5.45
5.92
6.22
6.39
6.42
6.34
6.15
5.84
5.46
5.03
4.59
4.17
3.78
3.39
2.98
2.49
1.85
1.03
0.05
-0.98
-1.90
-2.58
-2.97
-3.14
-3.28
-3.53
-4.03
-4.77
-5.69
-6.72
-7.81
-8.90
-9.91
-10.68
-10.98
-10.64
-9.62
-8.08
-6.27
-4.48
-2.90
-1.59
-0.48
0.50
1.41
2.25
2.97
3.53
3.89
4.09
4.17
4.18
4.17
4.17
4.21
4.30
4.47
4.73
5.07
5.42
5.70
5.83
5.73
5.40
4.87
4.19
3.47
2.77
2.13
1.57
1.08
0.65
0.26
-0.16
-0.67
-1.33
-2.16
-3.06
-3.92
-4.59
-5.02
-5.26
-5.50
-5.95
-6.74
-7.90
-9.30
-10.69
-11.81
-12.38
-12.22
-11.25
-9.54
-7.29
-4.84
-2.55
-0.69
0.61
1.42
1.91
2.30
2.66
3.00
3.22
3.27
3.20
3.15
3.25
3.56
4.01
4.41
4.61
4.53
4.20
3.75
3.30
2.90
2.58
2.31
2.08
1.89
1.72
1.55
1.34
1.09
0.80
0.46
0.07
-0.43
-1.05
-1.76
-2.47
-3.11
-3.62
-4.03
-4.40
-4.76
-5.14
-5.51
-5.88
-6.31
-6.90
-7.64
-8.43
-8.99
-9.00
-8.25
-6.72
-4.62
-2.30
-0.12
1.68
2.96
3.71
3.99
3.90
3.58
3.18
2.85
2.67
2.68
2.82
3.03
3.23
3.37
3.45
3.51
3.64
3.90
4.30
4.78
5.21
5.41
5.28
4.78
4.02
3.13
2.27
1.53
0.93
0.45
0.07
-0.26
-0.60
-1.00
-1.54
-2.24
-3.06
-3.95
-4.87
-5.78
-6.71
-7.70
-8.71
-9.64
-10.28
-10.43
-9.97
-8.89
-7.30
-5.41
-3.44
-1.57
0.04
1.29
2.15
2.63
2.82
2.85
2.84
2.88
2.97
3.08
3.20
3.32
3.51
3.81
4.19
4.58
4.89
5.05
5.05
4.94
4.75
4.46
4.02
3.41
2.69
1.95
1.33
0.89
0.61
0.41
0.20
-0.05
-0.36
-0.74
-1.19
-1.78
-2.50
-3.30
-4.10
-4.78
-5.32
-5.82
-6.42
-7.29
-8.44
-9.71
-10.81
-11.46
-11.48
-10.84
-9.64
-8.06
-6.25
-4.36
-2.51
-0.84
0.56
1.61
2.32
2.72
2.91
2.94
2.87
2.75
2.63
2.56
2.57
2.68
2.87
3.15
3.54
4.02
4.58
5.09
5.43
5.48
5.22
4.75
4.22
3.75
3.37
3.00
2.53
1.89
1.12
0.30
-0.45
-1.08
-1.56
-1.93
-2.24
-2.63
-3.15
-3.88
-4.78
-5.78
-6.77
-7.69
-8.53
-9.31
-10.01
-10.51
-10.56
-9.92
-8.52
-6.51
-4.26
-2.15
-0.46
0.79
1.75
2.60
3.41
4.09
4.51
4.54
4.20
3.65
3.10
2.78
2.77
3.07
3.58
4.12
4.55
4.78
4.84
4.81
4.80
4.84
4.90
4.87
4.64
4.16
3.50
2.78
2.13
1.54
0.96
0.27
-0.58
-1.54
-2.45
-3.12
-3.46
-3.51
-3.49
-3.64
-4.15
-5.05
-6.24
-7.59
-8.94
-10.20
-11.29
-12.08
-12.35
-11.92
-10.67
-8.68
-6.20
-3.58
-1.21
0.66
1.93
2.68
3.02
3.13
3.09
2.94
2.73
2.51
2.37
2.44
2.74
3.27
3.88
4.46
4.91
5.26
5.57
5.88
6.14
6.21
5.95
5.30
4.35
3.29
2.32
1.57
1.00
0.52
0.01
-0.58
-1.23
-1.86
-2.41
-2.90
-3.40
-4.00
-4.77
-5.68
-6.68
-7.69
-8.60
-9.28
-9.56
-9.30
-8.41
-6.94
-5.09
-3.13
-1.33
0.14
1.26
2.11
2.73
3.18
3.41
3.44
3.32
3.16
3.07
3.11
3.27
3.50
3.74
4.00
4.28
4.60
4.94
5.22
5.36
5.34
5.18
4.92
4.60
4.24
3.80
3.29
2.70
2.07
1.43
0.79
0.17
-0.46
-1.12
-1.80
-2.48
-3.14
-3.81
-4.53
-5.35
-6.28
-7.22
-7.94
-8.21
-7.83
-6.77
-5.18
-3.31
-1.41
0.35
1.92
3.26
4.31
4.99
5.26
5.13
4.76
4.35
4.07
3.98
4.06
4.20
4.34
4.48
4.69
5.01
5.43
5.84
6.09
6.05
5.70
5.10
4.39
3.71
3.17
2.75
2.37
1.94
1.37
0.65
-0.19
-1.12
-2.07
-3.00
-3.84
-4.53
-5.04
-5.40
-5.76
-6.29
-7.15
-8.34
-9.67
-10.78
-11.27
-10.89
-9.60
-7.60
-5.18
-2.68
-0.34
1.67
3.22
4.25
4.76
4.84
4.62
4.30
4.02
3.91
4.03
4.34
4.78
5.25
5.67
6.00
6.27
6.55
6.87
7.17
7.33
7.22
6.78
6.08
5.29
4.59
4.03
3.57
3.06
2.38
1.48
0.46
-0.52
-1.33
-1.93
-2.36
-2.73
-3.13
-3.61
-4.21
-4.94
-5.87
-7.04
-8.44
-9.91
-11.14
-11.78
-11.56
-10.39
-8.45
-6.09
-3.71
-1.60
0.06
1.28
2.14
2.78
3.29
3.75
4.21
4.69
5.15
5.54
5.78
5.84
5.77
5.68
5.74
6.02
6.49
6.98
7.28
7.27
6.98
6.53
6.09
5.74
5.42
4.99
4.37
3.55
2.63
1.71
0.84
-0.02
-0.92
-1.84
-2.67
-3.27
-3.57
-3.64
-3.70
-3.99
-4.71
-5.86
-7.26
-8.61
-9.60
-9.97
-9.64
-8.62
-7.09
-5.24
-3.31
-1.48
0.13
1.45
2.47
3.18
3.60
3.74
3.66
3.43
3.15
2.91
2.80
2.85
3.07
3.43
3.85
4.28
4.68
5.03
5.32
5.56
5.70
5.71
5.55
5.20
4.68
4.03
3.31
2.58
1.85
1.13
0.43
-0.20
-0.73
-1.14
-1.45
-1.75
-2.15
-2.72
-3.51
-4.51
-5.66
-6.88
-8.10
-9.13
-9.78
-9.87
-9.25
-7.95
-6.17
-4.20
-2.33
-0.72
0.60
1.72
2.69
3.51
4.07
4.27
4.06
3.54
2.92
2.45
2.29
2.52
3.07
3.84
4.70
5.55
6.26
6.71
6.75
6.28
5.31
4.03
2.72
1.68
1.09
0.94
1.07
1.22
1.20
0.93
0.43
-0.23
-0.97
-1.74
-2.51
-3.29
-4.10
-4.95
-5.85
-6.72
-7.46
-7.89
-7.86
-7.30
-6.22
-4.74
-3.01
-1.19
0.60
2.20
3.45
4.21
4.41
4.15
3.65
3.19
2.97
3.06
3.37
3.74
4.06
4.27
4.41
4.54
4.71
4.90
5.04
5.09
5.00
4.79
4.48
4.14
3.78
3.40
2.96
2.43
1.77
1.00
0.20
-0.58
-1.25
-1.82
-2.28
-2.68
-3.06
-3.44
-3.83
-4.27
-4.78
-5.39
-6.14
-7.03
-8.03
-9.04
-9.92
-10.46
-10.48
-9.84
-8.56
-6.79
-4.77
-2.81
-1.12
0.18
1.11
1.76
2.24
2.61
2.86
2.98
2.97
2.86
2.76
2.76
2.94
3.32
3.87
4.49
5.07
5.47
5.62
5.52
5.22
4.81
4.38
3.99
3.64
3.31
3.00
2.66
2.26
1.73
1.04
0.16
-0.86
-1.91
-2.85
-3.58
-4.07
-4.38
-4.59
-4.82
-5.14
-5.64
-6.38
-7.33
-8.39
-9.28
-9.72
-9.46
-8.40
-6.68
-4.60
-2.52
-0.71
0.66
1.58
2.13
2.42
2.60
2.77
2.99
3.25
3.51
3.71
3.83
3.92
4.02
4.18
4.37
4.49
4.49
4.37
4.20
4.09
4.05
4.03
3.91
3.61
3.12
2.54
1.98
1.49
1.01
0.46
-0.22
-1.05
-1.92
-2.74
-3.40
-3.89
-4.22
-4.44
-4.61
-4.81
-5.15
-5.75
-6.65
-7.81
-9.03
-10.05
-10.59
-10.44
-9.58
-8.12
-6.28
-4.32
-2.48
-0.89
0.38
1.35
2.04
2.46
2.65
2.67
2.61
2.54
2.54
2.64
2.82
3.07
3.34
3.62
3.87
4.04
4.14
4.17
4.12
4.03
3.86
3.54
3.05
2.40
1.71
1.16
0.88
0.86
0.92
0.81
0.33
-0.50
-1.51
-2.44
-3.12
-3.54
-3.85
-4.24
-4.86
-5.72
-6.74
-7.77
-8.66
-9.30
-9.59
-9.41
-8.70
-7.45
-5.74
-3.75
-1.73
0.09
1.57
2.63
3.26
3.53
3.50
3.28
3.02
2.84
2.88
3.17
3.68
4.26
4.77
5.12
5.32
5.40
5.43
5.41
5.30
5.11
4.86
4.62
4.45
4.37
4.31
4.15
3.80
3.20
2.41
1.57
0.80
0.17
-0.38
-0.94
-1.65
-2.53
-3.53
-4.54
-5.44
-6.22
-6.93
-7.62
-8.30
-8.84
-9.03
-8.64
-7.60
-5.96
-3.96
-1.90
-0.03
1.54
2.76
3.64
4.15
4.30
4.12
3.75
3.40
3.27
3.46
3.93
4.51
5.02
5.37
5.55
5.65
5.73
5.78
5.77
5.64
5.37
5.02
4.67
4.36
4.11
3.90
3.66
3.36
2.99
2.55
2.06
1.48
0.76
-0.12
-1.12
-2.15
-3.07
-3.79
-4.32
-4.72
-5.12
-5.61
-6.26
-7.07
-7.98
-8.90
-9.68
-10.10
-9.98
-9.19
-7.76
-5.86
-3.74
-1.67
0.17
1.69
2.91
3.86
4.55
4.95
5.06
4.92
4.70
4.60
4.75
5.18
5.73
6.16
6.25
5.97
5.47
5.01
4.78
4.85
5.08
5.26
5.25
5.02
4.65
4.23
3.79
3.29
2.66
1.86
0.95
0.03
-0.79
-1.47
-2.04
-2.61
-3.26
-4.00
-4.81
-5.62
-6.40
-7.17
-7.99
-8.88
-9.81
-10.65
-11.22
-11.31
-10.75
-9.46
-7.50
-5.03
-2.34
0.26
2.51
4.17
5.17
5.50
5.29
4.73
4.09
3.61
3.49
3.79
4.38
5.02
5.46
5.58
5.39
5.07
4.82
4.74
4.84
4.98
5.01
4.82
4.39
3.79
3.14
2.57
2.18
1.93
1.74
1.45
0.91
0.08
-0.92
-1.90
-2.61
-2.95
-2.97
-2.89
-2.97
-3.43
-4.31
-5.55
-7.01
-8.53
-9.92
-10.95
-11.37
-10.95
-9.63
-7.60
-5.22
-2.94
-1.09
0.25
1.19
1.92
2.57
3.15
3.62
3.90
3.96
3.86
3.65
3.40
3.20
3.08
3.10
3.28
3.56
3.89
4.22
4.53
4.79
5.00
5.07
4.92
4.50
3.87
3.13
2.44
1.88
1.44
1.02
0.51
-0.15
-0.92
-1.69
-2.33
-2.80
-3.14
-3.47
-3.94
-4.65
-5.62
-6.73
-7.80
-8.52
-8.67
-8.08
-6.75
-4.82
-2.55
-0.25
1.82
3.46
4.63
5.34
5.66
5.65
5.42
5.05
4.66
4.35
4.21
4.26
4.44
4.68
4.89
5.03
5.11
5.16
5.23
5.27
5.24
5.04
4.62
3.99
3.24
2.47
1.81
1.32
1.02
0.85
0.69
0.44
0.03
-0.56
-1.27
-1.98
-2.56
-2.91
-3.04
-3.05
-3.18
-3.67
-4.70
-6.26
-8.14
-10.05
-11.62
-12.58
-12.81
-12.26
-11.04
-9.29
-7.21
-5.03
-2.99
-1.25
0.10
1.07
1.74
2.17
2.42
2.54
2.56
2.53
2.53
2.63
2.86
3.18
3.52
3.79
3.96
4.05
4.17
4.39
4.77
5.24
5.61
5.71
5.42
4.77
3.95
3.16
2.57
2.19
1.91
1.54
0.96
0.15
-0.77
-1.64
-2.35
-2.89
-3.35
-3.90
-4.68
-5.75
-7.05
-8.42
-9.71
-10.75
-11.41
-11.60
-11.25
-10.33
-8.85
-6.93
-4.74
-2.53
-0.50
1.21
2.52
3.41
3.87
3.92
3.59
2.97
2.24
1.57
1.15
1.08
1.36
1.88
2.53
3.17
3.72
4.13
4.39
4.50
4.50
4.43
4.34
4.26
4.20
4.11
3.94
3.63
3.15
2.50
1.72
0.85
-0.02
-0.79
-1.39
-1.80
-2.09
-2.38
-2.80
-3.46
-4.42
-5.65
-7.04
-8.40
-9.50
-10.09
-9.99
-9.19
-7.81
-6.13
-4.37
-2.69
-1.14
0.32
1.68
2.93
3.97
4.70
5.08
5.12
4.88
4.47
4.03
3.69
3.58
3.75
4.16
4.68
5.17
5.49
5.61
5.57
5.45
5.33
5.17
4.91
4.47
3.82
3.00
2.17
1.44
0.86
0.39
-0.08
-0.63
-1.26
-1.88
-2.42
-2.84
-3.23
-3.71
-4.38
-5.21
-6.08
-6.77
-7.11
-6.98
-6.34
-5.19
-3.58
-1.64
0.43
2.36
3.88
4.85
5.28
5.33
5.21
5.08
5.02
5.03
5.07
5.11
5.14
5.16
5.16
5.12
5.08
5.10
5.24
5.50
5.80
5.99
5.91
5.53
4.90
4.16
3.42
2.69
1.94
1.09
0.13
-0.88
-1.83
-2.62
-3.22
-3.70
-4.17
-4.77
-5.56
-6.59
-7.80
-9.06
-10.19
-10.96
-11.18
-10.71
-9.56
-7.84
-5.75
-3.52
-1.43
0.34
1.65
2.52
3.04
3.34
3.53
3.67
3.75
3.76
3.76
3.83
4.06
4.49
5.05
5.63
6.14
6.49
6.68
6.69
6.54
6.25
5.86
5.37
4.84
4.27
3.66
3.00
2.32
1.63
0.97
0.33
-0.34
-1.11
-1.99
-2.90
-3.71
-4.32
-4.69
-4.91
-5.16
-5.67
-6.55
-7.78
-9.18
-10.43
-11.21
-11.24
-10.41
-8.76
-6.48
-3.89
-1.35
0.85
2.51
3.58
4.15
4.39
4.44
4.43
4.37
4.28
4.17
4.13
4.24
4.56
5.02
5.51
5.87
6.02
5.97
5.77
5.49
5.16
4.75
4.26
3.71
3.14
2.61
2.14
1.66
1.10
0.43
-0.36
-1.21
-2.00
-2.65
-3.10
-3.39
-3.60
-3.88
-4.36
-5.13
-6.19
-7.46
-8.78
-9.91
-10.62
-10.70
-10.04
-8.63
-6.66
-4.40
-2.18
-0.30
1.11
2.04
2.58
2.89
3.06
3.15
3.18
3.14
3.05
2.95
2.90
2.97
3.21
3.60
4.05
4.48
4.76
4.84
4.73
4.50
4.21
3.92
3.63
3.34
3.01
2.66
2.31
1.98
1.66
1.30
0.85
0.27
-0.42
-1.15
-1.85
-2.50
-3.15
-3.90
-4.82
-5.89
-6.95
-7.74
-7.96
-7.43
-6.16
-4.33
-2.25
-0.24
1.46
2.79
3.76
4.47
4.98
5.29
5.35
5.17
4.78
4.33
4.00
3.95
4.23
4.76
5.40
5.96
6.31
6.42
6.33
6.14
5.94
5.78
5.62
5.38
4.98
4.40
3.69
2.94
2.23
1.56
0.92
0.29
-0.33
-0.89
-1.33
-1.65
-1.91
-2.19
-2.60
-3.20
-4.01
-5.02
-6.14
-7.30
-8.35
-9.10
-9.37
-9.03
-8.05
-6.56
-4.77
-2.94
-1.30
0.04
1.10
1.97
2.76
3.48
4.04
4.34
4.30
4.00
3.65
3.47
3.59
4.00
4.52
4.94
5.13
5.07
4.86
4.59
4.33
4.05
3.70
3.29
2.87
2.51
2.26
2.09
1.89
1.56
1.02
0.28
-0.57
-1.43
-2.22
-2.87
-3.42
-3.88
-4.32
-4.79
-5.36
-6.08
-6.96
-7.93
-8.81
-9.38
-9.45
-8.94
-7.92
-6.57
-5.10
-3.68
-2.40
-1.28
-0.31
0.56
1.35
2.10
2.80
3.43
3.93
4.27
4.45
4.55
4.65
4.80
4.99
5.15
5.22
5.16
5.01
4.83
4.66
4.48
4.26
3.95
3.51
2.95
2.29
1.58
0.90
0.29
-0.21
-0.59
-0.89
-1.20
-1.57
-2.05
-2.64
-3.28
-3.96
-4.66
-5.43
-6.26
-7.13
-7.93
-8.58
-9.02
-9.22
-9.18
-8.85
-8.17
-7.09
-5.63
-3.94
-2.27
-0.84
0.27
1.11
1.84
2.56
3.24
3.73
3.85
3.57
3.03
2.52
2.31
2.54
3.14
3.92
4.62
5.05
5.12
4.89
4.46
4.00
3.63
3.40
3.28
3.20
3.03
2.68
2.13
1.41
0.60
-0.21
-0.96
-1.65
-2.23
-2.71
-3.06
-3.31
-3.53
-3.81
-4.25
-4.91
-5.80
-6.86
-7.93
-8.84
-9.37
-9.37
-8.80
-7.71
-6.27
-4.70
-3.15
-1.73
-0.46
0.65
1.58
2.31
2.81
3.10
3.22
3.27
3.28
3.25
3.15
2.96
2.67
2.35
2.09
1.99
2.09
2.39
2.81
3.19
3.40
3.32
2.95
2.42
1.93
1.64
1.57
1.59
1.47
1.00
0.16
-0.91
-1.92
-2.64
-2.97
-3.04
-3.05
-3.18
-3.52
-4.02
-4.59
-5.21
-5.94
-6.86
-7.98
-9.14
-10.02
-10.31
-9.78
-8.48
-6.64
-4.62
-2.71
-1.04
0.38
1.61
2.66
3.48
3.97
4.10
3.92
3.58
3.25
3.05
3.06
3.29
3.68
4.20
4.77
5.33
5.82
6.18
6.37
6.35
6.14
5.77
5.36
5.04
4.92
5.05
5.35
5.70
5.95
5.99
5.80
5.41
4.93
4.46
4.14
4.07
4.29
4.73
5.22
5.55
5.55
5.17
4.51
3.80
3.27
3.16
3.64
4.80
6.62
8.98
11.57
13.95
15.61
16.16
15.50
13.98
12.30
11.36
11.90
14.27
18.37
23.78
29.98
36.53
43.08
49.32
54.89
59.45
62.80
65.02
66.54
67.91
69.57
71.51
73.21
73.81
72.44
68.59
62.28
53.97
44.40
34.27
24.12
14.23
4.74
-4.27
-12.70
-20.47
-27.49
-33.72
-39.16
-43.82
-47.74
-50.95
-53.53
-55.50
-56.86
-57.46
-57.15
-55.79
-53.43
-50.31
-46.84
-43.45
-40.46
-37.98
-35.95
-34.15
-32.37
-30.44
-28.34
-26.14
-23.99
-22.01
-20.28
-18.78
-17.44
-16.15
-14.85
-13.53
-12.23
-10.99
-9.87
-8.87
-8.01
-7.30
-6.78
-6.48
-6.45
-6.67
-7.15
-7.92
-9.04
-10.58
-12.59
-15.05
-17.84
-20.82
-23.81
-26.71
-29.43
-31.94
-34.25
-36.41
-38.56
-40.90
-43.62
-46.82
-50.38
-53.98
-57.16
-59.52
-60.88
-61.36
-61.32
-61.14
-61.04
-60.96
-60.59
-59.61
-57.85
-55.43
-52.65
-49.79
-46.87
-43.51
-39.05
-32.83
-24.45
-13.96
-1.85
11.12
24.07
36.15
46.51
54.42
59.40
61.42
61.08
59.53
58.12
57.97
59.54
62.45
65.70
68.14
68.93
67.83
65.13
61.41
57.22
52.83
48.16
43.02
37.25
30.99
24.61
18.62
13.40
9.00
5.15
1.35
-2.74
-7.26
-11.96
-16.41
-20.18
-23.00
-24.73
-25.35
-25.02
-24.22
-23.71
-24.33
-26.51
-29.74
-32.48
-32.65
-28.52
-19.65
-7.35
5.82
16.99
24.12
26.56
24.96
20.65
14.96
8.86
3.01
-2.05
-5.72
-7.46
-7.07
-4.83
-1.58
1.63
4.02
5.39
6.13
7.00
8.63
11.19
14.34
17.46
19.98
21.62
22.39
22.46
21.98
20.99
19.48
17.47
15.07
12.42
9.63
6.78
3.87
1.06
-1.38
-3.05
-3.64
-3.05
-1.60
0.13
1.49
2.07
1.85
1.27
1.02
1.72
3.67
6.76
10.46
14.07
16.92
18.57
18.82
17.79
15.81
13.29
10.59
7.86
5.10
2.13
-1.24
-5.13
-9.53
-14.31
-19.13
-23.57
-27.08
-29.14
-29.49
-28.18
-25.69
-22.73
-19.97
-17.75
-15.94
-14.03
-11.22
-6.69
0.25
9.90
21.97
35.48
48.94
60.82
70.01
76.25
80.16
82.78
85.14
87.78
90.65
93.29
95.06
95.23
93.10
88.02
79.61
67.98
53.88
38.61
23.65
10.28
-0.74
-9.17
-15.17
-19.19
-21.83
-23.76
-25.70
-28.23
-31.64
-35.88
-40.59
-45.33
-49.74
-53.58
-56.72
-59.03
-60.29
-60.23
-58.63
-55.38
-50.44
-43.84
-35.64
-26.01
-15.40
-4.62
5.38
13.76
20.18
24.93
28.84
32.76
37.16
41.84
46.09
49.10
50.42
50.23
49.22
48.26
48.01
48.72
50.25
52.27
54.48
56.63
58.50
59.73
59.91
58.71
56.17
52.76
49.08
45.40
41.26
35.56
27.09
15.38
1.18
-13.53
-26.28
-35.02
-38.85
-38.27
-34.85
-30.59
-27.25
-25.94
-27.00
-30.12
-34.67
-39.92
-45.42
-50.97
-56.61
-62.38
-68.17
-73.68
-78.48
-82.17
-84.44
-85.14
-84.33
-82.26
-79.31
-75.87
-72.26
-68.51
-64.52
-60.17
-55.56
-51.07
-47.19
-44.24
-42.17
-40.57
-38.89
-36.74
-34.05
-31.06
-28.05
-25.20
-22.55
-20.01
-17.54
-15.21
-13.16
-11.46
-10.05
-8.78
-7.48
-6.13
-4.82
-3.78
-3.16
-2.99
-3.13
-3.32
-3.33
-3.08
-2.65
-2.21
-1.93
-1.86
-1.91
-1.90
-1.68
-1.24
-0.72
-0.31
-0.13
-0.23
-0.51
-0.84
-1.10
-1.24
-1.28
-1.19
-1.04
-0.86
-0.75
-0.84
-1.20
-1.83
-2.60
-3.33
-3.88
-4.18
-4.28
-4.29
-4.29
-4.31
-4.32
-4.26
-4.09
-3.75
-3.25
-2.62
-1.90
