1520259126.00
64.000000
-0.00
-0.00
-0.00
-0.00
-0.00
-0.00
-0.00
-0.00
-0.00
-0.00
0.00
0.01
0.01
-0.00
-0.03
-0.05
-0.05
0.00
0.13
0.36
0.66
1.01
1.37
1.72
2.06
2.40
2.79
3.24
3.80
4.42
5.06
5.66
6.20
6.68
7.15
7.68
8.31
9.14
10.09
11.04
11.88
12.56
13.14
13.76
14.65
15.96
17.91
20.32
22.90
25.38
27.58
29.57
31.68
34.32
37.81
42.54
48.15
54.10
59.83
64.97
69.58
74.14
79.34
85.71
93.76
103.00
112.62
121.73
129.77
136.75
143.30
150.75
157.77
166.64
177.95
191.79
206.97
220.57
228.25
225.36
208.53
176.87
132.76
80.05
23.07
-34.94
-92.44
-149.16
-205.23
-260.37
-313.74
-363.87
-409.83
-450.91
-486.50
-515.74
-537.23
-549.22
-549.96
-538.37
-514.21
-478.67
-433.88
-382.45
-327.02
-269.84
-212.63
-156.66
-102.95
-52.37
-5.90
35.58
71.43
101.35
125.50
144.38
158.69
169.15
176.37
180.75
182.57
182.07
179.51
175.23
169.65
163.18
156.15
148.81
141.30
133.69
126.02
118.33
110.69
103.16
95.80
88.68
81.83
75.25
68.95
62.95
57.25
51.86
46.78
42.03
37.59
33.45
29.61
26.07
22.81
19.83
17.11
14.67
12.48
10.54
8.83
7.35
6.07
4.97
4.05
3.27
2.62
2.09
1.65
1.30
1.01
0.79
0.61
0.47
0.37
0.28
0.22
0.18
0.14
0.12
0.11
0.11
0.11
0.12
0.14
0.17
0.20
0.23
0.27
0.31
0.35
0.40
0.44
0.49
0.54
0.59
0.64
0.70
0.76
0.82
0.89
0.97
1.05
1.15
1.25
1.37
1.50
1.65
1.81
2.00
2.20
2.43
2.68
2.96
3.26
3.60
3.97
4.37
4.81
5.28
5.79
6.34
6.92
7.56
8.23
8.95
9.72
10.52
11.38
12.28
13.22
14.22
15.28
16.40
17.59
18.83
20.11
21.37
22.57
23.62
24.41
24.82
24.72
24.02
22.63
20.51
17.69
14.22
10.20
5.82
1.28
-3.23
-7.49
-11.31
-14.54
-17.09
-18.89
-19.95
-20.29
-20.00
-19.18
-17.94
-16.39
-14.67
-12.87
-11.05
-9.28
-7.50
-5.76
-4.02
-2.27
-0.51
1.28
3.08
4.90
6.78
8.83
11.01
13.30
15.72
18.25
20.84
23.44
26.04
28.72
31.68
34.86
38.26
41.89
45.67
49.45
53.05
56.38
59.53
62.88
66.38
70.17
74.32
78.69
82.94
86.64
89.53
91.66
93.51
95.08
96.57
97.94
98.70
97.88
94.16
86.05
71.81
54.76
36.31
17.63
-0.64
-18.43
-36.16
-54.54
-74.33
-96.17
-120.25
-146.71
-174.29
-200.30
-221.12
-233.28
-234.67
-225.39
-207.70
-185.00
-161.11
-138.56
-118.50
-101.28
-87.14
-76.75
-70.81
-69.55
-72.15
-77.15
-82.64
-87.17
-90.37
-93.09
-97.06
-104.15
-115.61
-131.39
-150.08
-168.76
-183.49
-190.26
-185.83
-168.66
-139.27
-100.07
-54.66
-7.14
38.85
80.49
115.89
143.98
164.30
176.97
182.58
182.26
177.46
169.78
160.65
151.01
141.30
131.47
121.33
110.81
100.19
90.07
81.15
73.92
68.32
63.70
58.93
52.79
44.40
33.51
20.59
6.63
-7.35
-20.69
-33.46
-46.49
-61.10
-78.58
-99.53
-123.30
-147.63
-168.94
-182.99
-185.97
-175.61
-151.90
-117.14
-75.30
-30.88
12.10
50.83
83.75
110.27
130.30
143.95
151.46
153.34
150.51
144.25
136.06
127.23
118.56
110.29
102.14
93.72
84.87
75.85
67.27
59.80
53.76
48.84
44.06
38.14
29.91
18.79
5.03
-10.48
-26.55
-42.16
-56.73
-70.30
-83.42
-97.04
-112.25
-130.07
-150.93
-174.24
-197.98
-218.71
-232.16
-234.29
-222.56
-196.76
-159.14
-113.75
-65.24
-17.72
25.95
64.26
96.73
123.30
144.11
159.30
169.14
174.14
175.09
172.88
168.44
162.56
155.85
148.73
141.46
134.14
126.85
119.63
112.55
105.65
98.91
92.09
84.71
76.12
65.67
53.03
38.35
22.30
5.82
-10.27
-25.50
-39.95
-54.13
-68.84
-84.98
-103.32
-124.22
-147.21
-170.65
-191.55
-206.03
-210.27
-201.60
-179.57
-146.08
-104.93
-60.58
-17.07
22.69
57.05
85.31
107.26
122.96
132.70
137.16
137.31
134.33
129.26
122.79
115.18
106.46
96.69
86.26
75.87
66.39
58.58
52.67
48.32
44.61
40.32
34.35
26.05
15.36
2.84
-10.57
-23.95
-36.75
-49.00
-61.32
-74.77
-90.47
-109.10
-130.34
-152.56
-172.81
-187.22
-192.02
-184.61
-164.36
-132.99
-94.06
-51.98
-10.97
25.83
56.60
80.69
98.19
109.58
115.57
116.97
114.77
109.99
103.62
96.42
88.81
80.97
72.96
64.90
57.10
50.05
44.20
39.74
36.35
33.18
29.03
22.75
13.69
1.91
-11.81
-26.30
-40.40
-53.44
-65.44
-77.06
-89.47
-103.93
-121.37
-141.79
-163.86
-184.74
-200.50
-207.06
-201.37
-182.43
-151.67
-112.54
-69.45
-26.61
12.85
47.15
75.64
98.23
115.07
126.37
132.48
134.00
131.88
127.24
121.17
114.43
107.40
100.12
92.46
84.41
76.24
68.40
61.44
55.76
51.35
47.81
44.30
39.82
33.46
24.64
13.30
-0.10
-14.76
-29.79
-44.46
-58.42
-71.70
-84.89
-98.84
-114.65
-133.10
-154.18
-176.65
-197.81
-213.96
-221.19
-216.60
-199.14
-170.05
-132.41
-90.23
-47.47
-7.17
28.80
59.55
84.81
104.51
118.62
127.25
130.82
130.16
126.47
121.04
114.94
108.75
102.55
96.08
89.16
81.93
74.90
68.74
63.85
60.05
56.53
52.11
45.71
36.75
25.38
12.41
-1.10
-14.20
-26.49
-38.25
-50.36
-64.04
-80.39
-100.00
-122.50
-146.23
-168.30
-185.04
-192.78
-188.86
-172.35
-144.41
-107.96
-66.99
-25.55
13.01
46.47
73.75
94.59
109.22
118.09
121.84
121.25
117.26
110.96
103.28
94.94
86.21
77.12
67.68
58.15
49.11
41.30
35.25
30.90
27.42
23.50
17.83
9.54
-1.38
-14.31
-28.23
-42.26
-55.94
-69.41
-83.33
-98.67
-116.32
-136.59
-158.76
-180.76
-199.36
-210.73
-211.53
-199.95
-176.26
-142.82
-103.28
-61.66
-21.32
15.38
47.11
73.17
93.13
106.66
113.66
114.56
110.47
103.04
94.15
85.31
77.39
70.50
64.39
58.76
53.67
49.45
46.44
44.62
43.35
41.53
37.83
31.24
21.39
8.71
-5.72
-20.57
-34.60
-47.02
-57.64
-66.82
-75.39
-84.35
-94.66
-106.84
-120.63
-134.87
-147.56
-156.31
-159.02
-154.41
-142.28
-123.34
-98.76
-69.82
-37.68
-3.49
31.46
65.60
97.15
124.49
146.39
162.36
172.54
177.59
178.35
175.68
170.30
162.80
153.66
143.38
132.55
121.82
111.82
102.93
95.23
88.33
81.58
74.18
65.45
55.05
43.05
29.93
16.33
2.85
-10.23
-22.97
-35.85
-49.54
-64.83
-82.34
-102.31
-124.24
-146.66
-167.15
-182.63
-190.04
-187.16
-173.19
-148.97
-116.66
-79.05
-38.97
1.24
39.74
75.05
105.90
131.14
149.97
162.10
167.88
168.20
164.31
157.48
148.80
139.10
128.89
118.54
108.34
98.55
89.47
81.31
74.23
68.13
62.65
57.16
50.97
43.44
34.22
23.41
11.41
-1.17
-13.72
-25.82
-37.39
-48.73
-60.50
-73.68
-89.21
-107.62
-128.51
-150.30
-170.25
-185.01
-191.39
-187.18
-171.69
-145.89
-112.05
-73.18
-32.53
6.96
42.88
73.44
97.61
115.05
126.03
131.27
131.67
128.09
121.19
111.44
99.27
85.20
69.96
54.40
39.38
25.57
13.29
2.47
-7.41
-17.08
-27.31
-38.61
-51.10
-64.47
-78.27
-92.28
-106.83
-122.85
-141.61
-164.06
-190.27
-218.96
-247.55
-272.51
-290.28
-298.22
-295.37
-282.79
-263.03
-239.20
-213.84
-188.14
-161.93
-134.36
-104.80
-73.33
-40.73
-7.86
25.05
58.81
95.04
135.80
183.12
238.61
302.71
373.82
447.55
516.78
573.12
609.35
621.90
612.14
585.65
549.80
511.07
473.25
437.45
403.33
370.63
339.86
311.97
287.42
265.50
244.49
222.50
198.43
172.54
146.32
121.69
100.02
81.39
64.47
47.10
27.26
3.89
-22.75
-51.43
-80.86
-110.41
-140.16
-170.29
-200.17
-228.23
-252.35
-270.87
-283.20
-289.71
-291.00
-287.24
-278.26
-264.14
-246.19
-226.88
-209.15
-195.00
-184.71
-176.91
-169.77
-162.24
-154.62
-148.12
-143.84
-142.16
-142.59
-144.54
-148.00
-154.01
-164.53
-181.86
-207.85
-242.97
-285.72
-332.15
-376.27
-411.06
-430.25
-430.08
-410.43
-374.73
-328.53
-277.56
-225.93
-175.31
-125.22
-74.10
-20.67
34.98
90.92
143.65
189.01
223.39
244.78
253.27
250.80
240.34
224.90
206.94
188.23
170.11
153.70
139.89
129.18
121.30
115.28
109.76
103.57
96.03
87.08
77.13
66.83
56.65
46.66
36.33
24.56
9.90
-8.96
-32.59
-60.10
-88.98
-115.25
-134.39
-142.52
-137.54
-119.80
-91.86
-57.68
-21.36
13.82
45.87
73.86
97.48
116.52
130.70
139.78
143.91
143.71
140.24
134.73
128.25
121.48
114.73
108.01
101.28
94.45
87.45
80.24
72.79
65.16
57.50
49.89
42.18
33.87
24.15
12.22
-2.38
-19.39
-37.86
-56.26
-73.03
-87.00
-97.97
-106.86
-115.62
-126.70
-142.14
-162.61
-186.75
-211.08
-230.75
-240.83
-237.80
-220.60
-191.04
-153.19
-112.32
-73.46
-40.37
-14.91
2.84
13.96
19.95
22.12
21.33
18.07
12.74
5.86
-1.99
-10.34
-18.99
-28.06
-37.82
-48.30
-59.13
-69.51
-78.31
-84.36
-86.60
-83.99
-75.47
-60.07
-37.26
-7.70
26.25
60.63
90.52
111.39
120.43
117.32
104.36
85.96
67.67
55.09
52.71
62.99
85.68
117.88
154.79
190.92
221.53
243.65
256.36
260.43
257.52
249.62
238.52
225.73
212.38
199.27
186.90
175.66
165.96
158.37
153.63
152.35
154.73
160.33
167.97
175.81
181.68
183.53
179.83
169.99
154.54
135.04
113.63
92.45
73.04
55.91
40.61
26.06
11.14
-4.95
-22.43
-41.06
-60.24
-78.99
-96.16
-110.62
-121.64
-129.11
-133.66
-136.08
-136.91
-136.13
-133.27
-128.10
-121.13
-113.59
-106.79
-101.09
-95.22
-86.44
-71.60
-48.38
-16.55
21.68
61.93
98.63
126.33
141.09
141.38
128.43
105.58
77.25
47.58
19.45
-5.68
-27.47
-46.11
-61.96
-75.52
-87.66
-99.61
-112.59
-127.37
-143.94
-161.74
-180.21
-199.47
-220.25
-243.16
-267.61
-290.77
-307.89
-313.55
-303.69
-277.30
-236.96
-188.01
-136.65
-88.18
-45.94
-11.25
15.90
35.97
49.44
56.68
58.19
54.86
47.89
38.68
28.38
17.78
7.14
-3.52
-14.18
-24.54
-33.97
-41.60
-46.62
-48.54
-47.44
-44.06
-39.70
-35.95
-34.31
-35.86
-40.97
-49.32
-60.11
-72.40
-85.46
-98.78
-111.95
-124.63
-136.69
-148.65
-161.93
-178.69
-200.60
-227.44
-256.09
-280.71
-294.44
-291.78
-270.50
-232.11
-180.80
-121.76
-59.99
0.08
54.23
98.53
130.05
148.10
154.98
155.42
154.88
157.40
164.29
174.36
185.17
194.72
202.21
208.01
212.83
216.93
219.85
220.68
218.55
212.94
203.84
191.50
176.20
158.11
137.28
113.75
87.78
59.96
31.11
2.18
-26.11
-53.47
-80.25
-107.33
-135.72
-165.89
-196.96
-226.31
-249.61
-261.95
-259.24
-239.57
-203.76
-154.86
-97.04
-34.60
28.71
89.56
144.79
191.42
227.09
250.71
262.81
265.35
260.97
252.21
240.89
228.01
213.93
198.59
181.79
163.26
142.76
120.28
96.21
71.43
47.27
25.18
6.36
-8.76
-20.59
-30.15
-38.55
-46.32
-53.26
-58.61
-61.73
-62.67
-62.60
-63.74
-68.98
-81.31
-103.04
-134.78
-174.56
-217.41
-255.98
-282.30
-290.18
-277.42
-246.56
-203.92
-157.38
-113.74
-76.91
-47.54
-23.84
-3.11
16.84
36.85
56.24
73.27
85.83
92.29
91.94
85.23
73.58
58.91
43.23
28.16
15.02
4.76
-1.95
-4.73
-3.83
-0.36
3.69
5.90
4.06
-2.87
-14.44
-28.94
-44.18
-58.49
-71.39
-83.48
-96.02
-110.21
-126.76
-145.87
-167.49
-191.28
-216.32
-240.60
-260.85
-273.04
-273.50
-260.22
-233.61
-196.20
-151.49
-102.59
-51.48
0.73
52.88
102.88
147.57
183.64
208.88
223.18
228.45
227.71
223.77
218.24
211.45
203.02
192.74
181.13
169.41
159.07
151.14
145.81
142.39
139.50
135.54
129.08
119.16
105.45
88.21
68.17
46.22
23.23
-0.27
-24.06
-48.21
-73.00
-98.63
-125.06
-151.63
-176.88
-198.44
-213.36
-218.74
-212.62
-194.71
-166.58
-131.21
-92.03
-51.81
-11.95
27.48
67.19
107.64
148.37
187.78
223.57
253.46
275.92
290.43
297.44
298.09
293.81
286.11
276.43
266.10
256.27
247.75
241.03
236.17
232.64
229.37
224.63
216.35
202.55
182.01
154.68
121.77
85.24
46.98
8.05
-31.66
-73.20
-117.90
-166.62
-219.34
-275.10
-332.17
-388.14
-439.86
-483.49
-514.99
-530.84
-529.18
-510.44
-477.21
-433.22
-381.91
-325.87
-267.17
-208.57
-154.51
-110.98
-83.93
-76.77
-88.43
-112.95
-141.20
-163.81
-174.09
-169.77
-152.78
-127.80
-99.97
-73.32
-49.88
-29.95
-12.86
2.35
16.36
29.59
42.33
55.22
69.05
84.70
102.93
124.24
149.06
178.25
213.60
257.50
311.71
375.50
444.21
509.60
562.00
593.78
602.39
591.20
567.83
540.80
516.22
496.19
479.47
463.41
445.90
426.22
404.69
381.71
357.00
329.65
298.57
263.16
223.66
181.20
137.35
93.65
50.95
9.30
-32.00
-74.06
-117.83
-163.75
-211.84
-262.08
-314.61
-369.50
-426.03
-481.88
-533.17
-575.37
-605.00
-621.18
-626.05
-623.75
-618.33
-611.93
-604.10
-592.73
-575.70
-552.42
-524.24
-493.69
-463.19
-434.06
-406.39
-379.60
-353.25
-327.48
-303.04
-280.68
-260.66
-242.45
-225.00
-207.18
-188.40
-168.81
-149.25
-130.83
-114.47
-100.49
-88.57
-77.92
-67.66
-57.12
-46.02
-34.54
-23.14
-12.32
-2.42
6.46
14.54
22.24
30.08
38.52
47.81
57.88
68.43
78.93
88.96
98.33
107.18
116.03
125.50
136.20
148.45
162.37
177.72
193.93
209.96
224.54
236.49
245.26
251.37
256.51
263.04
273.20
288.28
308.02
330.71
353.77
374.49
390.69
400.96
404.60
401.34
391.23
374.61
352.35
325.98
297.64
269.74
244.30
222.39
203.73
186.94
170.18
151.99
131.98
110.89
90.30
71.88
56.71
44.91
35.73
27.90
20.12
11.54
1.81
-8.91
-20.24
-31.90
-43.88
-56.48
-70.09
-84.76
-99.71
-113.12
-122.20
-123.94
-115.98
-97.49
-69.47
-34.54
3.82
42.15
77.67
108.53
133.67
152.57
165.01
171.03
171.05
165.97
157.16
146.32
135.11
124.75
115.79
108.04
100.86
93.61
85.96
78.13
70.76
64.53
59.76
56.14
52.83
48.72
42.95
35.18
25.75
15.46
5.22
-4.35
-13.21
-21.85
-31.23
-42.48
-56.63
-74.15
-94.58
-116.21
-136.10
-150.51
-155.86
-149.77
-131.90
-104.19
-70.34
-34.78
-1.57
26.43
47.82
62.48
71.10
74.73
74.44
71.24
65.97
59.36
51.92
43.95
35.50
26.54
17.24
8.09
-0.02
-6.09
-9.36
-9.71
-7.87
-5.17
-3.21
-3.28
-6.04
-11.32
-18.34
-25.98
-33.28
-39.72
-45.51
-51.58
-59.30
-70.00
-84.26
-101.38
-119.11
-133.97
-142.05
-140.14
-126.77
-102.69
-70.73
-34.92
0.53
32.28
58.30
77.86
91.13
98.74
101.50
100.24
95.91
89.41
81.61
73.06
64.02
54.48
44.45
34.21
24.42
16.00
9.79
6.12
4.61
4.21
3.56
1.47
-2.66
-8.75
-16.21
-24.31
-32.52
-40.76
-49.44
-59.32
-71.31
-86.04
-103.43
-122.30
-140.20
-153.75
-159.35
-154.21
-137.29
-109.70
-74.54
-36.03
1.51
34.57
61.00
80.08
92.18
98.35
100.01
98.50
95.01
90.34
84.94
78.91
72.27
65.12
57.79
50.91
45.20
41.30
39.45
39.33
40.14
40.78
40.26
38.08
34.43
30.17
26.37
23.72
21.88
19.21
12.94
-0.26
-23.20
-57.12
-100.84
-150.45
-199.82
-241.91
-270.37
-281.19
-273.51
-249.68
-214.30
-173.06
-131.46
-94.08
-64.18
-43.62
-32.85
-30.93
-35.70
-44.25
-53.59
-61.39
-66.48
-68.96
-69.85
-70.40
-71.37
-72.40
-72.00
-67.93
-58.07
-41.47
-19.03
6.45
30.93
50.21
61.15
62.38
54.48
39.58
20.66
0.80
-17.36
-32.04
-42.53
-49.24
-53.51
-57.13
-61.50
-66.99
-72.53
-75.89
-74.43
-66.16
-50.52
-28.57
-2.65
24.47
50.34
73.31
92.62
108.11
119.85
127.90
132.20
132.67
129.44
122.96
114.03
103.77
93.29
83.55
75.20
68.52
63.53
60.07
57.81
56.36
55.16
53.56
50.88
46.54
40.19
31.82
21.67
10.26
-1.81
-13.96
-25.73
-36.93
-47.66
-58.42
-69.95
-82.96
-97.66
-113.30
-128.07
-139.27
-143.90
-139.44
-124.44
-98.97
-64.58
-24.18
18.50
59.39
94.87
122.44
141.21
151.94
156.39
156.50
153.36
146.73
135.27
117.32
91.80
58.97
20.63
-20.23
-60.00
-95.09
-122.48
-140.09
-147.07
-143.90
-132.42
-115.51
-96.52
-78.63
-64.19
-54.52
-49.87
-49.73
-53.28
-59.61
-68.08
-78.14
-89.23
-100.31
-109.65
-114.78
-112.95
-101.97
-81.03
-51.22
-15.35
22.88
59.90
93.09
121.06
143.40
160.19
171.53
177.47
178.14
174.02
166.09
155.77
144.65
134.11
125.01
117.69
112.03
107.70
104.33
101.56
98.94
95.83
91.33
84.44
74.33
60.71
44.08
25.79
7.77
-8.02
-20.19
-28.47
-34.03
-39.38
-47.90
-62.96
-86.85
-119.71
-158.91
-199.04
-232.90
-253.14
-254.14
-233.59
-193.18
-138.29
-76.77
-17.29
32.52
67.47
85.72
88.85
81.20
68.57
56.61
49.48
48.98
54.49
63.50
72.53
78.18
78.06
71.43
59.44
44.88
31.43
22.65
20.93
26.71
38.23
51.79
62.60
65.96
58.53
39.51
11.14
-21.61
-52.29
-74.94
-85.82
-84.53
-73.84
-58.46
-43.42
-32.59
-28.12
-30.28
-37.84
-48.24
-57.72
-61.67
-55.39
-35.42
-0.79
46.18
100.15
153.91
200.08
232.59
247.54
243.31
220.40
181.22
130.24
73.86
19.99
-23.24
-49.22
-54.66
-40.61
-12.27
22.24
54.06
75.47
81.49
70.32
43.33
4.44
-40.68
-85.61
-124.33
-152.36
-167.83
-171.94
-168.81
-164.51
-165.49
-176.61
-199.42
-231.35
-266.14
-295.60
-312.02
-310.26
-288.67
-248.64
-193.60
-128.25
-58.57
7.84
62.05
95.47
102.63
83.82
45.86
0.36
-40.05
-65.77
-72.69
-62.37
-40.12
-12.49
14.76
37.75
54.68
65.48
71.33
74.12
75.72
77.47
80.06
83.64
88.15
93.58
99.88
106.72
113.40
118.97
122.70
124.48
124.74
124.18
123.26
121.99
120.18
117.93
116.06
115.99
119.16
126.27
136.76
148.87
160.27
168.86
173.41
173.62
169.88
162.93
153.58
142.74
131.40
120.54
110.59
101.23
91.19
78.67
62.03
40.30
13.06
-19.98
-59.46
-105.92
-158.49
-213.58
-264.52
-302.97
-321.77
-317.81
-293.59
-256.43
-216.07
-181.58
-159.27
-152.09
-160.24
-182.05
-214.42
-252.68
-290.53
-320.60
-336.04
-332.39
-308.86
-268.35
-216.23
-158.40
-99.80
-43.92
6.85
50.57
85.66
111.35
128.38
138.91
145.86
151.51
156.51
160.01
160.68
158.14
153.57
149.35
147.67
149.28
152.83
155.36
153.58
145.18
129.65
108.54
84.80
61.90
42.89
29.67
22.69
20.94
22.35
24.28
24.16
20.02
10.88
-3.17
-21.18
-41.68
-63.16
-84.26
-103.80
-120.44
-132.45
-137.69
-133.87
-119.23
-93.35
-57.60
-15.27
28.96
69.81
102.34
122.75
129.03
121.22
101.57
74.24
44.61
18.30
-0.13
-8.32
-6.61
2.11
13.46
22.92
27.11
24.67
16.25
4.08
-8.99
-20.22
-27.67
-30.39
-28.55
-23.37
-17.03
-12.38
-12.35
-19.22
-33.70
-54.57
-78.74
-101.98
-119.89
-128.74
-126.03
-110.76
-83.40
-46.06
-2.34
42.91
84.19
116.34
135.41
139.50
128.93
106.18
75.30
41.25
9.05
-17.05
-34.23
-41.45
-39.33
-29.73
-15.16
1.54
17.40
29.32
34.39
30.42
16.71
-5.52
-33.14
-61.94
-87.81
-107.79
-120.79
-127.50
-129.91
-130.50
-131.47
-134.08
-138.23
-142.52
-144.47
-141.30
-130.67
-111.32
-83.40
-48.36
-8.58
33.03
73.45
109.88
139.99
162.23
175.96
181.44
179.64
171.83
159.30
143.22
124.65
104.73
84.81
66.41
51.01
39.76
33.06
30.41
30.46
31.28
30.85
27.54
20.56
10.02
-3.07
-17.22
-30.89
-43.01
-53.34
-62.57
-72.07
-83.20
-96.57
-111.36
-125.09
-134.08
-134.42
-123.21
-99.55
-64.90
-22.78
22.25
65.61
103.71
134.33
156.54
170.29
176.00
174.18
165.44
150.56
130.74
107.62
83.22
59.56
38.35
20.78
7.45
-1.52
-6.43
-7.88
-6.83
-4.55
-2.41
-1.55
-2.64
-5.65
-10.01
-14.88
-19.57
-23.78
-27.78
-32.44
-38.97
-48.65
-62.27
-79.53
-98.56
-115.98
-127.50
-129.06
-118.05
-94.21
-59.76
-18.86
23.51
62.69
95.29
119.59
135.42
143.77
146.16
144.07
138.64
130.54
120.16
107.83
94.00
79.42
65.01
51.84
40.91
32.92
28.00
25.57
24.27
22.27
17.74
9.47
-2.77
-18.18
-35.30
-52.60
-69.01
-84.27
-98.87
-113.71
-129.63
-146.85
-164.68
-181.50
-195.00
-202.76
-202.81
-194.22
-177.19
-152.84
-122.80
-88.61
-51.55
-12.75
26.47
64.16
97.68
123.99
140.25
144.60
136.65
117.76
90.74
59.46
28.31
1.55
-17.18
-25.48
-22.69
-10.25
8.38
28.38
44.69
53.31
52.32
42.20
25.44
5.51
-14.25
-31.42
-44.89
-54.71
-61.75
-67.11
-71.58
-75.18
-76.96
-75.16
-67.79
-53.41
-31.81
-4.26
26.70
57.98
86.69
110.71
128.99
141.45
148.71
151.78
151.70
149.31
145.10
139.16
131.29
121.27
109.00
94.66
78.70
61.82
44.83
28.53
13.52
0.17
-11.55
-22.04
-32.00
-42.19
-53.18
-65.25
-78.27
-91.97
-106.15
-120.95
-136.85
-154.36
-173.44
-193.03
-210.77
-223.24
-226.93
-219.16
-199.01
-167.62
-127.81
-83.19
-37.27
7.18
48.26
84.59
114.98
138.21
153.15
159.10
156.12
145.26
128.49
108.42
87.86
69.52
55.58
47.53
45.88
49.99
58.00
66.93
73.14
73.03
63.98
45.03
17.29
-16.22
-51.33
-83.76
-110.29
-129.48
-141.76
-148.68
-151.84
-151.85
-148.00
-138.77
-122.92
-100.66
-74.04
-46.45
-21.46
-1.36
13.48
24.56
34.35
45.18
58.43
74.17
91.25
107.71
121.19
129.33
130.20
122.67
106.93
84.65
58.92
33.68
12.82
-0.78
-5.88
-3.06
5.65
17.52
29.72
39.92
46.46
48.32
44.96
36.26
22.36
3.60
-19.41
-45.68
-73.53
-100.36
-122.78
-137.12
-140.25
-130.58
-108.67
-77.21
-40.44
-3.10
30.62
57.74
76.75
87.49
90.75
87.87
80.42
69.94
57.82
45.17
32.91
21.75
12.22
4.52
-1.46
-6.31
-10.92
-16.33
-23.40
-32.50
-43.43
-55.48
-67.70
-79.21
-89.35
-97.92
-105.10
-111.54
-118.24
-126.35
-136.72
-149.22
-162.27
-172.76
-176.59
-169.85
-150.15
-117.56
-74.79
-26.42
22.31
66.78
103.79
131.84
150.89
161.86
166.18
165.45
161.14
154.41
146.01
136.31
125.48
113.70
101.39
89.30
78.34
69.34
62.68
58.10
54.71
51.26
46.49
39.59
30.45
19.71
8.44
-2.23
-11.60
-19.71
-27.37
-35.97
-46.90
-60.95
-77.59
-94.76
-109.06
-116.56
-114.02
-99.92
-75.02
-42.24
-5.71
30.25
62.21
88.09
107.16
119.67
126.44
128.44
126.68
122.07
115.41
107.28
98.09
88.06
77.35
66.20
54.95
43.99
33.48
23.20
12.36
-0.23
-15.85
-35.35
-58.82
-85.21
-112.51
-138.07
-159.11
-173.45
-180.04
-179.33
-173.28
-164.86
-157.22
-152.66
-151.78
-153.16
-153.75
-149.83
-138.22
-117.38
-87.80
-51.76
-12.51
26.65
63.03
94.86
121.11
141.31
155.33
163.37
165.94
163.87
158.12
149.55
138.80
126.29
112.42
97.87
83.60
70.83
60.62
53.50
49.21
46.66
44.21
40.17
33.24
22.91
9.46
-6.18
-22.86
-39.52
-55.52
-70.73
-85.49
-100.43
-116.09
-132.38
-148.20
-161.30
-168.56
-166.86
-154.09
-130.04
-96.59
-57.29
-16.35
22.38
56.14
83.38
103.60
116.94
123.92
125.33
122.25
115.99
107.92
99.22
90.65
82.46
74.54
66.64
58.71
51.02
44.11
38.56
34.65
32.05
29.89
26.97
22.22
15.11
5.84
-4.78
-15.73
-26.21
-35.99
-45.40
-55.28
-66.59
-80.15
-96.20
-114.19
-132.48
-148.40
-158.67
-160.12
-150.63
-129.92
-99.73
-63.40
-24.98
11.80
44.22
70.77
90.92
104.70
112.41
114.50
111.66
104.88
95.44
84.74
74.04
64.29
56.04
49.41
44.31
40.57
38.05
36.65
36.24
36.51
36.86
36.44
34.32
29.82
22.74
13.52
3.08
-7.46
-17.18
-25.65
-32.99
-39.74
-46.73
-54.84
-64.81
-77.01
-91.02
-105.38
-117.55
-124.24
-122.28
-109.60
-86.02
-53.56
-15.93
22.40
57.35
86.10
107.42
121.44
129.13
131.67
130.08
125.15
117.48
107.67
96.41
84.41
72.32
60.67
49.88
40.31
32.33
26.27
22.33
20.46
20.31
21.25
22.44
22.95
21.89
18.58
12.64
4.16
-6.37
-18.20
-30.56
-42.92
-55.09
-67.30
-80.01
-93.84
-109.38
-126.99
-146.55
-167.01
-186.21
-200.95
-207.69
-203.48
-187.05
-159.30
-123.20
-82.91
-42.71
-6.01
25.20
50.23
69.38
83.33
92.80
98.33
100.29
99.00
94.95
88.85
81.65
74.31
67.60
61.98
57.49
53.94
51.02
48.44
45.99
43.46
40.69
37.42
33.48
28.71
23.10
16.72
9.80
2.67
-4.37
-11.01
-17.17
-22.94
-28.63
-34.71
-41.79
-50.64
-62.23
-77.48
-96.71
-119.05
-141.91
-161.15
-172.00
-170.53
-155.08
-126.92
-89.92
-49.28
-10.01
24.33
51.94
72.49
86.48
94.61
97.54
95.92
90.56
82.46
72.82
62.74
53.12
44.41
36.71
29.88
23.71
18.12
13.21
9.22
6.41
4.84
4.13
3.46
1.72
-2.21
-9.08
-18.96
-31.19
-44.68
-58.19
-70.83
-82.35
-93.19
-104.38
-117.15
-132.53
-150.73
-170.72
-190.06
-205.07
-211.69
-206.56
-188.10
-157.08
-116.57
-71.12
-25.61
15.84
50.56
77.47
96.70
109.17
116.03
118.35
117.06
112.95
106.76
99.16
90.80
82.14
73.53
65.16
57.17
49.74
43.09
37.51
33.23
30.25
28.23
26.38
23.62
18.80
11.15
0.53
-12.47
-26.64
-40.61
-53.31
-64.29
-73.86
-83.00
-93.05
-105.37
-120.85
-139.35
-159.37
-177.86
-190.69
-193.56
-183.27
-158.75
-121.65
-75.94
-26.91
20.23
61.50
94.79
119.73
137.11
148.17
154.06
155.66
153.67
148.75
141.66
133.20
124.16
115.18
106.76
99.25
92.90
87.75
83.73
80.57
77.91
75.39
72.68
69.45
65.21
59.37
51.31
40.60
27.25
11.78
-4.90
-21.77
-38.00
-53.27
-67.66
-81.72
-96.28
-112.26
-130.35
-150.54
-171.61
-190.83
-204.27
-207.64
-197.57
-172.85
-134.95
-87.82
-36.75
12.89
56.86
92.67
119.48
137.70
148.45
153.03
152.76
148.78
142.12
133.70
124.31
114.63
105.16
96.21
87.96
80.46
73.77
67.91
62.91
58.70
55.02
51.40
47.21
41.81
34.75
25.90
15.45
3.86
-8.31
-20.52
-32.37
-43.59
-54.14
-64.28
-74.56
-85.90
-99.21
-114.99
-132.75
-150.55
-165.14
-172.47
-168.82
-151.94
-121.83
-80.97
-33.71
14.88
60.23
99.14
130.15
153.24
169.23
179.18
183.97
184.32
180.92
174.64
166.60
157.97
149.79
142.72
136.94
132.24
128.10
123.87
118.97
112.95
105.65
97.15
87.64
77.19
65.53
52.00
35.81
16.29
-6.69
-32.53
-59.91
-86.85
-110.95
-129.87
-141.86
-146.40
-144.51
-138.55
-131.38
-125.14
-120.25
-115.17
-107.03
-93.01
-71.66
-43.78
-12.29
18.47
43.74
59.37
62.34
51.17
26.18
-10.30
-53.79
-97.96
-135.50
-159.60
-165.52
-151.93
-121.31
-79.35
-33.59
8.12
38.93
53.72
49.44
25.52
-15.80
-69.21
-126.73
-178.86
-216.54
-233.28
-226.60
-198.47
-154.48
-102.37
-50.19
-4.99
28.10
46.19
48.57
36.39
12.34
-19.57
-54.30
-86.20
-109.63
-119.91
-114.21
-91.93
-54.43
-4.20
55.63
121.34
188.04
249.30
297.72
326.61
332.25
315.57
282.09
240.26
198.73
164.05
139.67
126.20
122.42
126.08
134.28
143.37
149.04
146.87
133.36
106.91
68.50
21.91
-27.16
-72.28
-107.98
-131.15
-141.83
-143.09
-139.98
-138.02
-141.68
-153.28
-172.48
-196.36
-220.06
-237.72
-243.73
-234.07
-207.32
-165.29
-112.84
-56.85
-4.65
37.68
66.63
81.76
85.60
82.66
78.16
76.73
81.36
92.85
109.77
128.95
146.36
158.21
162.08
157.65
146.93
133.67
122.30
116.66
118.94
129.14
145.20
163.65
180.53
192.47
197.52
195.58
188.21
178.03
167.41
157.61
148.09
137.03
122.17
102.11
76.97
48.37
18.51
-10.95
-39.66
-68.48
-98.54
-130.03
-161.32
-188.79
-207.43
-212.04
-198.54
-165.04
-112.49
-44.72
32.08
110.33
182.36
241.77
284.52
309.62
318.91
316.37
306.82
294.87
283.92
275.92
271.30
269.52
269.37
269.30
267.64
262.70
253.00
237.66
216.46
189.94
158.84
123.76
84.90
42.04
-5.14
-56.69
-112.55
-172.87
-238.15
-308.46
-382.10
-454.24
-516.81
-560.15
-575.88
-559.67
-512.20
-438.38
-345.40
-241.17
-133.85
-32.04
55.56
121.52
162.10
178.90
178.65
170.64
163.14
160.44
162.32
165.59
166.58
163.25
155.95
146.63
137.53
129.99
123.91
117.96
110.30
99.59
85.70
69.78
53.76
39.43
27.65
17.87
8.46
-2.71
-17.68
-38.24
-65.53
-99.32
-136.72
-171.23
-193.42
-193.79
-166.95
-115.00
-48.08
18.95
72.10
103.48
113.19
107.56
94.62
79.87
64.51
46.34
22.11
-10.54
-52.53
-103.96
-164.58
-233.33
-307.39
-381.43
-448.08
-499.96
-532.37
-545.34
-543.88
-536.39
-531.71
-536.25
-552.40
-578.41
-609.78
-640.98
-666.96
-683.95
-689.62
-683.08
-664.83
-636.55
-600.94
-561.16
-520.14
-479.92
-441.41
-404.51
-368.64
-333.37
-298.72
-265.23
-233.56
-204.23
-177.32
-152.51
-129.24
-106.99
-85.46
-64.65
-44.74
-25.90
-8.24
8.35
24.04
38.94
52.99
66.01
77.78
88.25
97.72
106.78
116.16
126.32
137.31
148.61
159.42
169.01
177.19
184.48
191.94
200.76
211.64
224.46
238.31
251.86
263.97
274.23
283.17
292.04
302.62
316.93
336.69
362.67
393.71
426.10
453.85
470.16
469.71
450.61
415.18
368.97
318.81
270.90
229.64
197.61
175.86
164.31
161.80
166.18
174.67
184.46
193.22
199.17
200.93
197.38
188.08
173.78
156.58
139.42
124.80
113.70
105.40
98.52
92.43
88.27
88.56
95.81
110.80
131.68
154.40
174.15
187.05
191.29
187.28
176.96
162.82
146.84
130.19
113.24
96.06
78.93
62.55
47.93
35.91
26.71
19.68
13.58
7.02
-0.85
-10.01
-19.65
-28.55
-35.67
-40.55
-43.34
-44.68
-45.27
-45.60
-45.91
-46.25
-46.69
-47.43
-48.88
-51.45
-55.30
-60.13
-65.15
-69.21
-71.22
-70.49
-66.94
-61.03
-53.58
-45.43
-37.23
-29.40
-22.15
-15.64
-10.01
-5.40
-1.91
0.39
1.50
1.47
0.45
-1.34
-3.57
-5.90
-8.00
-9.74
-11.09
-12.19
-13.24
-14.41
-15.85
-17.57
-19.54
-21.64
-23.72
-25.63
-27.29
-28.74
-30.10
-31.63
-33.58
-36.12
-39.20
-42.49
-45.32
-46.85
-46.33
-43.33
-37.95
-30.87
-23.13
-15.86
-9.96
-5.87
-3.62
-2.91
-3.34
-4.57
-6.43
-8.82
-11.63
-14.63
-17.48
-19.88
-21.63
-22.76
-23.46
-24.01
-24.59
-25.35
-26.34
-27.63
-29.35
-31.60
-34.36
-37.48
-40.67
-43.69
-46.49
-49.27
-52.38
-56.01
-60.03
-63.87
-66.55
-67.04
-64.61
-59.05
-50.69
-40.27
-28.60
-16.51
-4.74
5.98
14.95
21.59
25.72
27.73
28.51
29.18
30.64
33.27
36.81
40.52
43.64
45.58
46.08
45.04
42.48
38.34
32.72
26.02
19.01
12.72
8.07
5.54
4.87
5.30
5.77
5.42
3.78
0.72
-3.67
-9.26
-15.79
-22.60
-28.58
-32.30
-32.44
-28.46
-20.85
-11.08
-1.03
7.66
13.96
17.56
18.67
17.72
15.26
11.96
8.65
6.05
4.62
4.31
4.61
4.90
4.69
3.87
2.60
1.08
-0.67
-2.84
-5.60
-8.98
-12.70
-16.34
-19.47
-21.86
-23.51
-24.59
-25.32
-25.99
-26.80
-27.92
-29.51
-31.64
-34.22
-36.99
-39.51
-41.12
-41.19
-39.18
-34.97
-28.82
-21.45
-13.77
-6.70
-0.88
3.38
6.08
7.42
7.67
7.01
5.66
3.78
1.63
-0.53
-2.45
-3.94
-4.94
-5.45
-5.60
-5.52
-5.41
-5.44
-5.72
-6.29
-7.09
-8.04
-9.04
-10.08
-11.25
-12.67
-14.45
-16.63
-19.15
-21.84
-24.41
-26.54
-27.82
-27.89
-26.48
-23.53
-19.26
-14.05
-8.43
-2.92
2.05
6.20
9.40
11.59
12.80
13.13
12.70
11.64
10.13
8.32
6.36
4.35
2.42
0.63
-0.97
-2.36
-3.56
-4.63
-5.60
-6.54
-7.50
-8.52
-9.61
-10.80
-12.09
-13.50
-15.12
-17.03
-19.26
-21.78
-24.36
-26.67
-28.27
-28.76
-27.85
-25.44
-21.64
-16.74
-11.13
-5.29
0.30
5.21
9.08
11.71
13.07
13.29
12.61
11.36
9.77
8.00
6.15
4.31
2.57
1.02
-0.29
-1.41
-2.42
-3.46
-4.58
-5.84
-7.22
-8.71
-10.29
-11.94
-13.59
-15.19
-16.72
-18.32
-20.16
-22.45
-25.27
-28.44
-31.53
-33.94
-35.00
-34.22
-31.35
-26.49
-20.02
-12.56
-4.78
2.73
9.55
15.48
20.50
24.70
28.21
31.10
33.31
34.79
35.43
35.29
34.59
33.67
32.90
32.50
32.50
32.75
33.04
33.22
33.23
33.11
32.96
32.97
33.36
34.38
36.13
38.32
40.24
40.90
39.26
34.73
27.43
18.17
8.34
-0.48
-6.86
-9.78
-8.77
-4.06
3.51
12.69
21.99
30.05
35.94
39.23
40.09
39.14
37.35
35.79
35.40
36.77
39.86
44.11
48.52
52.03
53.93
54.06
52.81
50.84
48.70
46.44
43.48
38.80
31.28
20.24
5.84
-10.84
-27.98
-43.60
-56.12
-64.84
-70.09
-72.95
-74.89
-77.21
-80.70
-85.51
-91.18
-96.95
-101.87
-105.18
-106.28
-104.99
-101.40
-95.86
-88.88
-80.97
-72.56
-64.05
-55.90
-48.62
-42.78
-38.65
-36.12
-34.59
-33.22
-31.18
-28.03
-23.87
-19.14
-14.34
-9.78
-5.48
-1.36
2.58
6.04
8.52
9.55
8.99
7.12
4.49
1.78
-0.61
-2.54
-4.24
-6.10
-8.48
-11.68
-15.82
-20.77
-26.20
-31.51
-35.94
-38.62
-38.83
-36.10
-30.34
-21.87
-11.35
0.31
12.06
22.91
32.05
39.01
43.70
46.32
47.28
47.02
46.01
44.62
43.18
41.93
41.01
40.38
39.82
39.05
37.80
35.94
33.46
30.50
27.21
23.66
19.86
15.72
11.09
5.93
0.26
-5.76
-11.98
-18.35
-24.97
-31.96
-39.36
-46.94
-54.14
-60.14
-64.13
-65.47
-63.84
-59.34
-52.33
-43.32
-32.83
-21.38
-9.41
2.72
14.68
26.15
36.79
46.21
54.11
60.31
64.82
67.78
69.37
69.73
68.96
67.24
64.90
62.36
60.13
58.59
57.83
57.63
57.49
56.81
55.03
51.79
46.99
40.91
34.02
26.97
20.30
14.29
8.91
3.91
-1.05
-6.14
-11.27
-16.03
-19.93
-22.55
-23.69
-23.43
-21.96
-19.43
-15.88
-11.29
-5.61
0.95
7.96
14.80
20.85
25.55
28.65
30.17
30.33
29.51
28.11
26.41
24.59
22.74
20.85
18.99
17.27
15.80
14.64
13.69
12.71
11.33
9.24
6.34
2.72
-1.35
-5.60
-9.91
-14.30
-18.94
-23.99
-29.53
-35.39
-41.27
-46.77
-51.50
-55.11
-57.36
-58.05
-57.06
-54.29
-49.74
-43.51
-35.72
-26.65
-16.62
-6.07
4.53
14.59
23.57
30.97
36.41
39.66
40.72
39.75
37.14
33.49
29.53
26.10
23.93
23.50
24.92
27.83
31.46
34.82
36.95
37.18
35.44
32.16
28.15
24.38
21.60
20.14
19.85
20.12
20.04
18.70
15.40
9.87
2.45
-5.98
-14.12
-20.53
-24.04
-24.05
-20.65
-14.63
-7.18
0.39
6.93
11.67
14.28
14.79
13.53
10.93
7.47
3.60
-0.24
-3.63
-6.13
-7.35
-7.04
-5.18
-2.08
1.65
5.20
7.76
8.75
7.95
5.52
1.94
-2.20
-6.29
-9.94
-12.87
-14.97
-16.23
-16.73
-16.68
-16.53
-16.84
-18.11
-20.58
-23.98
-27.58
-30.37
-31.45
-30.30
-26.95
-21.84
-15.62
-8.84
-1.95
4.72
10.84
16.02
19.93
22.38
23.43
23.39
22.66
21.55
20.26
18.80
17.16
15.34
13.43
11.55
9.77
8.06
6.36
4.65
2.95
1.32
-0.24
-1.78
-3.44
-5.32
-7.40
-9.52
-11.44
-13.03
-14.33
-15.59
-17.20
-19.46
-22.42
-25.81
-29.06
-31.44
-32.27
-31.07
-27.77
-22.57
-16.00
-8.69
-1.32
5.60
11.63
16.45
19.85
21.81
22.48
22.20
21.43
20.60
20.00
19.63
19.31
18.82
17.95
16.68
15.16
13.63
12.33
11.43
10.91
10.55
10.00
8.84
6.74
3.65
-0.14
-4.13
-7.78
-10.77
-13.10
-15.11
-17.33
-20.20
-23.93
-28.45
-33.33
-37.99
-41.69
-43.74
-43.53
-40.74
-35.33
-27.61
-18.27
-8.17
1.73
10.60
17.89
23.39
27.15
29.41
30.41
30.36
29.47
27.95
26.05
24.05
22.23
20.69
19.41
18.32
17.28
16.21
15.03
13.71
12.20
10.44
8.41
6.08
3.46
0.57
-2.46
-5.45
-8.18
-10.50
-12.42
-14.14
-16.01
-18.41
-21.51
-25.26
-29.34
-33.22
-36.31
-38.03
-37.94
-35.82
-31.67
-25.88
-18.99
-11.77
-4.87
1.23
6.30
10.32
13.37
15.53
16.81
17.20
16.70
15.47
13.75
11.84
9.97
8.19
6.40
4.41
2.13
-0.39
-2.89
-5.00
-6.46
-7.16
-7.33
-7.40
-7.89
-9.16
-11.38
-14.30
-17.41
-20.14
-22.03
-23.04
-23.49
-23.99
-25.15
-27.35
-30.60
-34.54
-38.48
-41.45
-42.30
-39.85
-33.17
-22.01
-6.96
10.46
28.17
44.14
56.85
65.52
70.06
70.84
68.42
63.51
56.91
49.62
42.70
37.10
33.39
31.65
31.44
31.96
32.25
31.50
29.24
25.47
20.57
15.20
9.99
5.41
1.70
-1.11
-3.06
-4.27
-4.93
-5.45
-6.34
-8.16
-11.27
-15.70
-21.06
-26.70
-31.95
-36.22
-39.14
-40.44
-39.91
-37.35
-32.67
-26.01
-17.90
-9.21
-1.01
5.74
10.47
13.20
14.34
14.61
14.64
14.81
15.24
15.83
16.46
17.02
17.43
17.53
17.10
15.90
13.83
11.07
7.99
5.12
2.77
1.01
-0.37
-1.67
-3.17
-4.88
-6.64
-8.21
-9.42
-10.24
-10.70
-10.94
-11.13
-11.58
-12.68
-14.75
-17.87
-21.68
-25.25
-27.34
-26.83
-23.03
-16.09
-6.88
3.28
12.96
21.08
27.10
30.90
32.79
33.17
32.50
31.13
29.39
27.56
25.83
24.32
23.01
21.78
20.48
18.98
17.21
15.18
12.96
10.65
8.35
6.15
4.09
2.13
0.17
-2.01
-4.59
-7.63
-11.02
-14.50
-17.79
-20.74
-23.49
-26.36
-29.66
-33.52
-37.60
-41.19
-43.32
-43.13
-40.09
-34.16
-25.84
-15.94
-5.49
4.53
13.29
20.30
25.31
28.38
29.76
29.82
28.92
27.38
25.42
23.18
20.77
18.32
16.03
14.10
12.69
11.81
11.27
10.76
9.89
8.41
6.25
3.56
0.58
-2.50
-5.50
-8.37
-11.12
-13.86
-16.76
-20.09
-24.12
-28.95
-34.44
-40.01
-44.78
-47.68
-47.72
-44.24
-37.22
-27.26
-15.48
-3.30
7.96
17.34
24.45
29.37
32.47
34.18
34.84
34.71
33.96
32.80
31.41
29.96
28.56
27.18
25.84
24.54
23.33
22.31
21.53
20.90
20.21
19.14
17.41
14.84
11.43
7.33
2.83
-1.81
-6.37
-10.78
-15.08
-19.47
-24.14
-29.26
-34.84
-40.63
-46.09
-50.48
-52.94
-52.71
-49.38
-43.04
-34.25
-24.00
-13.38
-3.36
5.38
12.57
18.19
22.38
25.33
27.20
28.17
28.44
28.19
27.66
26.97
26.16
25.28
24.35
23.49
22.82
22.43
22.26
22.19
21.93
21.26
19.99
18.05
15.44
12.20
8.41
4.09
-0.63
-5.57
-10.43
-14.88
-18.63
-21.60
-23.92
-25.96
-28.13
-30.71
-33.63
-36.41
-38.23
-38.17
-35.49
-29.92
-21.80
-12.05
-1.98
7.03
13.93
18.24
20.16
20.38
19.76
18.98
18.27
17.51
16.42
14.76
12.55
10.00
7.43
5.13
3.26
1.96
1.29
1.29
1.88
2.85
3.84
4.45
4.34
3.36
1.53
-0.93
-3.73
-6.51
-8.97
-10.86
-12.05
-12.53
-12.46
-12.14
-11.89
-12.09
-13.05
-14.97
-17.80
-21.28
-24.80
-27.56
-28.63
-27.18
-22.69
-15.15
-5.12
6.25
17.47
27.09
34.03
37.82
38.70
37.32
34.48
30.84
26.78
22.58
18.56
15.22
13.09
12.57
13.53
15.40
17.20
18.00
17.17
14.71
11.06
7.00
3.31
0.49
-1.17
-1.70
-1.25
-0.07
1.51
2.98
3.69
2.98
0.44
-3.85
-9.20
-14.51
-18.75
-21.28
-22.15
-21.88
-21.11
-20.28
-19.60
-19.20
-19.31
-20.18
-21.83
-23.75
-24.86
-23.90
-20.06
-13.40
-4.89
3.95
11.70
17.36
20.46
20.84
18.55
13.83
7.31
0.16
-6.14
-10.10
-10.76
-8.04
-2.64
4.09
10.58
15.38
17.34
15.90
11.17
4.03
-4.05
-11.31
-16.28
-18.14
-16.96
-13.56
-9.26
-5.55
-3.77
-4.82
-8.92
-15.49
-23.11
-29.90
-34.06
-34.42
-30.85
-24.17
-15.79
-7.16
0.53
6.69
11.12
13.98
15.59
16.36
16.75
17.16
17.91
19.05
20.43
21.58
21.86
20.50
16.93
10.91
2.78
-6.54
-15.75
-23.54
-29.02
-31.97
-32.95
-33.02
-33.40
-35.03
-38.37
-43.32
-49.38
-55.81
-61.76
-66.45
-69.27
-70.09
-69.42
-68.40
-68.43
-70.68
-75.29
-81.18
-86.18
-87.71
-83.75
-73.48
-57.43
-37.13
-14.29
9.86
34.82
60.47
86.47
111.65
133.83
150.46
159.39
159.87
152.72
140.02
124.20
107.19
90.05
73.13
56.50
40.28
24.72
10.04
-3.63
-16.18
-27.22
-35.95
-41.18
-41.78
-37.23
-27.89
-15.01
-0.29
14.55
28.20
39.91
49.41
56.77
62.15
65.65
67.15
66.31
62.69
56.09
46.85
36.03
25.27
16.30
10.45
8.28
9.32
12.49
16.35
19.60
21.34
21.13
18.94
14.97
9.60
3.22
-3.73
-10.82
-17.59
-23.60
-28.47
-32.03
-34.35
-35.73
-36.65
-37.55
-38.76
-40.44
-42.62
-45.28
-48.40
-52.03
-56.26
-61.10
-66.48
-72.15
-77.68
-82.48
-85.87
-87.25
-86.12
-82.27
-75.72
-66.70
-55.66
-43.16
-29.80
-16.16
-2.71
10.14
22.10
32.81
41.80
48.42
52.02
52.12
48.78
42.69
35.15
27.79
22.16
19.34
19.64
22.57
27.03
31.63
35.02
36.21
34.60
30.10
23.06
14.17
4.37
-5.32
-14.02
-21.14
-26.50
-30.21
-32.55
-33.68
-33.48
-31.70
-28.04
-22.47
-15.35
-7.38
0.57
7.76
13.79
18.62
22.57
26.12
29.70
33.46
37.22
40.47
42.55
42.91
41.37
38.19
33.93
29.35
25.11
21.61
18.92
16.90
15.28
13.81
12.27
10.46
8.25
5.50
2.15
-1.84
-6.39
-11.42
-16.90
-22.79
-29.10
-35.65
-41.95
-47.11
-50.00
-49.51
-45.02
-36.68
-25.49
-13.02
-0.89
9.64
17.99
24.20
28.62
31.61
33.31
33.74
32.90
30.95
28.18
24.95
21.53
17.98
14.22
10.16
5.85
1.52
-2.45
-5.72
-8.19
-10.04
-11.68
-13.65
-16.34
-19.86
-23.99
-28.23
-32.10
-35.17
-37.33
-38.75
-39.75
-40.57
-41.27
-41.61
-41.23
-39.85
-37.35
-33.83
-29.32
-23.56
-15.94
-5.69
7.65
23.80
41.54
58.86
73.47
83.49
87.86
86.52
80.38
70.90
59.82
48.81
39.33
32.36
28.36
27.24
28.30
30.44
32.38
32.96
31.43
27.62
21.91
15.07
8.05
1.76
-3.18
-6.50
-8.33
-9.12
-9.62
-10.60
-12.80
-16.69
-22.40
-29.60
-37.53
-44.99
-50.58
-52.97
-51.27
-45.38
-36.03
-24.62
-12.75
-1.74
7.61
15.09
20.77
24.78
27.17
27.92
27.15
25.21
22.62
19.93
17.51
15.49
13.74
12.11
10.41
8.65
6.95
5.46
4.33
3.48
2.67
1.54
-0.24
-2.78
-5.92
-9.22
-12.21
-14.62
-16.41
-17.82
-19.18
-20.83
-23.01
-25.94
-29.72
-34.30
-39.29
-43.80
-46.60
-46.48
-42.69
-35.32
-25.26
-13.95
-2.79
7.13
15.29
21.59
26.17
29.27
31.20
32.27
32.77
32.93
32.79
32.26
31.18
29.56
27.59
25.66
24.15
23.26
22.92
22.83
22.61
21.96
20.74
18.90
16.45
13.39
9.67
5.31
0.45
-4.58
-9.39
-13.59
-16.98
-19.58
-21.64
-23.53
-25.61
-28.22
-31.59
-35.81
-40.76
-45.98
-50.66
-53.68
-53.88
-50.48
-43.40
-33.35
-21.67
-9.92
0.57
9.03
15.24
19.43
22.02
23.43
23.98
23.84
23.10
21.80
19.98
17.77
15.41
13.21
11.44
10.27
9.65
9.44
9.39
9.33
9.15
8.86
8.44
7.85
6.99
5.71
3.86
1.37
-1.74
-5.32
-9.16
-13.00
-16.54
-19.62
-22.19
-24.42
-26.71
-29.52
-33.30
-38.24
-44.05
-49.92
-54.60
-56.73
-55.26
-49.80
-40.83
-29.52
-17.46
-6.13
3.40
10.72
15.91
19.37
21.57
22.84
23.36
23.23
22.50
21.32
19.82
18.20
16.60
15.12
13.82
12.69
11.74
10.96
10.35
9.87
9.48
9.03
8.33
7.18
5.37
2.85
-0.28
-3.72
-7.13
-10.17
-12.69
-14.77
-16.67
-18.81
-21.58
-25.27
-29.93
-35.21
-40.37
-44.28
-45.72
-43.68
-37.82
-28.60
-17.18
-5.11
6.15
15.56
22.70
27.65
30.81
32.61
33.42
33.48
32.94
31.85
30.26
28.20
25.76
23.07
20.35
17.82
15.65
13.98
12.82
12.14
11.89
11.92
12.07
12.01
11.41
9.91
7.33
3.75
-0.51
-4.90
-8.83
-11.88
-13.93
-15.24
-16.37
-18.05
-20.85
-25.01
-30.31
-36.01
-40.95
-43.87
-43.64
-39.68
-32.04
-21.57
-9.62
2.23
12.64
20.76
26.37
29.79
31.54
32.19
32.07
31.34
30.03
28.17
25.89
23.42
21.01
18.87
17.01
15.41
13.96
12.68
11.62
10.92
10.62
10.59
10.54
10.08
8.95
7.04
4.52
1.64
-1.28
-4.05
-6.58
-8.92
-11.21
-13.64
-16.39
-19.62
-23.46
-27.92
-32.79
-37.58
-41.54
-43.75
-43.33
-39.74
-32.92
-23.49
-12.52
-1.36
8.76
16.98
22.95
26.79
28.88
29.73
29.70
29.00
27.77
26.09
24.12
22.04
20.00
18.10
16.34
14.64
12.97
11.31
9.74
8.33
7.07
5.80
4.30
2.33
-0.24
-3.40
-6.93
-10.55
-13.93
-16.84
-19.22
-21.20
-23.02
-25.01
-27.47
-30.55
-34.26
-38.40
-42.55
-46.10
-48.28
-48.32
-45.64
-40.04
-31.87
-21.93
-11.26
-0.94
8.25
15.84
21.75
26.03
28.86
30.36
30.70
30.06
28.73
27.03
25.22
23.48
21.84
20.26
18.70
17.19
15.82
14.67
13.68
12.68
11.43
9.70
7.43
4.79
2.02
-0.57
-2.82
-4.70
-6.34
-8.03
-10.15
-13.03
-16.92
-21.84
-27.48
-33.18
-38.03
-41.00
-41.21
-38.21
-32.09
-23.52
-13.53
-3.29
6.17
14.19
20.38
24.72
27.34
28.53
28.64
28.07
27.16
26.17
25.19
24.19
23.03
21.58
19.81
17.79
15.70
13.78
12.24
11.18
10.49
9.86
8.84
7.04
4.28
0.68
-3.31
-7.32
-11.07
-14.63
-18.33
-22.59
-27.71
-33.72
-40.32
-46.93
-52.72
-56.76
-58.14
-56.26
-51.07
-43.10
-33.45
-23.38
-14.00
-5.99
0.38
5.08
8.11
9.51
9.34
7.83
5.45
2.70
-0.03
-2.59
-5.10
-7.68
-10.15
-12.04
-12.54
-10.93
-6.78
-0.32
7.56
15.44
21.65
24.71
23.70
18.55
10.13
0.11
-9.44
-16.59
-20.13
-19.86
-16.61
-11.93
-7.46
-4.39
-3.00
-2.67
-2.01
0.76
7.30
18.79
35.48
56.58
80.27
104.03
125.21
141.74
152.50
157.35
156.92
152.14
143.87
132.93
120.22
106.75
93.57
81.38
70.26
59.60
48.45
36.18
22.85
9.39
-2.82
-12.53
-19.13
-22.86
-24.49
-25.01
-25.26
-25.96
-27.76
-31.42
-37.69
-47.06
-59.48
-74.19
-89.80
-104.55
-116.50
-123.82
-125.11
-119.73
-108.12
-91.86
-73.25
-54.73
-38.16
-24.46
-13.71
-5.46
0.77
5.45
8.97
11.77
14.26
16.63
18.67
19.73
19.08
16.14
10.80
3.38
-5.50
-15.03
-24.25
-32.03
-37.06
-38.22
-34.86
-27.30
-16.93
-5.91
3.40
9.14
10.45
7.55
1.53
-6.19
-14.22
-21.65
-28.12
-33.83
-39.38
-45.52
-52.65
-60.51
-68.01
-73.48
-75.24
-72.27
-64.64
-53.41
-40.06
-25.83
-11.34
3.32
18.01
32.07
44.14
52.60
56.25
54.89
49.50
41.95
34.40
28.86
26.81
29.17
36.27
47.71
62.27
77.88
91.90
101.85
105.98
103.87
96.52
85.98
74.79
65.16
58.40
54.66
52.96
51.49
48.27
41.70
31.04
16.70
0.08
-16.69
-31.31
-41.83
-47.08
-46.89
-42.08
-34.19
-25.19
-16.97
-11.10
-8.63
-9.98
-15.11
-23.58
-34.71
-47.69
-61.66
-75.77
-89.09
-100.70
-109.61
-114.97
-116.29
-113.64
-107.78
-100.19
-92.71
-87.14
-84.85
-86.41
-91.54
-99.39
-108.89
-119.11
-129.45
-139.59
-149.26
-158.21
-166.18
-172.95
-178.36
-182.00
-182.91
-179.48
-169.71
-151.86
-125.17
-90.20
-48.46
-1.63
49.06
102.80
158.41
213.30
263.22
302.99
328.29
337.43
332.06
316.58
296.25
275.28
255.66
237.37
219.37
200.83
181.72
162.63
144.01
125.67
106.67
85.80
62.32
36.43
9.45
-16.60
-39.75
-58.63
-72.81
-82.80
-89.62
-94.35
-97.76
-100.05
-100.91
-99.69
-95.61
-88.06
-76.82
-62.16
-44.98
-26.65
-8.89
6.63
18.49
25.91
28.81
27.80
23.96
18.46
12.22
5.77
-0.77
-7.45
-14.20
-20.74
-26.56
-31.13
-34.15
-35.72
-36.26
-36.32
-36.27
-36.18
-35.85
-35.08
-33.79
-32.19
-30.60
-29.28
-28.30
-27.56
-26.96
-26.54
-26.47
-26.94
-27.84
-28.71
-28.77
-27.16
-23.20
-16.51
-7.12
4.61
18.07
32.35
46.31
58.51
67.47
71.95
71.32
65.80
56.47
44.95
33.16
22.75
14.91
10.19
8.55
9.44
11.93
14.86
17.06
17.52
15.67
11.50
5.55
-1.22
-7.77
-13.23
-17.16
-19.61
-21.03
-22.08
-23.38
-25.24
-27.60
-29.98
-31.74
-32.26
-31.08
-28.07
-23.36
-17.19
-9.83
-1.52
7.52
16.93
26.12
34.22
40.29
43.54
43.55
40.51
35.17
28.72
22.42
17.37
14.25
13.19
13.88
15.63
17.64
19.12
19.44
18.16
15.10
10.32
4.17
-2.77
-9.85
-16.52
-22.58
-28.15
-33.56
-38.99
-44.20
-48.37
-50.33
-49.01
-43.91
-35.36
-24.44
-12.68
-1.53
7.93
15.25
20.48
23.96
26.09
27.16
27.34
26.69
25.32
23.47
21.43
19.61
18.36
17.92
18.38
19.59
21.29
23.08
24.58
25.44
25.34
24.09
21.54
17.70
12.70
6.84
0.45
-6.15
-12.83
-19.65
-26.72
-34.01
-41.12
-47.29
-51.39
-52.35
-49.33
-42.06
-31.01
-17.31
-2.59
11.41
23.26
32.08
37.68
40.38
40.72
39.26
36.42
32.52
27.84
22.73
17.47
12.33
7.51
3.18
-0.57
-3.62
-5.97
-7.79
-9.41
-11.29
-13.81
-17.15
-21.16
-25.41
-29.39
-32.75
-35.49
-38.03
-41.08
-45.34
-51.23
-58.63
-66.65
-73.68
-77.54
-76.05
-67.63
-51.93
-30.15
-4.85
20.67
43.35
61.10
73.19
80.00
82.57
81.94
78.95
74.12
67.96
60.98
53.67
46.45
39.41
32.42
25.34
18.24
11.58
6.03
2.15
-0.04
-1.23
-2.61
-5.39
-10.19
-16.82
-24.30
-31.46
-37.45
-42.07
-45.89
-49.96
-55.37
-62.97
-72.97
-84.65
-96.14
-104.49
-106.29
-98.71
-80.69
-53.59
-21.03
12.31
42.15
65.84
82.70
93.53
99.67
102.20
101.65
98.30
92.54
85.13
77.11
69.45
62.66
56.73
51.16
45.36
38.97
32.08
25.27
19.33
14.89
12.09
10.38
8.68
5.77
0.81
-6.31
-14.86
-23.58
-31.29
-37.31
-41.76
-45.37
-49.13
-53.93
-60.29
-68.33
-77.69
-87.35
-95.50
-99.58
-96.83
-85.24
-64.57
-36.74
-5.48
24.97
51.07
70.94
84.42
92.56
96.65
97.68
96.14
92.29
86.50
79.35
71.63
64.09
57.23
51.25
46.04
41.36
36.95
32.72
28.78
25.27
22.24
19.54
16.72
13.28
8.87
3.50
-2.54
-8.78
-14.83
-20.52
-25.92
-31.15
-36.32
-41.37
-46.25
-50.96
-55.62
-60.48
-65.79
-71.67
-78.01
-84.40
-90.02
-93.69
-94.03
-89.73
-80.09
-65.39
-47.00
-27.01
-7.56
9.84
24.75
37.66
49.42
60.61
71.15
80.34
87.18
90.87
91.09
88.00
82.19
74.45
65.71
56.87
48.82
42.16
37.25
33.96
31.88
30.28
28.47
25.86
22.11
17.25
11.56
5.50
-0.48
-6.05
-11.17
-15.93
-20.44
-24.71
-28.53
-31.68
-33.98
-35.66
-37.24
-39.47
-43.02
-48.01
-53.91
-59.53
-63.39
-64.12
-60.88
-53.56
-42.82
-29.85
-16.14
-3.17
7.86
16.16
21.54
24.24
24.87
24.17
22.83
21.37
20.08
19.08
18.26
17.45
16.38
14.85
12.84
10.51
8.15
6.04
4.25
2.68
1.13
-0.57
-2.49
-4.63
-7.01
-9.75
-13.02
-16.87
-21.18
-25.53
-29.42
-32.41
-34.35
-35.42
-36.12
-37.04
-38.66
-41.30
-44.92
-49.17
-53.37
-56.54
-57.56
-55.45
-49.63
-40.19
-27.97
-14.36
-0.98
10.75
19.97
26.49
30.55
32.68
33.38
32.98
31.72
29.86
27.66
25.41
23.31
21.38
19.54
17.59
15.53
13.45
11.58
10.12
9.10
8.42
7.79
6.97
5.72
3.90
1.43
-1.66
-5.25
-9.09
-12.86
-16.27
-19.17
-21.57
-23.64
-25.66
-27.95
-30.85
-34.62
-39.32
-44.68
-49.90
-53.83
-55.16
-52.84
-46.44
-36.33
-23.59
-9.71
3.78
15.64
25.04
31.66
35.58
37.24
37.33
36.58
35.66
34.95
34.48
33.98
33.05
31.46
29.27
26.89
24.82
23.43
22.79
22.68
22.72
22.68
22.57
22.47
22.43
22.28
21.60
19.96
17.12
13.18
8.50
3.62
-1.06
-5.37
-9.34
-13.13
-16.91
-20.84
-25.12
-29.95
-35.34
-41.03
-46.29
-50.04
-51.10
-48.66
-42.55
-33.40
-22.44
-11.09
-0.66
8.02
14.58
19.07
21.82
23.26
23.84
23.94
23.82
23.54
23.03
22.10
20.60
18.45
15.76
12.79
9.84
7.17
4.91
3.03
1.40
-0.13
-1.69
-3.31
-4.99
-6.71
-8.46
-10.29
-12.21
-14.25
-16.40
-18.64
-20.90
-23.18
-25.53
-28.00
-30.70
-33.70
-37.04
-40.70
-44.58
-48.38
-51.55
-53.23
-52.43
-48.35
-40.77
-30.24
-18.01
-5.65
5.50
14.66
21.71
26.95
30.78
33.48
35.13
35.74
35.42
34.37
32.85
31.06
29.22
27.45
25.88
24.62
23.68
22.99
22.41
21.78
21.02
20.14
19.14
18.05
16.82
15.33
13.47
11.09
8.10
4.47
0.31
-4.19
-8.71
-13.01
-16.93
-20.53
-23.99
-27.60
-31.59
-36.00
-40.60
-44.86
-48.01
-49.18
-47.53
-42.63
-34.56
-24.02
-12.22
-0.52
9.89
18.32
24.64
29.14
32.38
34.77
36.49
37.46
37.54
36.64
34.92
32.71
30.36
28.13
26.11
24.27
22.61
21.19
20.14
19.52
19.29
19.23
19.02
18.40
17.16
15.22
12.60
9.36
5.62
1.55
-2.66
-6.87
-10.94
-14.81
-18.53
-22.17
-25.87
-29.74
-33.77
-37.87
-41.68
-44.64
-46.01
-45.11
-41.46
-35.10
-26.59
-16.89
-7.14
1.64
8.82
14.26
18.21
21.12
23.45
25.44
27.12
28.39
29.12
29.23
28.72
27.65
26.10
24.16
21.92
19.55
17.24
15.20
13.60
12.45
11.62
10.85
9.87
8.48
6.57
4.19
1.46
-1.44
-4.28
-6.87
-9.06
-10.82
-12.19
-13.38
-14.69
-16.48
-19.13
-22.86
-27.69
-33.29
-38.98
-43.81
-46.73
-46.87
-43.72
-37.32
-28.21
-17.35
-5.90
5.06
14.58
22.15
27.57
31.05
33.00
33.95
34.33
34.34
34.04
33.28
31.93
29.94
27.48
24.86
22.42
20.42
18.89
17.73
16.72
15.71
14.65
13.57
12.45
11.21
9.62
7.44
4.53
0.97
-3.03
-7.12
-10.97
-14.42
-17.48
-20.29
-23.12
-26.24
-29.92
-34.25
-39.16
-44.30
-49.00
-52.40
-53.54
-51.67
-46.50
-38.30
-27.98
-16.81
-6.13
3.07
10.29
15.52
19.11
21.43
22.71
23.06
22.48
21.09
19.16
17.04
15.09
13.55
12.47
11.77
11.26
10.69
9.86
8.69
7.22
5.70
4.41
3.51
2.93
2.32
1.23
-0.67
-3.36
-6.55
-9.74
-12.55
-14.82
-16.71
-18.55
-20.77
-23.77
-27.87
-33.19
-39.51
-46.19
-52.14
-56.06
-56.71
-53.34
-45.90
-35.06
-22.01
-8.14
5.25
17.15
27.00
34.57
39.95
43.40
45.25
45.86
45.52
44.46
42.81
40.72
38.33
35.80
33.30
30.98
28.88
27.01
25.29
23.59
21.84
19.95
17.94
15.88
13.87
11.97
10.16
8.33
6.32
3.92
1.05
-2.26
-5.84
-9.46
-12.93
-16.10
-18.97
-21.70
-24.47
-27.50
-30.84
-34.36
-37.67
-40.19
-41.27
-40.38
-37.32
-32.24
-25.63
-18.13
-10.43
-3.06
3.64
9.53
14.59
18.83
22.31
25.12
27.31
28.95
30.00
30.42
30.17
29.34
28.14
26.92
26.00
25.53
25.42
25.37
24.96
23.89
22.05
19.54
16.63
13.57
10.53
7.55
4.57
1.44
-1.93
-5.56
-9.37
-13.13
-16.54
-19.27
-21.15
-22.24
-22.84
-23.56
-25.05
-27.87
-32.23
-37.80
-43.72
-48.66
-51.19
-50.12
-44.90
-35.83
-24.07
-11.26
0.87
10.99
18.46
23.30
25.99
27.15
27.28
26.76
25.83
24.68
23.50
22.42
21.37
20.22
18.74
16.83
14.61
12.29
10.10
8.13
6.34
4.59
2.81
1.01
-0.73
-2.45
-4.26
-6.34
-8.80
-11.56
-14.43
-17.14
-19.48
-21.39
-22.95
-24.38
-25.95
-27.92
-30.53
-33.92
-37.95
-42.16
-45.82
-47.98
-47.80
-44.76
-38.85
-30.59
-20.82
-10.53
-0.59
8.37
16.04
22.34
27.40
31.40
34.51
36.85
38.43
39.25
39.30
38.63
37.37
35.71
33.80
31.79
29.81
27.96
26.31
24.91
23.66
22.43
21.04
19.42
17.64
15.85
14.22
12.78
11.42
9.95
8.20
6.12
3.76
1.23
-1.44
-4.30
-7.56
-11.43
-16.11
-21.50
-27.23
-32.48
-36.18
-37.23
-34.86
-28.99
-20.28
-10.02
0.33
9.50
16.68
21.64
24.53
25.73
25.63
24.62
22.94
20.84
18.43
15.87
13.28
10.86
8.82
7.28
6.33
5.89
5.80
5.87
5.98
6.00
5.87
5.50
4.79
3.72
2.25
0.48
-1.46
-3.47
-5.48
-7.47
-9.41
-11.38
-13.52
-16.05
-19.27
-23.42
-28.45
-33.94
-39.07
-42.72
-43.83
-41.69
-36.24
-28.05
-18.21
-8.03
1.36
9.28
15.48
20.15
23.59
26.05
27.64
28.31
28.02
26.80
24.86
22.52
20.16
18.08
16.46
15.30
14.47
13.80
13.16
12.55
12.01
11.59
11.23
10.63
9.41
7.24
4.07
0.14
-4.12
-8.33
-12.26
-15.98
-19.60
-23.26
-27.02
-30.86
-34.85
-39.06
-43.50
-47.84
-51.33
-52.96
-51.72
-47.07
-39.14
-28.74
-17.13
-5.68
4.55
12.91
19.27
23.90
27.25
29.76
31.69
33.09
33.89
34.04
33.55
32.58
31.26
29.68
27.82
25.63
23.16
20.61
18.28
16.39
15.04
14.07
13.16
11.86
9.85
7.00
3.46
-0.44
-4.28
-7.78
-10.89
-13.84
-16.98
-20.68
-25.11
-30.32
-36.13
-42.23
-48.07
-52.82
-55.47
-55.03
-50.89
-43.13
-32.62
-20.73
-8.94
1.61
10.35
17.23
22.50
26.44
29.27
31.09
32.00
32.17
31.81
31.16
30.42
29.69
29.03
28.43
27.86
27.28
26.64
25.85
24.89
23.74
22.45
21.05
19.50
17.64
15.28
12.30
8.78
4.95
1.18
-2.28
-5.36
-8.27
-11.45
-15.28
-20.07
-25.86
-32.40
-39.18
-45.42
-50.17
-52.48
-51.66
-47.51
-40.44
-31.36
-21.48
-11.96
-3.63
3.05
8.02
11.48
13.80
15.35
16.52
17.56
18.50
19.22
19.49
19.08
17.94
16.19
14.12
12.02
10.13
8.58
7.40
6.61
6.15
5.97
5.91
5.68
4.96
3.49
1.22
-1.70
-4.88
-7.93
-10.58
-12.84
-14.90
-17.09
-19.68
-22.86
-26.51
-30.37
-33.89
-36.39
-37.10
-35.37
-30.91
-23.85
-14.91
-5.08
4.56
13.12
20.09
25.37
29.12
31.62
33.12
33.74
33.54
32.59
31.06
29.18
27.26
25.47
23.90
22.49
21.13
19.70
18.16
16.45
14.53
12.36
9.89
7.12
4.12
0.97
-2.28
-5.58
-8.88
-12.08
-15.04
-17.67
-19.96
-22.06
-24.29
-26.99
-30.45
-34.76
-39.76
-44.94
-49.49
-52.34
-52.45
-49.05
-42.03
-31.98
-20.12
-7.94
3.20
12.43
19.55
24.81
28.65
31.46
33.47
34.74
35.29
35.24
34.69
33.76
32.42
30.63
28.37
25.73
22.99
20.52
18.59
17.27
16.35
15.41
14.07
12.02
9.22
5.78
1.93
-2.08
-6.04
-9.75
-13.09
-15.94
-18.30
-20.30
-22.23
-24.52
-27.57
-31.66
-36.63
-41.87
-46.34
-48.82
-48.32
-44.36
-37.23
-27.80
-17.37
-7.14
1.97
9.51
15.51
20.23
24.04
27.18
29.73
31.61
32.72
33.03
32.67
31.93
31.09
30.35
29.75
29.24
28.75
28.36
28.24
28.53
29.21
30.07
30.69
30.60
29.48
27.22
23.97
20.04
15.82
11.63
7.61
3.79
-0.01
-4.00
-8.47
-13.63
-19.57
-26.13
-32.85
-38.95
-43.49
-45.61
-44.82
-41.15
-35.14
-27.68
-19.74
-12.09
-5.27
0.47
5.04
8.52
10.99
12.58
13.41
13.60
13.26
12.56
11.60
10.56
9.53
8.56
7.55
6.45
5.21
3.89
2.68
1.78
1.29
1.12
1.04
0.71
-0.15
-1.66
-3.71
-6.09
-8.53
-10.83
-12.91
-14.76
-16.55
-18.50
-20.89
-23.93
-27.69
-31.88
-35.87
-38.81
-39.78
-38.14
-33.75
-27.02
-18.79
-10.07
-1.71
5.74
12.04
17.19
21.19
24.02
25.64
26.10
25.60
24.51
23.22
22.06
21.13
20.39
19.64
18.71
17.50
15.97
14.18
12.25
10.27
8.40
6.71
5.19
3.73
2.13
0.20
-2.24
-5.23
-8.70
-12.44
-16.24
-19.87
-23.24
-26.45
-29.74
-33.39
-37.57
-42.20
-46.77
-50.48
-52.34
-51.48
-47.42
-40.34
-30.92
-20.33
-9.77
-0.24
7.67
13.85
18.51
21.98
24.55
26.40
27.63
28.34
28.65
28.69
28.52
28.12
27.38
26.20
24.61
22.77
20.89
19.21
17.81
16.59
15.32
13.72
11.64
9.07
6.17
3.12
0.07
-2.98
-6.15
-9.57
-13.28
-17.13
-20.95
-24.60
-28.12
-31.81
-35.92
-40.52
-45.18
-48.99
-50.87
-49.92
-45.76
-38.70
-29.59
-19.51
-9.50
-0.29
7.67
14.23
19.46
23.56
26.72
29.07
30.68
31.45
31.37
30.50
29.03
27.22
25.38
23.67
22.19
21.01
20.13
19.52
19.07
18.60
17.88
16.76
15.15
13.05
10.51
7.47
3.95
0.03
-4.05
-7.96
-11.32
-13.94
-15.77
-16.97
-17.81
-18.52
-19.33
-20.42
-21.84
-23.53
-25.19
-26.35
-26.42
-24.95
-21.74
-17.04
-11.39
-5.49
0.05
4.79
8.56
11.34
13.13
13.99
13.94
13.20
12.16
11.37
11.43
12.76
15.43
19.11
23.22
27.03
29.90
31.38
31.29
29.66
26.77
23.00
18.84
14.75
11.01
7.76
4.95
2.45
0.11
-2.19
-4.49
-6.86
-9.39
-12.21
-15.45
-19.18
-23.37
-27.88
-32.52
-37.06
-41.20
-44.44
-46.17
-45.67
-42.40
-36.27
-27.74
-17.83
-7.84
1.11
8.36
13.83
17.90
21.09
23.75
25.97
27.64
28.57
28.77
28.44
27.91
27.45
27.18
27.00
26.68
26.00
24.87
23.31
21.44
19.34
17.05
14.57
11.88
9.01
5.95
2.76
-0.49
-3.75
-6.90
-9.92
-12.91
-16.14
-19.97
-24.69
-30.30
-36.45
-42.43
-47.27
-49.98
-49.85
-46.59
-40.50
-32.32
-23.06
-13.74
-5.10
2.45
8.83
14.11
18.39
21.72
24.09
25.56
26.28
26.44
26.29
26.04
25.75
25.38
24.84
24.06
23.00
21.74
20.46
19.32
18.44
17.79
17.15
16.16
14.41
11.66
7.81
3.07
-2.20
-7.54
-12.58
-17.07
-20.95
-24.33
-27.46
-30.62
-34.07
-37.85
-41.74
-45.14
-47.21
-47.05
-44.03
-38.00
-29.43
-19.29
-8.80
0.96
9.27
15.85
20.84
24.47
27.01
28.51
29.02
28.51
27.11
25.09
22.76
20.44
18.34
16.62
15.34
14.54
14.27
14.49
15.05
15.64
15.89
15.40
14.00
11.75
8.91
5.80
2.73
-0.23
-3.15
-6.14
-9.32
-12.61
-15.85
-18.89
-21.74
-24.64
-27.94
-31.91
-36.49
-41.16
-45.06
-47.15
-46.59
-42.99
-36.50
-27.74
-17.68
-7.36
2.25
10.43
16.88
21.66
25.13
27.72
29.72
31.20
32.02
32.03
31.25
29.93
28.47
27.26
26.49
26.13
25.96
25.71
25.19
24.28
22.98
21.27
19.18
16.76
14.10
11.33
8.54
5.69
2.71
-0.53
-4.03
-7.63
-11.07
-14.16
-16.87
-19.44
-22.27
-25.70
-29.92
-34.76
-39.73
-44.17
-47.34
-48.53
-47.21
-43.12
-36.37
-27.53
-17.42
-7.07
2.63
11.00
17.74
22.82
26.39
28.72
30.08
30.72
30.79
30.32
29.31
27.77
25.80
23.64
21.65
20.13
19.22
18.86
18.79
18.68
18.26
17.39
16.04
14.32
12.34
10.18
7.91
5.50
2.96
0.19
-2.78
-5.88
-8.86
-11.49
-13.62
-15.31
-16.87
-18.71
-21.25
-24.67
-28.92
-33.72
-38.57
-42.87
-45.89
-46.90
-45.22
-40.52
-33.01
-23.42
-12.87
-2.54
6.66
14.23
20.01
24.13
26.75
28.08
28.34
27.81
26.80
25.62
24.51
23.51
22.61
21.65
20.52
19.18
17.71
16.25
14.99
14.00
13.26
12.62
11.85
10.75
9.25
7.40
5.24
2.80
0.03
-3.15
-6.70
-10.50
-14.31
-17.87
-21.05
-23.84
-26.38
-28.97
-31.94
-35.51
-39.72
-44.29
-48.60
-51.81
-53.01
-51.49
-46.97
-39.65
-30.15
-19.37
-8.27
2.26
11.57
19.25
25.22
29.64
32.81
35.05
36.55
37.40
37.62
37.25
36.48
35.57
34.78
34.27
34.05
33.97
33.80
33.35
32.48
31.15
29.38
27.22
24.72
21.91
18.85
15.62
12.35
9.15
6.15
3.36
0.74
-1.92
-4.88
-8.46
-12.88
-18.24
-24.37
-30.87
-37.15
-42.42
-45.89
-46.90
-45.06
-40.42
-33.50
-25.16
-16.43
-8.21
-1.14
4.51
8.76
11.73
13.54
14.30
14.12
13.16
11.75
10.22
8.77
7.44
6.14
4.68
2.96
1.10
-0.71
-2.22
-3.32
-4.05
-4.58
-5.13
-5.89
-6.98
-8.51
-10.60
-13.31
-16.60
-20.24
-23.87
-27.16
-30.01
-32.62
-35.45
-39.02
-43.50
-48.57
-53.41
-56.89
-57.93
-55.87
-50.61
-42.67
-32.95
-22.46
-12.17
-2.77
5.27
11.77
16.72
20.31
22.84
24.70
26.24
27.63
28.86
29.78
30.22
30.06
29.36
28.26
27.00
25.79
24.83
24.17
23.75
23.41
22.89
22.01
20.63
18.77
16.52
14.01
11.31
8.49
5.61
2.76
0.02
-2.70
-5.62
-9.13
-13.56
-19.00
-25.11
-31.17
-36.13
-38.99
-39.06
-36.12
-30.53
-23.04
-14.59
-6.04
1.93
8.93
14.82
19.58
23.23
25.86
27.55
28.43
28.60
28.11
27.00
25.29
23.09
20.57
17.98
15.50
13.27
11.29
9.55
7.98
6.59
5.29
4.00
2.53
0.70
-1.60
-4.38
-7.48
-10.66
-13.70
-16.52
-19.19
-21.94
-25.12
-29.05
-33.84
-39.30
-44.84
-49.56
-52.49
-52.83
-50.18
-44.66
-36.84
-27.61
-17.93
-8.72
-0.61
6.00
11.02
14.60
17.03
18.65
19.73
20.38
20.54
20.06
18.73
16.46
13.36
9.83
6.53
4.20
3.45
4.53
7.27
11.12
15.44
19.68
23.53
26.84
29.56
31.48
32.21
31.27
28.32
23.34
16.68
8.99
1.01
-6.51
-12.91
-17.56
-19.99
-19.88
-17.28
-12.58
-6.46
0.28
7.10
13.75
20.27
26.78
33.21
39.23
44.25
47.71
49.21
48.72
46.49
43.02
38.95
34.96
31.62
29.27
27.92
27.13
26.24
24.53
21.60
17.49
12.66
7.75
3.36
-0.05
-2.22
-3.07
-2.62
-1.14
0.76
2.23
2.27
0.02
-4.86
-12.11
-20.90
-30.06
-38.31
-44.58
-48.11
-48.57
-46.01
-40.96
-34.30
-27.12
-20.53
-15.37
-12.02
-10.23
-9.28
-8.15
-5.91
-2.01
3.50
9.96
16.32
21.42
24.38
24.85
23.02
19.48
15.01
10.39
6.26
3.16
1.51
1.52
3.08
5.72
8.66
11.00
12.06
11.49
9.34
5.87
1.40
-3.78
-9.32
-14.77
-19.53
-23.11
-25.27
-26.27
-26.71
-27.29
-28.41
-29.97
-31.31
-31.61
-30.14
-26.63
-21.30
-14.75
-7.65
-0.54
6.34
12.99
19.59
26.33
33.26
40.16
46.55
51.77
55.30
56.89
56.80
55.70
54.51
54.18
55.39
58.46
63.25
69.16
75.25
80.44
83.81
84.96
84.02
81.65
78.57
75.26
71.68
67.36
61.80
54.74
46.48
37.68
29.16
21.41
14.45
7.77
0.45
-8.63
-20.63
-36.36
-56.08
-79.19
-104.29
-129.42
-152.61
-172.37
-187.94
-199.19
-206.18
-208.89
-207.06
-200.45
-189.25
-174.33
-157.20
-139.65
-123.23
-108.96
-97.31
-88.25
-81.46
-76.55
-73.12
-70.89
-69.71
-69.56
-70.40
-72.00
-73.79
-74.85
-74.27
-71.38
-66.28
-59.90
-54.01
-50.79
-52.24
-59.56
-72.64
-89.95
-108.75
-125.70
-137.54
-141.61
-136.17
-120.51
-94.99
-61.13
-21.59
20.19
60.52
96.24
125.34
147.14
162.13
171.45
176.47
178.45
178.34
176.73
173.84
169.61
163.92
156.76
148.24
138.42
126.96
113.02
95.60
74.25
49.62
23.60
-1.23
-22.51
-38.88
-50.27
-57.83
-63.33
-68.70
-75.42
-84.15
-94.35
-104.15
-110.51
-109.87
-99.14
-76.74
-43.22
-1.15
45.52
92.54
136.37
174.74
206.83
232.91
253.84
270.38
282.74
290.42
292.34
287.14
273.74
251.71
221.72
185.56
145.96
106.10
69.00
36.99
11.25
-8.22
-22.64
-33.97
-44.48
-56.12
-70.04
-86.37
-104.25
-122.35
-139.30
-154.12
-166.50
-176.70
-185.30
-192.89
-199.65
-205.06
-207.73
-205.54
-196.34
-178.53
-151.87
-117.72
-78.85
-38.87
-1.47
30.21
54.07
69.22
76.11
76.47
72.86
68.00
64.04
61.88
61.15
60.56
58.67
54.55
48.11
39.97
31.00
21.87
12.67
2.99
-7.96
-20.87
-36.09
-53.38
-71.92
-90.57
-108.30
-124.60
-139.63
-154.10
-168.81
-184.07
-199.17
-212.33
-220.77
-221.40
-211.69
-190.54
-158.94
-119.93
-77.99
-37.82
-3.14
24.00
43.45
56.25
64.03
68.26
70.07
70.06
68.37
64.67
58.42
49.29
37.72
25.28
14.49
8.08
7.90
14.18
25.34
38.62
50.97
59.86
63.74
61.94
54.42
41.42
23.35
0.92
-24.62
-51.25
-76.25
-96.40
-108.74
-111.22
-103.27
-85.76
-60.68
-30.49
2.17
34.77
64.83
90.11
109.14
121.84
129.88
136.48
145.29
159.01
178.22
201.22
224.78
245.47
260.81
269.61
271.72
267.44
257.52
243.40
227.69
214.00
205.80
204.88
210.02
217.01
220.21
214.88
199.11
174.37
144.40
113.36
84.25
58.47
36.09
16.55
-0.85
-16.87
-32.31
-47.75
-63.06
-77.00
-87.28
-91.17
-86.29
-71.39
-46.61
-13.55
24.84
64.41
100.04
126.39
139.17
136.65
120.72
96.77
72.29
54.62
48.69
55.63
72.72
94.72
115.93
131.95
140.85
143.04
140.30
134.45
126.26
115.18
99.77
78.69
51.62
19.66
-14.87
-49.21
-80.90
-108.31
-130.64
-147.59
-159.09
-165.10
-165.93
-162.57
-156.62
-149.86
-143.27
-136.21
-126.44
-110.96
-87.86
-57.80
-24.49
6.39
29.13
40.05
38.36
25.78
5.27
-20.27
-48.73
-78.66
-108.69
-137.18
-162.26
-182.27
-196.23
-204.05
-206.33
-203.76
-196.73
-185.15
-168.85
-148.37
-125.61
-103.99
-87.86
-81.31
-86.70
-103.46
-127.67
-152.59
-170.28
-173.88
-159.89
-129.69
-89.51
-48.66
-16.52
0.40
0.25
-13.96
-35.96
-58.10
-73.07
-74.87
-59.40
-25.19
25.64
86.86
148.86
200.70
233.24
241.84
227.42
195.35
152.68
105.08
55.08
2.15
-55.78
-120.09
-189.83
-261.18
-328.26
-384.70
-425.45
-448.13
-453.50
-445.08
-427.72
-406.31
-384.64
-364.93
-348.15
-334.59
-324.14
-316.37
-310.28
-304.26
-296.31
-284.75
-268.82
-248.95
-226.51
-203.23
-180.49
-158.93
-138.41
-118.48
-98.77
-79.43
-61.17
-45.06
-32.01
-22.45
-16.08
-12.02
-9.06
-6.14
-2.59
1.73
6.53
11.28
15.43
18.60
20.60
21.37
20.92
19.21
16.16
11.66
5.63
-1.89
-10.72
-20.55
-30.97
-41.48
-51.58
-60.77
-68.60
-74.69
-78.73
-80.52
-79.90
-76.82
-71.23
-63.17
-52.71
-40.04
-25.47
-9.46
7.36
24.35
40.85
56.35
70.55
83.32
94.66
104.54
112.88
119.46
124.05
126.53
127.11
126.37
125.12
124.25
124.39
125.73
128.00
130.66
133.26
135.71
138.43
142.23
147.90
155.87
165.86
177.02
188.27
198.80
208.39
217.54
227.19
238.41
252.14
269.16
289.89
313.98
339.79
364.08
382.32
389.94
383.81
363.53
331.43
291.57
248.05
203.77
160.32
118.84
81.13
50.16
29.42
21.65
27.57
45.52
72.11
103.44
136.15
167.94
197.47
223.82
246.12
263.39
274.68
279.17
276.22
265.41
246.56
219.71
185.06
142.93
93.77
38.50
-21.16
-82.17
-140.27
-190.53
-228.52
-251.60
-259.71
-255.32
-242.49
-225.34
-206.72
-187.65
-167.62
-145.73
-121.77
-96.82
-72.87
-51.76
-34.22
-19.35
-5.12
10.40
28.02
47.01
65.57
81.88
94.92
104.76
112.08
117.52
121.21
122.83
122.05
119.07
114.72
110.37
107.48
106.95
108.96
112.79
117.19
120.79
122.62
122.33
120.08
116.30
111.22
104.78
96.52
85.94
72.79
57.41
40.99
25.50
13.55
7.81
10.48
22.59
43.67
71.79
103.92
136.70
167.00
192.47
211.69
224.21
230.48
231.64
229.31
225.22
220.92
217.50
215.43
214.60
214.40
213.93
212.29
208.81
203.22
195.78
187.02
177.54
167.58
156.94
145.11
131.55
116.06
98.94
80.82
62.37
44.15
26.55
10.05
-4.74
-17.20
-27.12
-35.15
-42.92
-52.59
-66.03
-83.97
-105.65
-129.16
-152.31
-173.57
-192.64
-210.41
-228.44
-248.54
-272.57
-302.16
-338.22
-379.89
-423.55
-462.61
-488.77
-494.38
-475.14
-431.69
-369.29
-295.90
-219.49
-146.18
-79.76
-22.33
24.62
59.69
81.89
91.42
90.11
81.11
67.84
52.70
36.30
17.40
-5.94
-34.88
-68.43
-103.07
-133.63
-155.07
-164.41
-161.81
-150.36
-134.70
-119.26
-106.83
-98.13
-92.38
-88.32
-85.09
-82.64
-81.35
-81.40
-82.31
-82.93
-81.89
-78.39
-72.74
-66.44
-61.77
-60.96
-65.34
-74.70
-87.19
-99.71
-108.63
-110.64
-103.52
-86.57
-60.72
-28.11
8.47
46.25
82.98
117.13
147.85
174.70
197.45
215.89
229.89
239.49
244.91
246.50
244.67
239.67
231.57
220.36
206.12
189.19
170.22
150.01
129.39
108.92
88.84
69.08
49.43
29.74
10.06
-9.39
-28.25
-46.26
-63.32
-79.32
-93.99
-106.66
-116.33
-121.93
-122.70
-118.50
-109.90
-97.98
-84.08
-69.61
-55.89
-44.27
-35.94
-31.79
-32.13
-36.50
-43.62
-51.68
-58.87
-63.85
-66.16
-66.34
-65.68
-65.72
-67.70
-72.12
-78.57
-85.85
-92.41
-96.87
-98.52
-97.55
-95.03
-92.67
-92.18
-94.66
-100.00
-106.78
-112.52
-114.43
-110.14
-98.37
-79.10
-53.45
-23.26
9.28
41.90
72.45
99.05
120.21
135.01
143.17
145.02
141.39
133.36
122.07
108.50
93.42
77.33
60.52
43.21
25.67
8.39
-8.03
-22.99
-36.09
-47.43
-57.54
-67.26
-77.50
-88.98
-102.04
-116.59
-132.10
-147.53
-161.38
-171.80
-177.01
-175.75
-167.76
-153.80
-135.40
-114.33
-92.13
-69.83
-48.09
-27.41
-8.33
8.50
22.54
33.51
41.48
46.85
50.18
52.02
52.69
52.25
50.47
47.00
41.53
34.11
25.18
15.60
6.34
-1.74
-8.21
-13.09
-16.77
-19.90
-23.20
-27.38
-32.97
-40.09
-48.14
-55.57
-59.99
-58.56
-48.76
-29.18
-0.10
36.49
77.29
118.49
156.67
189.41
215.64
235.52
250.04
260.45
267.79
272.64
275.09
274.99
272.19
266.69
258.69
248.52
236.62
223.56
210.06
196.89
184.73
173.92
164.38
155.70
147.32
138.78
129.72
119.79
108.48
95.08
78.87
59.62
38.01
15.91
-3.92
-18.50
-25.47
-23.78
-13.88
2.51
22.91
44.51
64.56
80.60
90.66
93.53
88.98
77.77
61.46
42.15
21.97
2.86
-13.69
-26.73
-36.01
-41.99
-45.67
-48.30
-50.82
-53.60
-56.31
-58.23
-58.60
-57.03
-53.62
-48.92
-43.71
-38.80
-34.89
-32.44
-31.59
-32.18
-33.78
-35.80
-37.82
-39.78
-42.00
-45.13
-49.83
-56.47
-65.01
-75.06
-86.12
-97.73
-109.51
-121.01
-131.64
-140.71
-147.66
-152.38
-155.33
-157.32
-159.13
-161.05
-162.70
-163.22
-161.71
-157.68
-151.23
-142.97
-133.72
-124.26
-115.17
-106.86
-99.69
-93.94
-89.74
-86.97
-85.28
-84.11
-82.88
-81.19
-78.84
-75.82
-72.16
-67.81
-62.59
-56.39
-49.24
-41.55
-33.95
-27.13
-21.59
-17.45
-14.45
-12.16
-10.26
-8.76
-7.94
-8.11
-9.38
-11.47
-13.77
-15.62
-16.56
-16.53
-15.79
-14.75
-13.80
-13.29
-13.58
-15.01
-17.87
-22.24
-27.82
-33.97
-39.95
-45.24
-49.82
-54.09
-58.59
-63.56
-68.60
-72.73
-74.71
-73.54
-68.83
-60.84
-50.33
-38.16
-24.95
-11.05
3.36
17.93
31.85
43.83
52.40
56.43
55.58
50.57
42.97
34.60
26.94
20.70
15.79
11.70
7.91
4.25
0.94
-1.72
-3.54
-4.68
-5.57
-6.70
-8.40
-10.73
-13.58
-16.81
-20.36
-24.34
-28.97
-34.32
-40.26
-46.23
-51.34
-54.50
-54.80
-51.63
-44.96
-35.25
-23.32
-10.12
3.44
16.62
28.76
39.34
47.92
54.25
58.27
60.18
60.34
59.24
57.37
55.21
53.13
51.44
50.24
49.45
48.73
47.63
45.68
42.63
38.43
33.28
27.46
21.28
14.98
8.76
2.70
-3.11
-8.69
-14.03
-19.07
-23.67
-27.58
-30.49
-32.14
-32.43
-31.48
-29.66
-27.42
-25.15
-23.09
-21.21
-19.35
-17.33
-15.20
-13.28
-12.14
-12.35
-14.21
-17.60
-21.94
-26.43
-30.30
-33.06
-34.54
-34.76
-33.85
-31.86
-28.83
-24.89
-20.33
-15.61
-11.31
-7.98
-5.99
-5.49
-6.45
-8.71
-12.01
-15.94
-19.80
-22.67
-23.59
-21.83
-17.21
-10.24
-1.98
6.28
13.38
18.59
21.58
22.27
20.69
16.79
10.59
2.41
-7.09
-16.87
-25.76
-32.84
-37.71
-40.60
-42.08
-42.84
-43.30
-43.56
-43.51
-43.08
-42.51
-42.33
-43.15
-45.53
-49.71
-55.69
-63.32
-72.41
-82.58
-93.13
-102.82
-110.03
-113.04
-110.80
-103.29
-91.67
-77.94
-64.14
-51.82
-41.47
-32.68
-24.38
-15.42
-4.99
7.06
20.12
33.00
44.28
52.78
57.87
59.68
58.97
56.93
54.83
53.86
54.92
58.53
64.66
72.64
81.18
88.63
93.31
93.93
89.87
81.32
69.18
55.10
41.24
30.08
23.93
24.32
31.45
43.87
58.69
72.31
81.40
83.81
79.04
68.18
53.38
37.10
21.62
8.69
-0.60
-5.78
-7.00
-5.01
-0.97
3.83
8.27
11.68
13.80
14.56
13.92
11.80
8.17
3.29
-2.27
-7.84
-12.99
-17.78
-22.80
-28.89
-36.68
-46.37
-57.60
-69.63
-81.55
-92.55
-102.04
-109.66
-115.20
-118.36
-118.79
-115.97
-109.49
-99.46
-86.69
-72.78
-59.71
-49.32
-42.57
-39.39
-38.73
-39.02
-38.72
-36.60
-32.00
-24.72
-15.11
-4.05
7.12
16.73
23.18
25.40
23.18
17.22
8.94
-0.11
-8.68
-16.16
-22.52
-28.11
-33.38
-38.47
-43.17
-46.83
-48.39
-46.75
-40.95
-30.67
-16.44
0.27
17.53
33.51
46.96
57.36
64.48
67.89
66.65
59.74
46.71
28.42
7.19
-13.88
-31.99
-45.69
-55.15
-61.81
-67.36
-72.93
-78.72
-84.08
-88.02
-89.52
-87.70
-81.98
-72.31
-59.61
-45.91
-34.21
-27.73
-28.72
-37.66
-52.97
-71.66
-90.55
-107.39
-121.43
-133.38
-144.77
-157.39
-172.77
-191.70
-213.93
-237.69
-259.79
-276.18
-283.16
-278.62
-262.92
-238.73
-210.06
-180.88
-154.07
-131.02
-111.86
-96.16
-83.26
-72.60
-63.54
-55.33
-47.28
-38.89
-30.13
-21.43
-13.58
-7.31
-3.08
-0.87
-0.26
-0.72
-1.74
-3.12
-4.93
-7.41
-10.74
-14.84
-19.30
-23.45
-26.55
-27.92
-27.18
-24.28
-19.39
-12.86
-5.04
3.77
13.37
23.59
34.24
45.07
55.76
65.97
75.38
83.75
90.97
97.00
101.88
105.66
108.36
109.97
110.43
109.68
107.67
104.43
100.02
94.57
88.23
81.20
73.64
65.71
57.56
49.32
41.16
33.24
25.76
18.90
12.82
7.61
3.30
-0.14
-2.72
-4.44
-5.21
-4.91
-3.43
-0.77
2.95
7.45
12.38
17.45
22.54
27.74
33.32
39.62
46.84
54.99
63.81
72.91
81.98
90.93
100.05
109.84
120.85
133.41
147.45
162.57
178.18
193.77
209.09
224.25
239.63
255.77
273.42
293.40
316.30
342.03
369.19
394.96
415.49
427.03
427.12
415.44
393.78
365.29
333.35
300.73
269.28
240.13
213.94
191.06
171.41
154.33
138.69
123.30
107.37
90.78
73.98
57.66
42.28
27.73
13.32
-2.07
-19.38
-38.89
-59.61
-79.17
-94.14
-100.97
-97.10
-81.97
-57.44
-27.28
3.91
32.09
54.73
71.12
81.94
88.45
91.71
92.27
90.14
85.24
77.69
68.08
57.35
46.56
36.60
27.96
20.71
14.56
9.09
3.87
-1.46
-7.02
-12.89
-19.06
-25.59
-32.61
-40.30
-48.93
-58.81
-70.23
-83.33
-97.80
-112.66
-126.07
-135.53
-138.43
-132.86
-118.33
-96.13
-69.07
-40.68
-14.27
7.89
24.90
37.05
45.30
50.84
54.68
57.57
59.99
62.17
64.03
65.16
64.82
62.24
56.93
49.11
39.82
30.72
23.60
19.78
19.55
22.03
25.41
27.50
26.41
21.15
11.91
-0.16
-13.30
-25.87
-36.80
-45.88
-53.66
-60.96
-68.28
-75.36
-81.12
-83.92
-82.14
-74.73
-61.52
-43.20
-21.05
3.33
28.22
51.76
71.97
86.84
94.57
94.07
85.42
70.07
50.80
31.20
14.90
4.68
1.81
5.75
14.46
25.04
34.54
40.73
42.41
39.52
32.87
23.82
13.98
4.83
-2.55
-7.76
-11.16
-13.76
-16.87
-21.69
-29.00
-39.05
-51.68
-66.50
-82.90
-99.73
-115.05
-126.16
-130.13
-124.71
-109.35
-85.60
-56.83
-27.24
-0.75
19.89
33.38
39.79
40.23
36.51
30.83
25.37
21.84
21.04
22.68
25.44
27.54
27.27
23.56
16.20
5.95
-5.53
-15.99
-23.11
-25.21
-21.86
-14.35
-5.41
1.53
3.41
-1.54
-13.45
-30.94
-51.71
-73.14
-92.72
-108.24
-117.97
-120.98
-117.48
-108.99
-98.00
-87.22
-78.48
-72.15
-67.02
-61.02
-52.15
-39.27
-22.48
-2.83
18.10
38.64
57.29
72.73
83.83
89.68
89.76
84.11
73.37
58.79
42.14
25.51
11.07
0.68
-4.45
-4.06
1.06
9.29
18.53
26.70
32.05
33.39
30.14
22.32
10.49
-4.33
-20.74
-37.23
-52.43
-65.31
-75.37
-82.53
-87.02
-89.10
-88.95
-86.41
-81.09
-72.44
-60.12
-44.24
-25.63
-5.74
13.68
31.08
45.54
56.90
65.56
72.10
76.81
79.64
80.21
78.21
73.67
67.04
59.10
50.70
42.59
35.39
29.60
25.63
23.66
23.52
24.58
25.88
26.35
25.20
22.07
17.02
10.39
2.59
-5.97
-14.89
-23.71
-31.94
-39.27
-45.71
-51.66
-57.71
-64.24
-71.00
-76.97
-80.53
-80.02
-74.39
-63.69
-49.21
-33.06
-17.58
-4.72
4.41
9.57
11.16
9.92
6.65
2.06
-3.20
-8.56
-13.53
-17.75
-20.97
-23.04
-23.92
-23.58
-22.07
-19.60
-16.56
-13.58
-11.37
-10.52
-11.35
-13.79
-17.42
-21.61
-25.71
-29.19
-31.72
-33.29
-34.18
-35.02
-36.66
-39.87
-44.92
-51.16
-57.06
-60.52
-59.62
-53.37
-42.07
-27.13
-10.52
6.01
21.38
35.19
47.34
57.66
65.60
70.44
71.62
69.06
63.36
55.58
46.94
38.59
31.42
26.06
22.98
22.39
24.17
27.72
31.99
35.69
37.61
37.03
33.79
28.30
21.25
13.33
5.04
-3.42
-12.04
-21.00
-30.49
-40.54
-50.81
-60.43
-67.98
-71.81
-70.54
-63.53
-51.25
-35.22
-17.48
-0.10
15.35
28.01
37.56
44.03
47.52
48.14
46.06
41.62
35.31
27.76
19.61
11.47
3.89
-2.65
-7.82
-11.42
-13.45
-14.17
-13.99
-13.43
-12.93
-12.81
-13.19
-14.10
-15.50
-17.40
-19.91
-23.31
-27.97
-34.30
-42.45
-51.93
-61.45
-68.95
-72.13
-69.25
-59.76
-44.61
-25.98
-6.50
11.48
26.46
37.89
45.90
50.93
53.42
53.70
52.01
48.60
43.74
37.73
30.97
23.92
17.13
11.14
6.35
2.93
0.72
-0.72
-1.95
-3.51
-5.77
-8.82
-12.55
-16.73
-21.18
-25.83
-30.78
-36.28
-42.61
-49.95
-58.04
-65.96
-72.11
-74.50
-71.41
-62.00
-46.80
-27.60
-6.90
12.84
29.80
43.08
52.52
58.40
61.13
61.11
58.69
54.26
48.25
41.12
33.31
25.34
17.68
10.83
5.15
0.75
-2.48
-4.87
-6.79
-8.52
-10.27
-12.13
-14.24
-16.71
-19.70
-23.31
-27.68
-32.98
-39.42
-47.07
-55.62
-64.10
-70.87
-73.90
-71.48
-62.74
-48.15
-29.35
-8.70
11.32
28.73
42.38
51.89
57.53
59.85
59.50
57.02
52.87
47.42
41.07
34.20
27.26
20.62
14.59
9.39
5.15
1.91
-0.42
-2.06
-3.39
-4.82
-6.70
-9.21
-12.31
-15.81
-19.40
-22.88
-26.21
-29.66
-33.79
-39.24
-46.32
-54.63
-62.82
-68.77
-70.21
-65.50
-54.31
-37.78
-18.16
1.92
20.23
35.37
46.85
54.76
59.41
61.17
60.36
57.42
52.96
47.66
42.14
36.74
31.50
26.25
20.86
15.43
10.39
6.30
3.53
2.07
1.40
0.66
-1.03
-4.21
-8.98
-14.94
-21.45
-27.83
-33.63
-38.69
-43.12
-47.32
-51.83
-57.16
-63.48
-70.30
-76.31
-79.61
-78.21
-70.81
-57.33
-39.04
-18.19
2.73
21.61
37.17
48.92
56.88
61.30
62.51
60.88
56.98
51.53
45.41
39.36
33.86
28.98
24.48
19.95
15.09
9.92
4.74
-0.01
-4.02
-7.28
-10.20
-13.39
-17.40
-22.49
-28.48
-34.87
-41.02
-46.41
-50.80
-54.33
-57.51
-61.13
-65.97
-72.52
-80.55
-88.85
-95.30
-97.35
-92.78
-80.51
-60.96
-35.96
-8.12
19.91
46.02
68.77
87.28
100.94
109.32
112.27
110.13
103.85
94.93
85.10
75.89
68.32
62.65
58.49
55.04
51.38
46.80
40.96
33.89
25.99
17.88
10.28
3.90
-0.73
-3.33
-4.01
-3.16
-1.48
0.16
0.73
-0.78
-5.36
-13.69
-25.98
-41.67
-59.25
-76.41
-90.40
-98.58
-99.11
-91.46
-76.57
-56.59
-34.30
-12.36
7.34
23.91
37.27
47.76
55.63
60.87
63.27
62.67
59.30
53.76
46.85
39.30
31.52
23.68
15.91
8.51
2.09
-2.63
-5.12
-5.37
-3.97
-2.01
-0.63
-0.73
-2.64
-6.21
-10.95
-16.39
-22.20
-28.45
-35.42
-43.51
-52.99
-63.77
-75.17
-85.84
-93.85
-97.16
-94.19
-84.38
-68.52
-48.51
-26.89
-6.07
12.17
26.91
37.96
45.52
49.89
51.37
50.25
46.95
42.07
36.28
30.26
24.52
19.33
14.79
10.83
7.45
4.75
2.95
2.28
2.74
4.05
5.60
6.68
6.70
5.38
2.83
-0.58
-4.44
-8.52
-12.90
-17.92
-24.04
-31.61
-40.54
-50.10
-58.86
-64.89
-66.28
-61.71
-50.94
-34.95
-15.63
4.75
24.14
41.02
54.48
64.03
69.42
70.61
67.81
61.62
53.03
43.23
33.33
24.17
16.25
9.72
4.63
0.96
-1.31
-2.35
-2.51
-2.37
-2.60
-3.79
-6.25
-9.88
-14.26
-18.83
-23.12
-26.95
-30.51
-34.35
-39.18
-45.61
-53.72
-62.77
-71.12
-76.52
-76.84
-70.70
-58.16
-40.62
-20.47
-0.26
17.93
32.86
44.09
51.67
55.86
56.91
55.05
50.53
43.75
35.27
25.87
16.43
7.84
0.83
-4.24
-7.40
-9.07
-9.87
-10.34
-10.91
-11.75
-12.88
-14.22
-15.71
-17.30
-19.00
-20.89
-23.14
-26.11
-30.15
-35.53
-41.98
-48.49
-53.39
-54.68
-50.75
-41.04
-26.35
-8.64
9.58
26.01
39.14
48.38
53.88
56.10
55.54
52.59
47.61
40.99
33.29
25.28
17.77
11.54
7.06
4.47
3.46
3.45
3.68
3.48
2.40
0.32
-2.60
-6.08
-9.89
-13.95
-18.35
-23.35
-29.18
-36.05
-43.94
-52.53
-60.92
-67.69
-71.01
-69.15
-61.05
-46.83
-27.89
-6.59
14.45
33.05
47.87
58.55
65.30
68.58
68.83
66.32
61.35
54.37
46.08
37.43
29.39
22.72
17.73
14.28
11.83
9.76
7.56
5.01
2.16
-0.85
-3.93
-7.10
-10.56
-14.59
-19.51
-25.60
-33.07
-41.88
-51.55
-60.99
-68.61
-72.50
-71.07
-63.47
-50.04
-32.22
-12.23
7.55
25.18
39.49
50.07
57.11
60.98
62.07
60.71
57.23
52.11
45.98
39.53
33.33
27.74
22.84
18.55
14.72
11.29
8.25
5.58
3.21
0.99
-1.29
-3.86
-6.89
-10.51
-14.83
-20.01
-26.21
-33.52
-41.74
-50.24
-57.80
-62.77
-63.49
-58.81
-48.47
-33.33
-15.10
4.11
22.33
38.10
50.56
59.41
64.67
66.65
65.78
62.62
57.79
51.90
45.51
39.03
32.79
26.97
21.72
17.12
13.20
9.88
7.02
4.37
1.64
-1.41
-4.95
-9.00
-13.45
-18.10
-22.71
-27.12
-31.30
-35.43
-39.91
-45.21
-51.63
-58.90
-66.05
-71.40
-73.02
-69.34
-59.74
-44.81
-26.19
-6.09
13.35
30.54
44.60
55.22
62.48
66.60
67.86
66.62
63.34
58.66
53.24
47.72
42.50
37.75
33.42
29.41
25.76
22.63
20.26
18.74
17.89
17.20
15.92
13.40
9.26
3.60
-3.04
-9.94
-16.41
-22.11
-27.04
-31.52
-36.06
-41.19
-47.17
-53.89
-60.66
-66.14
-68.58
-66.29
-58.24
-44.57
-26.65
-6.70
12.94
30.46
44.99
56.42
65.04
71.11
74.71
75.77
74.36
70.86
66.05
60.98
56.74
54.14
53.49
54.43
56.08
57.33
57.31
55.84
53.57
51.67
51.39
53.37
57.30
62.06
66.21
68.74
69.61
69.93
71.62
76.81
86.95
102.19
120.98
140.36
156.69
166.74
168.83
163.27
152.07
138.03
123.50
109.54
95.73
80.63
62.39
39.61
12.31
-16.98
-42.68
-56.86
-51.76
-23.24
26.46
88.42
150.01
199.70
231.36
245.85
249.03
247.80
246.53
245.85
244.01
239.37
232.10
224.16
217.74
213.59
210.31
204.97
194.53
177.33
153.79
126.12
97.27
69.53
43.84
19.57
-4.91
-31.27
-60.53
-93.03
-128.73
-167.33
-207.90
-248.02
-283.42
-308.44
-317.53
-307.07
-276.61
-229.11
-170.04
-106.07
-43.81
11.00
54.08
83.00
97.51
99.51
92.46
80.36
66.66
53.64
42.33
32.89
25.04
18.01
10.75
2.14
-8.55
-21.24
-34.88
-47.85
-58.70
-66.78
-72.73
-78.14
-85.03
-94.88
-108.05
-123.63
-139.93
-155.21
-168.47
-179.94
-190.87
-203.21
-219.17
-240.72
-268.99
-303.32
-340.57
-374.89
-398.94
-406.08
-392.99
-361.34
-317.52
-270.44
-228.46
-196.81
-176.77
-166.48
-162.73
-162.51
-163.52
-163.87
-161.57
-154.49
-140.95
-120.60
-94.79
-66.41
-39.03
-15.64
2.17
14.46
22.61
28.62
34.40
41.23
49.45
58.56
67.39
74.46
78.39
78.34
74.14
66.22
55.24
41.72
25.85
7.51
-13.33
-36.39
-60.85
-85.46
-108.61
-128.51
-143.31
-151.31
-151.30
-142.94
-127.08
-105.57
-80.93
-55.70
-31.77
-10.30
8.20
23.45
35.20
43.14
47.16
47.54
45.06
40.78
35.73
30.59
25.60
20.63
15.38
9.71
3.75
-2.08
-7.32
-11.78
-15.76
-20.08
-25.78
-33.65
-43.80
-55.52
-67.56
-78.66
-88.16
-96.32
-104.19
-113.21
-124.54
-138.45
-153.91
-168.57
-179.09
-182.03
-174.78
-156.55
-128.77
-94.74
-58.64
-24.28
5.83
30.77
50.75
66.40
78.22
86.43
91.26
93.24
93.33
92.64
92.00
91.63
91.13
89.82
87.13
83.00
77.94
72.74
68.05
64.04
60.17
55.35
48.37
38.41
25.45
10.29
-5.64
-20.87
-34.37
-45.87
-55.89
-65.49
-76.01
-88.60
-103.95
-121.78
-140.49
-157.06
-167.54
-168.04
-156.07
-131.48
-96.66
-55.82
-13.67
25.85
60.29
88.63
110.80
127.02
137.55
142.73
143.18
140.03
134.72
128.82
123.60
119.76
117.32
115.76
114.35
112.46
109.83
106.59
103.02
99.24
94.89
89.17
81.07
69.82
55.31
38.17
19.54
0.70
-17.46
-34.65
-51.20
-67.86
-85.57
-105.14
-127.01
-150.88
-175.23
-197.14
-212.61
-217.47
-208.74
-185.73
-150.54
-107.50
-61.93
-18.62
19.17
49.98
73.64
90.60
101.31
106.13
105.54
100.43
92.24
82.78
73.74
66.31
60.82
56.90
53.83
51.07
48.57
46.79
46.26
47.07
48.58
49.40
47.87
42.73
33.65
21.44
7.69
-5.78
-17.64
-27.47
-35.84
-44.05
-53.69
-66.14
-81.89
-100.18
-118.70
-133.86
-141.52
-138.09
-121.72
-92.98
-54.87
-11.90
31.01
69.80
101.84
126.05
142.55
152.06
155.64
154.43
149.73
142.95
135.47
128.39
122.22
116.83
111.60
105.91
99.49
92.64
86.02
80.25
75.39
70.77
65.21
57.56
47.16
34.14
19.29
3.70
-11.63
-26.09
-39.61
-52.55
-65.73
-80.15
-96.61
-115.18
-134.52
-151.74
-162.77
-163.50
-151.18
-125.55
-89.15
-46.66
-3.53
35.44
66.95
89.45
102.69
107.16
103.88
94.39
80.95
66.39
53.68
45.18
41.99
43.77
49.01
55.82
62.67
68.77
73.94
78.14
81.06
81.82
79.33
72.69
61.75
47.23
