1520863740.00
64.000000
-0.00
-0.00
-0.00
-0.00
-0.00
-0.00
-0.00
-0.00
-0.00
-0.00
0.00
0.01
0.01
-0.00
-0.03
-0.05
-0.05
0.00
0.13
0.36
0.66
1.01
1.37
1.72
2.06
2.40
2.79
3.24
3.80
4.42
5.06
5.66
6.20
6.68
7.15
7.68
8.31
9.14
10.09
11.04
11.88
12.56
13.14
13.76
14.65
15.96
17.91
20.32
22.90
25.38
27.58
29.57
31.68
34.32
37.81
42.54
48.15
54.10
59.83
64.97
69.58
74.14
79.34
85.71
93.76
103.00
112.62
121.73
129.77
136.75
143.30
150.75
157.77
166.64
177.95
191.79
206.97
220.57
228.25
225.36
208.53
176.87
132.76
80.05
23.07
-34.94
-92.44
-149.16
-205.23
-260.37
-313.74
-363.87
-409.83
-450.91
-486.50
-515.74
-537.23
-549.22
-549.96
-538.37
-514.21
-478.67
-433.88
-382.45
-327.02
-269.84
-212.63
-156.66
-102.95
-52.37
-5.90
35.58
71.43
101.35
125.50
144.38
158.69
169.15
176.37
180.75
182.57
182.07
179.51
175.23
169.65
163.18
156.15
148.81
141.30
133.69
126.02
118.33
110.69
103.16
95.80
88.68
81.83
75.25
68.95
62.95
57.25
51.86
46.78
42.03
37.59
33.45
29.61
26.07
22.81
19.83
17.11
14.67
12.48
10.54
8.83
7.35
6.07
4.97
4.05
3.27
2.62
2.09
1.65
1.30
1.01
0.79
0.61
0.47
0.37
0.29
0.23
0.18
0.16
0.14
0.14
0.14
0.15
0.17
0.20
0.23
0.27
0.31
0.35
0.39
0.43
0.48
0.52
0.57
0.63
0.68
0.74
0.80
0.87
0.94
1.02
1.11
1.22
1.33
1.46
1.60
1.76
1.94
2.15
2.37
2.61
2.88
3.19
3.51
3.87
4.27
4.69
5.16
5.66
6.19
6.77
7.38
8.04
8.74
9.49
10.28
11.12
12.00
12.92
13.89
14.93
16.03
17.20
18.41
19.67
20.92
22.12
23.17
23.98
24.43
24.39
23.76
22.46
20.44
17.71
14.35
10.44
6.18
1.75
-2.63
-6.73
-10.39
-13.43
-15.76
-17.34
-18.16
-18.27
-17.78
-16.82
-15.50
-13.94
-12.25
-10.50
-8.74
-6.98
-5.21
-3.48
-1.76
-0.06
1.65
3.41
5.24
7.16
9.17
11.35
13.58
15.84
18.15
20.54
23.07
25.77
28.68
31.86
35.43
39.17
43.02
46.98
51.11
55.45
60.06
64.96
70.20
75.92
81.73
87.49
93.19
98.88
104.65
110.48
116.33
122.11
127.86
132.97
137.21
140.56
143.03
144.46
144.32
141.47
133.87
123.98
112.21
98.92
84.65
69.97
55.35
40.96
26.60
11.86
-3.54
-20.28
-38.28
-56.94
-75.43
-92.99
-109.32
-124.51
-139.02
-153.43
-168.93
-186.52
-206.76
-229.34
-252.51
-273.05
-286.96
-290.79
-283.04
-265.30
-241.17
-214.86
-189.54
-166.39
-144.95
-124.16
-103.54
-83.67
-65.87
-51.25
-40.12
-32.06
-26.40
-22.70
-20.80
-20.49
-21.13
-21.58
-20.51
-16.97
-10.81
-2.76
5.95
14.09
20.82
25.83
29.20
31.22
32.19
32.43
32.26
32.12
32.31
32.98
34.03
35.15
35.92
36.03
35.42
34.24
32.85
31.59
30.63
29.81
28.68
26.62
23.01
17.58
10.47
2.24
-6.24
-14.02
-20.30
-24.54
-26.58
-26.67
-25.37
-23.53
-21.98
-21.39
-22.05
-23.78
-26.06
-28.16
-29.50
-29.72
-28.83
-27.05
-24.73
-22.21
-19.71
-17.33
-15.13
-13.19
-11.64
-10.62
-10.16
-10.17
-10.40
-10.59
-10.62
-10.62
-11.01
-12.25
-14.71
-18.42
-22.98
-27.66
-31.60
-34.05
-34.60
-33.34
-30.69
-27.32
-23.81
-20.35
-16.70
-12.33
-6.75
0.12
7.80
15.45
22.20
27.56
31.54
34.56
37.07
39.35
41.38
42.99
44.03
44.50
44.42
43.78
42.40
40.09
36.76
32.56
27.75
22.64
17.40
12.06
6.67
1.52
-2.89
-5.93
-7.10
-6.33
-3.95
-0.62
2.95
6.20
8.86
10.81
12.05
12.57
12.35
11.45
10.02
8.33
6.67
5.27
4.19
3.35
2.56
1.69
0.63
-0.61
-1.96
-3.33
-4.67
-5.98
-7.33
-8.88
-10.85
-13.52
-17.03
-21.36
-26.23
-31.09
-35.25
-38.07
-39.11
-38.24
-35.63
-31.63
-26.66
-21.17
-15.59
-10.34
-5.85
-2.49
-0.47
0.22
-0.10
-0.88
-1.50
-1.54
-0.85
0.37
1.75
2.89
3.57
3.74
3.42
2.65
1.36
-0.59
-3.32
-6.89
-11.29
-16.42
-22.07
-27.87
-33.25
-37.48
-39.82
-39.76
-37.22
-32.49
-26.29
-19.44
-12.69
-6.63
-1.61
2.22
4.89
6.61
7.70
8.51
9.29
10.17
11.10
11.98
12.71
13.28
13.75
14.27
14.94
15.84
16.94
18.12
19.16
19.68
19.18
17.23
13.60
8.50
2.67
-2.72
-6.47
-7.67
-6.04
-1.92
3.87
10.42
16.97
23.03
28.27
32.42
35.27
36.67
36.67
35.58
33.89
32.13
30.70
29.73
29.10
28.55
27.83
26.80
25.50
24.10
22.79
21.60
20.34
18.63
16.00
12.13
7.03
1.17
-4.62
-9.40
-12.33
-12.99
-11.36
-7.86
-3.14
2.15
7.51
12.64
17.36
21.55
25.00
27.51
28.94
29.34
29.00
28.41
28.03
28.14
28.70
29.41
29.93
30.03
29.79
29.47
29.42
29.83
30.62
31.45
31.78
31.05
28.91
25.42
21.13
17.03
14.27
13.85
16.27
21.36
28.32
35.81
42.27
46.24
46.70
43.42
36.89
28.20
18.52
8.58
-1.50
-12.02
-23.19
-34.79
-45.98
-55.69
-63.12
-68.09
-70.98
-72.37
-72.68
-72.04
-70.42
-67.90
-64.91
-62.20
-60.58
-60.63
-62.41
-65.44
-68.67
-70.81
-70.66
-67.53
-61.52
-53.47
-44.68
-36.34
-29.13
-23.09
-17.81
-12.87
-8.17
-3.98
-0.74
1.26
2.13
2.29
2.29
2.51
2.97
3.43
3.49
2.87
1.51
-0.36
-2.40
-4.31
-5.95
-7.50
-9.31
-11.83
-15.43
-20.29
-26.32
-33.19
-40.33
-47.07
-52.73
-56.63
-58.29
-57.44
-54.09
-48.51
-41.20
-32.74
-23.80
-15.02
-6.97
-0.13
5.24
9.13
11.81
13.74
15.43
17.27
19.39
21.63
23.69
25.30
26.38
27.04
27.55
28.16
28.98
29.91
30.71
31.00
30.38
28.53
25.21
20.39
14.26
7.27
0.18
-6.09
-10.68
-12.92
-12.57
-9.83
-5.26
0.38
6.36
12.14
17.38
21.90
25.53
28.16
29.73
30.30
30.15
29.63
29.14
28.89
28.86
28.83
28.50
27.57
25.97
23.80
21.31
18.80
16.42
14.13
11.65
8.55
4.39
-1.03
-7.57
-14.70
-21.69
-27.79
-32.40
-35.18
-35.97
-34.68
-31.21
-25.55
-17.82
-8.45
1.81
12.02
21.27
28.86
34.51
38.33
40.78
42.42
43.78
45.20
46.84
48.69
50.65
52.62
54.48
56.09
57.31
57.96
57.91
57.03
55.22
52.34
48.24
42.76
35.90
27.90
19.39
11.21
4.27
-0.73
-3.41
-3.81
-2.33
0.52
4.23
8.43
12.88
17.34
21.56
25.16
27.78
29.17
29.35
28.56
27.26
25.90
24.81
24.10
23.65
23.26
22.75
21.97
20.92
19.66
18.26
16.72
15.01
12.98
10.46
7.31
3.41
-1.26
-6.63
-12.50
-18.46
-23.95
-28.24
-30.69
-30.87
-28.78
-24.87
-19.93
-14.76
-9.96
-5.75
-2.04
1.33
4.44
7.18
9.32
10.63
11.12
11.02
10.69
10.49
10.62
11.02
11.48
11.71
11.50
10.81
9.72
8.35
6.78
4.95
2.71
-0.10
-3.65
-8.00
-13.09
-18.86
-25.15
-31.73
-38.17
-43.88
-48.12
-50.23
-49.80
-46.87
-41.90
-35.65
-28.89
-22.25
-16.04
-10.34
-5.09
-0.23
4.23
8.20
11.64
14.50
16.85
18.79
20.42
21.76
22.77
23.38
23.54
23.36
23.04
22.84
22.95
23.31
23.68
23.69
23.07
21.69
19.65
17.07
14.01
10.37
6.05
1.13
-3.97
-8.43
-11.38
-12.13
-10.49
-6.79
-1.73
3.95
9.73
15.32
20.65
25.67
30.21
34.05
36.97
38.93
40.07
40.70
41.15
41.64
42.26
42.93
43.49
43.83
43.90
43.68
43.18
42.34
41.03
39.13
36.57
33.46
30.04
26.62
23.40
20.40
17.49
14.44
11.07
7.27
3.12
-1.24
-5.56
-9.52
-12.77
-14.94
-15.75
-15.11
-13.21
-10.41
-7.21
-4.04
-1.21
1.10
2.82
3.98
4.68
5.06
5.31
5.61
6.09
6.80
7.76
8.97
10.42
12.10
13.93
15.80
17.58
19.12
20.29
20.97
21.01
20.29
18.76
16.50
13.76
10.85
8.05
5.47
3.05
0.59
-2.16
-5.39
-9.15
-13.32
-17.54
-21.32
-24.08
-25.33
-24.80
-22.56
-18.98
-14.69
-10.27
-6.20
-2.74
0.06
2.25
3.89
5.05
5.77
6.14
6.33
6.54
6.98
7.72
8.72
9.77
10.68
11.34
11.76
12.10
12.50
13.00
13.47
13.65
13.25
12.13
10.34
8.14
5.91
3.98
2.49
1.38
0.35
-1.00
-3.01
-5.93
-9.82
-14.48
-19.51
-24.26
-27.94
-29.79
-29.32
-26.50
-21.83
-16.21
-10.57
-5.66
-1.77
1.12
3.18
4.57
5.31
5.39
4.85
3.96
3.12
2.78
3.22
4.43
6.19
8.06
9.63
10.65
11.07
11.02
10.75
10.44
10.15
9.81
9.22
8.20
6.67
4.74
2.55
0.30
-1.89
-4.03
-6.16
-8.37
-10.65
-13.02
-15.46
-18.06
-20.96
-24.19
-27.59
-30.70
-32.81
-33.15
-31.27
-27.21
-21.59
-15.38
-9.57
-4.86
-1.47
0.73
2.00
2.58
2.52
1.86
0.70
-0.69
-1.93
-2.69
-2.83
-2.48
-1.92
-1.50
-1.42
-1.71
-2.27
-2.90
-3.45
-3.83
-4.12
-4.44
-5.01
-6.01
-7.52
-9.46
-11.60
-13.62
-15.23
-16.34
-17.04
-17.59
-18.34
-19.57
-21.40
-23.78
-26.48
-29.08
-31.02
-31.72
-30.72
-27.77
-23.06
-17.10
-10.71
-4.70
0.38
4.25
6.97
8.70
9.62
9.78
9.25
8.18
6.84
5.67
5.05
5.17
5.94
6.99
7.84
8.16
7.85
7.13
6.35
5.84
5.73
5.85
5.83
5.28
3.97
1.92
-0.60
-3.18
-5.51
-7.45
-9.10
-10.71
-12.55
-14.81
-17.57
-20.81
-24.39
-28.09
-31.51
-34.08
-35.15
-34.22
-31.10
-26.07
-19.86
-13.35
-7.40
-2.49
1.17
3.65
5.10
5.66
5.46
4.62
3.38
2.03
0.89
0.18
-0.04
0.14
0.52
0.97
1.38
1.79
2.19
2.56
2.75
2.62
1.98
0.73
-1.12
-3.47
-6.09
-8.74
-11.15
-13.19
-14.81
-16.19
-17.67
-19.66
-22.51
-26.26
-30.68
-35.17
-38.95
-41.21
-41.35
-39.09
-34.58
-28.36
-21.19
-13.94
-7.36
-1.94
2.09
4.75
6.24
6.79
6.67
6.08
5.29
4.56
4.13
4.15
4.60
5.30
5.99
6.49
6.79
7.04
7.41
7.96
8.53
8.74
8.26
6.87
4.71
2.13
-0.44
-2.68
-4.53
-6.11
-7.65
-9.33
-11.30
-13.62
-16.36
-19.53
-23.03
-26.49
-29.31
-30.82
-30.42
-27.95
-23.70
-18.31
-12.57
-7.12
-2.35
1.62
4.78
7.13
8.65
9.32
9.24
8.60
7.72
6.88
6.30
6.05
6.09
6.32
6.64
6.96
7.27
7.57
7.85
8.02
7.91
7.32
6.03
3.99
1.32
-1.66
-4.52
-6.95
-8.81
-10.24
-11.56
-13.14
-15.33
-18.26
-21.89
-25.94
-29.85
-32.95
-34.53
-34.05
-31.36
-26.76
-20.93
-14.68
-8.71
-3.47
0.84
4.17
6.50
7.80
8.10
7.55
6.43
5.09
3.87
2.94
2.37
2.12
2.11
2.29
2.64
3.10
3.63
4.18
4.72
5.18
5.46
5.46
5.02
4.08
2.62
0.80
-1.17
-3.06
-4.77
-6.31
-7.91
-9.85
-12.45
-15.91
-20.11
-24.62
-28.69
-31.47
-32.26
-30.81
-27.30
-22.35
-16.71
-11.02
-5.74
-1.12
2.65
5.42
7.03
7.42
6.72
5.27
3.57
2.20
1.60
2.06
3.58
5.94
8.78
11.74
14.52
16.95
18.92
20.30
20.94
20.70
19.59
17.75
15.44
12.93
10.35
7.71
4.90
1.84
-1.59
-5.49
-9.94
-14.87
-19.94
-24.45
-27.55
-28.43
-26.71
-22.58
-16.69
-9.96
-3.30
2.63
7.45
10.99
13.19
14.12
13.95
12.95
11.53
10.12
9.12
8.76
9.01
9.65
10.33
10.82
11.05
11.13
11.20
11.31
11.31
10.97
10.05
8.43
6.18
3.44
0.41
-2.75
-5.86
-8.83
-11.63
-14.36
-17.27
-20.69
-24.76
-29.31
-33.76
-37.24
-38.84
-37.99
-34.60
-29.08
-22.18
-14.71
-7.40
-0.79
4.80
9.15
12.14
13.75
14.15
13.66
12.74
11.88
11.45
11.58
12.22
13.12
13.96
14.51
14.69
14.58
14.34
14.06
13.62
12.75
11.15
8.69
5.55
2.16
-0.98
-3.54
-5.55
-7.30
-9.29
-12.00
-15.68
-20.30
-25.45
-30.45
-34.42
-36.51
-36.10
-33.06
-27.74
-20.90
-13.40
-6.06
0.54
6.09
10.45
13.59
15.59
16.60
16.90
16.85
16.79
16.94
17.34
17.89
18.38
18.63
18.58
18.26
17.79
17.26
16.71
16.07
15.20
13.97
12.26
10.03
7.31
4.17
0.81
-2.57
-5.73
-8.57
-11.19
-13.92
-17.24
-21.55
-26.87
-32.65
-37.86
-41.22
-41.69
-38.92
-33.30
-25.84
-17.75
-10.00
-3.09
2.83
7.79
11.77
14.62
16.26
16.75
16.47
15.97
15.78
16.17
17.10
18.28
19.31
19.95
20.17
20.14
20.10
20.30
20.83
21.62
22.42
22.86
22.53
21.12
18.52
14.92
10.75
6.56
2.79
-0.35
-2.98
-5.40
-8.04
-11.30
-15.42
-20.45
-26.08
-31.66
-36.24
-38.83
-38.67
-35.56
-29.96
-22.78
-15.11
-7.83
-1.42
4.01
8.53
12.21
15.07
17.03
18.15
18.57
18.61
18.64
18.95
19.70
20.83
22.13
23.36
24.33
24.99
25.44
25.78
26.04
26.15
25.85
24.90
23.10
20.41
16.98
13.10
9.09
5.22
1.66
-1.59
-4.58
-7.47
-10.48
-13.92
-18.04
-22.97
-28.53
-34.10
-38.73
-41.32
-41.01
-37.47
-31.14
-23.04
-14.47
-6.53
0.10
5.25
9.07
11.79
13.59
14.57
14.87
14.74
14.50
14.49
14.90
15.70
16.67
17.59
18.28
18.78
19.20
19.66
20.18
20.63
20.77
20.34
19.18
17.25
14.68
11.68
8.51
5.39
2.44
-0.27
-2.80
-5.34
-8.15
-11.60
-15.98
-21.34
-27.34
-33.19
-37.81
-40.17
-39.66
-36.28
-30.62
-23.64
-16.31
-9.35
-3.13
2.24
6.76
10.44
13.24
15.16
16.20
16.52
16.36
16.02
15.88
16.19
17.00
18.18
19.38
20.26
20.61
20.42
19.88
19.26
18.71
18.21
17.57
16.54
14.92
12.66
9.84
6.66
3.42
0.33
-2.51
-5.12
-7.72
-10.61
-14.10
-18.33
-23.21
-28.24
-32.60
-35.34
-35.65
-33.19
-28.22
-21.51
-14.08
-6.87
-0.47
4.86
9.15
12.42
14.64
15.77
15.88
15.28
14.47
13.98
14.16
15.07
16.45
17.93
19.18
20.06
20.63
21.10
21.61
22.10
22.36
22.07
20.96
18.95
16.17
12.91
9.51
6.24
3.21
0.39
-2.29
-4.92
-7.60
-10.46
-13.72
-17.66
-22.39
-27.70
-32.91
-37.00
-38.95
-38.07
-34.41
-28.63
-21.78
-14.86
-8.48
-2.86
2.03
6.18
9.40
11.39
11.99
11.37
10.10
8.94
8.57
9.26
10.82
12.74
14.46
15.63
16.24
16.49
16.67
16.92
17.22
17.34
17.06
16.18
14.67
12.58
10.06
7.28
4.38
1.55
-1.08
-3.45
-5.63
-7.87
-10.51
-13.89
-18.17
-23.26
-28.66
-33.58
-37.09
-38.37
-37.00
-33.05
-27.08
-19.96
-12.62
-5.79
0.08
4.82
8.42
10.93
12.42
12.98
12.78
12.10
11.29
10.71
10.63
11.15
12.17
13.49
14.86
16.07
17.01
17.69
18.17
18.49
18.67
18.63
18.30
17.58
16.41
14.81
12.86
10.70
8.51
6.46
4.63
2.99
1.41
-0.40
-2.77
-6.04
-10.36
-15.60
-21.24
-26.36
-29.87
-30.83
-28.73
-23.73
-16.59
-8.35
-0.07
7.55
14.20
19.81
24.43
28.04
30.55
31.87
32.06
31.36
30.21
29.11
28.41
28.20
28.30
28.38
28.04
27.11
25.61
23.76
21.75
19.67
17.42
14.81
11.69
8.04
4.02
-0.18
-4.39
-8.52
-12.48
-16.20
-19.56
-22.48
-25.04
-27.50
-30.29
-33.83
-38.33
-43.60
-48.98
-53.51
-56.17
-56.24
-53.48
-48.28
-41.42
-33.83
-26.33
-19.42
-13.38
-8.28
-4.19
-1.19
0.68
1.45
1.35
0.74
0.06
-0.31
-0.13
0.67
2.02
3.70
5.48
7.16
8.65
9.95
11.11
12.17
13.03
13.46
13.22
12.11
10.10
7.36
4.21
0.99
-2.02
-4.70
-7.12
-9.46
-12.01
-15.02
-18.70
-23.08
-27.99
-32.97
-37.31
-40.16
-40.81
-38.83
-34.30
-27.75
-20.04
-12.10
-4.69
1.71
6.91
10.85
13.54
15.03
15.46
15.09
14.32
13.62
13.35
13.67
14.54
15.71
16.91
17.90
18.62
19.10
19.44
19.69
19.77
19.52
18.70
17.21
15.08
12.54
9.88
7.33
4.94
2.60
0.07
-2.82
-6.14
-9.92
-14.10
-18.66
-23.49
-28.26
-32.37
-35.02
-35.47
-33.34
-28.77
-22.38
-15.11
-7.84
-1.28
4.21
8.47
11.48
13.32
14.11
14.02
13.30
12.22
11.06
10.00
9.19
8.68
8.48
8.56
8.89
9.43
10.11
10.76
11.14
10.96
10.02
8.29
5.94
3.32
0.74
-1.55
-3.50
-5.27
-7.12
-9.42
-12.51
-16.61
-21.62
-27.08
-32.17
-35.85
-37.23
-35.84
-31.79
-25.64
-18.27
-10.54
-3.10
3.59
9.26
13.74
16.87
18.59
19.02
18.47
17.36
16.12
15.07
14.35
13.93
13.73
13.68
13.78
14.07
14.56
15.17
15.71
15.94
15.61
14.56
12.76
10.32
7.46
4.43
1.43
-1.44
-4.22
-7.10
-10.37
-14.33
-19.14
-24.69
-30.58
-36.08
-40.34
-42.52
-42.11
-39.00
-33.55
-26.51
-18.77
-11.17
-4.35
1.34
5.80
9.11
11.39
12.83
13.59
13.86
13.85
13.79
13.86
14.16
14.68
15.36
16.13
16.92
17.72
18.47
19.08
19.33
19.02
17.95
16.06
13.43
10.28
6.91
3.57
0.41
-2.59
-5.65
-9.09
-13.24
-18.28
-24.07
-30.10
-35.57
-39.54
-41.23
-40.22
-36.57
-30.80
-23.65
-15.91
-8.25
-1.11
5.25
10.67
15.00
18.11
19.96
20.59
20.27
19.41
18.51
18.00
18.14
18.96
20.27
21.76
23.16
24.29
25.11
25.59
25.74
25.41
24.42
22.61
19.94
16.59
12.85
9.06
5.47
2.12
-1.10
-4.42
-8.12
-12.44
-17.55
-23.48
-29.98
-36.44
-41.94
-45.43
-46.07
-43.52
-38.12
-30.73
-22.44
-14.20
-6.64
-0.03
5.58
10.12
13.53
15.75
16.86
17.21
17.28
17.59
18.47
20.00
21.99
24.10
25.99
27.47
28.45
28.98
29.13
28.94
28.39
27.41
25.88
23.71
20.88
17.51
13.83
10.11
6.60
3.44
0.58
-2.15
-5.03
-8.33
-12.30
-17.01
-22.34
-27.88
-32.95
-36.70
-38.31
-37.23
-33.43
-27.36
-19.83
-11.78
-4.00
2.98
8.83
13.39
16.60
18.51
19.32
19.43
19.32
19.41
20.02
21.17
22.74
24.49
26.18
27.64
28.83
29.72
30.34
30.64
30.52
29.84
28.47
26.39
23.71
20.61
17.37
14.18
11.12
8.17
5.24
2.17
-1.23
-5.17
-9.71
-14.77
-19.96
-24.65
-28.08
-29.59
-28.79
-25.69
-20.63
-14.22
-7.11
0.10
6.94
13.03
18.09
21.96
24.60
26.14
26.86
27.16
27.39
27.77
28.33
28.98
29.59
30.08
30.46
30.75
30.89
30.69
29.88
28.22
25.60
22.07
17.81
13.10
8.17
3.17
-1.87
-6.99
-12.29
-17.88
-23.80
-30.06
-36.53
-42.92
-48.75
-53.38
-56.13
-56.48
-54.25
-49.69
-43.52
-36.58
-29.70
-23.43
-18.00
-13.41
-9.58
-6.43
-3.90
-1.93
-0.41
0.83
1.96
3.08
4.25
5.45
6.66
7.84
8.92
9.84
10.49
10.77
10.57
9.86
8.60
6.81
4.56
1.92
-0.97
-4.04
-7.22
-10.47
-13.78
-17.17
-20.74
-24.61
-28.95
-33.72
-38.58
-42.77
-45.30
-45.20
-41.92
-35.59
-26.98
-17.18
-7.28
2.00
10.36
17.79
24.34
30.01
34.71
38.40
41.17
43.37
45.46
47.98
51.29
55.53
60.56
66.14
72.10
78.39
85.02
91.86
98.34
103.56
106.45
106.23
102.74
96.52
88.61
80.10
71.85
64.27
57.51
51.59
46.45
41.90
37.50
32.58
26.45
18.73
9.66
0.13
-8.61
-15.35
-19.33
-20.47
-19.24
-16.45
-12.90
-9.21
-5.80
-2.92
-0.78
0.40
0.50
-0.50
-2.40
-4.80
-7.18
-9.04
-10.07
-10.19
-9.55
-8.46
-7.27
-6.22
-5.44
-4.93
-4.66
-4.63
-4.96
-5.81
-7.35
-9.66
-12.66
-16.16
-19.88
-23.53
-26.83
-29.57
-31.64
-33.08
-34.13
-35.24
-36.85
-39.17
-41.97
-44.61
-46.15
-45.77
-43.14
-38.48
-32.47
-25.93
-19.55
-13.66
-8.35
-3.60
0.52
3.85
6.23
7.63
8.23
8.41
8.54
8.88
9.47
10.18
10.84
11.35
11.75
12.14
12.64
13.26
13.89
14.29
14.07
12.85
10.35
6.53
1.72
-3.51
-8.47
-12.71
-16.17
-19.22
-22.45
-26.40
-31.29
-36.89
-42.63
-47.71
-51.34
-52.87
-51.97
-48.70
-43.51
-37.09
-30.25
-23.64
-17.71
-12.68
-8.64
-5.62
-3.58
-2.40
-1.87
-1.71
-1.69
-1.68
-1.71
-1.86
-2.13
-2.42
-2.49
-2.16
-1.36
-0.23
0.94
1.78
1.97
1.37
0.01
-1.88
-3.97
-5.95
-7.62
-9.00
-10.25
-11.71
-13.71
-16.46
-19.96
-23.91
-27.74
-30.71
-32.09
-31.36
-28.39
-23.53
-17.44
-10.97
-4.86
0.40
4.59
7.72
9.86
11.06
11.35
10.87
9.91
8.88
8.19
8.12
8.59
9.33
9.92
10.12
9.96
9.64
9.43
9.40
9.36
9.00
8.00
6.24
3.83
1.01
-1.94
-4.83
-7.62
-10.39
-13.32
-16.64
-20.52
-24.94
-29.61
-33.85
-36.85
-37.81
-36.32
-32.45
-26.82
-20.29
-13.76
-7.85
-2.89
1.03
3.85
5.51
5.91
5.07
3.22
0.80
-1.61
-3.57
-4.87
-5.60
-6.08
-6.60
-7.40
-8.51
-9.85
-11.34
-12.90
-14.60
-16.58
-18.95
-21.74
-24.82
-27.91
-30.70
-32.98
-34.66
-35.86
-36.85
-37.96
-39.55
-41.87
-44.92
-48.44
-51.84
-54.34
-55.20
-53.96
-50.62
-45.65
-39.78
-33.80
-28.33
-23.77
-20.28
-17.87
-16.39
-15.57
-15.04
-14.30
-12.92
-10.53
-6.99
-2.43
2.81
8.19
13.19
17.42
20.72
23.15
24.95
26.37
27.47
28.16
28.16
27.19
25.08
21.87
17.75
13.02
7.99
2.85
-2.24
-7.29
-12.36
-17.63
-23.31
-29.52
-36.04
-42.21
-46.98
-49.17
-47.93
-43.09
-35.27
-25.69
-15.66
-6.19
2.21
9.40
15.40
20.18
23.63
25.65
26.30
25.82
24.52
22.72
20.66
18.46
16.24
14.04
11.87
9.69
7.45
5.10
2.68
0.31
-1.90
-3.92
-5.84
-7.87
-10.21
-12.96
-16.16
-19.76
-23.83
-28.62
-34.56
-42.05
-51.20
-61.59
-72.17
-81.54
-88.31
-91.51
-90.90
-86.89
-80.25
-71.86
-62.44
-52.54
-42.67
-33.40
-25.34
-18.94
-14.36
-11.42
-9.66
-8.61
-7.97
-7.63
-7.63
-8.05
-8.92
-10.27
-12.21
-14.98
-18.86
-23.98
-30.20
-37.04
-43.82
-49.87
-54.77
-58.44
-61.13
-63.28
-65.36
-67.70
-70.33
-73.08
-75.51
-77.09
-77.27
-75.54
-71.49
-64.87
-55.69
-44.29
-31.41
-18.00
-5.06
6.77
17.23
26.46
34.74
42.24
48.87
54.38
58.58
61.45
63.28
64.47
65.41
66.38
67.48
68.74
70.14
71.55
72.72
73.20
72.54
70.40
66.68
61.57
55.41
48.48
40.97
32.95
24.40
15.42
6.22
