1520864966.00
64.000000
-0.00
-0.00
-0.00
-0.00
-0.00
-0.00
-0.00
-0.00
-0.00
-0.00
0.00
0.01
0.01
-0.00
-0.03
-0.05
-0.05
0.00
0.13
0.36
0.66
1.01
1.37
1.72
2.06
2.40
2.79
3.24
3.80
4.42
5.06
5.66
6.20
6.68
7.15
7.68
8.31
9.14
10.09
11.04
11.88
12.56
13.14
13.76
14.65
15.96
17.91
20.32
22.90
25.38
27.58
29.57
31.68
34.32
37.81
42.54
48.15
54.10
59.83
64.97
69.58
74.14
79.34
85.71
93.76
103.00
112.62
121.73
129.77
136.75
143.30
150.75
157.77
166.64
177.95
191.79
206.97
220.57
228.25
225.36
208.53
176.87
132.76
80.05
23.07
-34.94
-92.44
-149.16
-205.23
-260.37
-313.74
-363.87
-409.83
-450.91
-486.50
-515.74
-537.23
-549.22
-549.96
-538.37
-514.21
-478.67
-433.88
-382.45
-327.02
-269.84
-212.63
-156.66
-102.95
-52.37
-5.90
35.58
71.43
101.35
125.50
144.38
158.69
169.15
176.37
180.75
182.57
182.07
179.51
175.23
169.65
163.18
156.15
148.81
141.30
133.69
126.02
118.33
110.69
103.16
95.80
88.68
81.83
75.25
68.95
62.95
57.25
51.86
46.78
42.03
37.59
33.45
29.61
26.07
22.81
19.83
17.11
14.67
12.48
10.54
8.83
7.35
6.07
4.97
4.05
3.27
2.62
2.09
1.65
1.30
1.02
0.81
0.64
0.52
0.43
0.37
0.34
0.32
0.33
0.34
0.36
0.39
0.43
0.47
0.51
0.56
0.61
0.66
0.71
0.77
0.84
0.91
0.98
1.07
1.16
1.27
1.38
1.52
1.66
1.83
2.01
2.22
2.45
2.70
2.98
3.29
3.62
3.99
4.40
4.84
5.32
5.83
6.39
6.98
7.62
8.30
9.03
9.81
10.63
11.50
12.41
13.37
14.38
15.46
16.60
17.81
19.07
20.37
21.68
22.92
24.03
24.90
25.41
25.43
24.85
23.59
21.59
18.86
15.47
11.49
7.10
2.51
-2.10
-6.48
-10.44
-13.82
-16.49
-18.39
-19.55
-20.01
-19.89
-19.32
-18.42
-17.27
-15.93
-14.44
-12.85
-11.17
-9.43
-7.73
-6.10
-4.54
-3.01
-1.46
0.18
1.95
3.84
5.88
7.90
9.80
11.60
13.38
15.27
17.39
19.82
22.53
25.46
28.22
30.57
32.49
34.20
35.96
38.11
40.78
43.92
47.34
50.32
52.42
53.58
54.13
54.61
55.51
57.05
59.04
61.02
61.77
60.47
56.86
51.13
43.64
34.55
23.31
8.25
-8.47
-26.99
-47.82
-71.65
-98.84
-128.92
-160.02
-188.67
-210.45
-221.20
-219.23
-205.39
-182.98
-156.56
-130.32
-106.90
-87.13
-70.54
-56.28
-44.27
-34.60
-27.26
-21.85
-17.56
-13.56
-9.31
-4.83
-0.49
2.81
4.62
4.99
4.45
3.71
3.28
3.20
3.06
2.26
0.23
-2.97
-6.54
-9.21
-9.56
-6.64
-0.25
8.91
19.46
29.76
38.40
44.56
48.07
49.29
48.78
47.11
44.71
41.87
38.85
35.96
33.50
31.73
30.73
30.39
30.43
30.52
30.39
29.86
28.93
27.70
26.29
24.80
23.25
21.62
19.83
17.78
15.42
12.72
9.75
6.65
3.64
0.90
-1.50
-3.69
-5.99
-8.74
-12.16
-16.12
-20.10
-23.29
-24.87
-24.22
-21.12
-15.83
-8.96
-1.33
6.21
12.92
18.29
22.04
24.12
24.70
24.05
22.51
20.46
18.28
16.29
14.73
13.68
13.06
12.71
12.41
12.03
11.56
11.02
10.46
9.80
9.00
7.97
6.76
5.42
3.98
2.44
0.76
-1.03
-2.82
-4.44
-5.80
-7.02
-8.39
-10.30
-12.97
-16.38
-20.13
-23.66
-26.30
-27.52
-26.88
-24.21
-19.55
-13.23
-5.93
1.52
8.26
13.61
17.22
19.08
19.43
18.69
17.32
15.71
14.20
12.99
12.24
11.98
12.16
12.59
13.02
13.18
12.86
12.03
10.73
9.18
7.52
5.86
4.20
2.46
0.58
-1.45
-3.57
-5.66
-7.64
-9.51
-11.37
-13.37
-15.66
-18.34
-21.42
-24.81
-28.28
-31.38
-33.57
-34.18
-32.69
-28.86
-22.93
-15.51
-7.53
0.07
6.59
11.64
15.18
17.32
18.24
18.14
17.26
15.86
14.28
12.86
11.90
11.52
11.63
12.04
12.41
12.49
12.11
11.26
10.10
8.76
7.34
5.80
4.01
1.86
-0.64
-3.33
-5.93
-8.18
-9.96
-11.36
-12.63
-14.15
-16.21
-18.98
-22.44
-26.36
-30.27
-33.56
-35.51
-35.43
-32.90
-27.87
-20.74
-12.35
-3.73
4.12
10.44
14.81
17.21
17.95
17.50
16.41
15.10
13.88
12.96
12.44
12.37
12.73
13.36
14.00
14.32
14.08
13.23
11.90
10.37
8.83
7.31
5.70
3.82
1.60
-0.85
-3.28
-5.43
-7.16
-8.53
-9.78
-11.26
-13.36
-16.29
-20.07
-24.32
-28.36
-31.30
-32.24
-30.59
-26.26
-19.67
-11.69
-3.36
4.35
10.71
15.32
18.10
19.24
19.06
17.92
16.19
14.21
12.25
10.57
9.38
8.82
8.85
9.34
10.04
10.67
11.03
11.03
10.65
9.90
8.78
7.28
5.42
3.33
1.25
-0.56
-1.98
-3.10
-4.21
-5.70
-7.89
-10.85
-14.36
-18.02
-21.31
-23.75
-24.96
-24.69
-22.81
-19.36
-14.60
-9.01
-3.22
2.14
6.61
9.91
12.02
13.02
13.04
12.25
10.83
9.02
7.20
5.72
4.84
4.66
5.05
5.70
6.28
6.49
6.19
5.40
4.20
2.72
1.06
-0.74
-2.63
-4.51
-6.21
-7.61
-8.73
-9.78
-11.18
-13.38
-16.61
-20.71
-25.07
-28.73
-30.65
-30.01
-26.55
-20.61
-13.02
-4.92
2.65
8.90
13.46
16.23
17.36
17.02
15.50
13.12
10.30
7.53
5.28
3.87
3.40
3.79
4.75
5.93
6.99
7.64
7.66
6.97
5.55
3.48
0.96
-1.75
-4.38
-6.74
-8.86
-10.91
-13.19
-16.03
-19.61
-23.91
-28.58
-32.97
-36.21
-37.34
-35.57
-30.61
-22.84
-13.32
-3.49
5.22
11.85
16.09
18.14
18.50
17.65
15.97
13.85
11.77
10.24
9.71
10.33
11.90
13.90
15.76
17.03
17.53
17.31
16.53
15.35
13.82
11.96
9.76
7.25
4.52
1.71
-1.05
-3.69
-6.26
-9.01
-12.29
-16.34
-21.07
-25.92
-29.89
-31.86
-30.99
-27.08
-20.64
-12.77
-4.73
2.42
8.12
12.22
14.90
16.36
16.78
16.27
14.98
13.26
11.57
10.44
10.21
10.95
12.36
13.93
15.09
15.43
14.79
13.28
11.20
8.87
6.56
4.32
2.08
-0.37
-3.25
-6.74
-10.93
-15.74
-20.90
-25.89
-29.94
-32.18
-31.82
-28.45
-22.22
-13.84
-4.39
4.95
13.25
19.89
24.56
27.16
27.69
26.32
23.39
19.51
15.43
11.85
9.26
7.85
7.46
7.76
8.35
8.85
8.90
8.22
6.65
4.18
1.04
-2.39
-5.69
-8.59
-11.08
-13.42
-16.01
-19.28
-23.50
-28.55
-33.89
-38.54
-41.35
-41.31
-37.87
-31.16
-22.01
-11.66
-1.39
7.74
15.08
20.33
23.51
24.84
24.64
23.36
21.41
19.20
17.08
15.34
14.18
13.74
14.04
14.84
15.72
16.13
15.60
13.89
11.12
7.69
4.14
0.93
-1.76
-4.04
-6.23
-8.77
-12.02
-16.22
-21.41
-27.31
-33.34
-38.53
-41.71
-41.77
-38.06
-30.68
-20.49
-8.94
2.36
12.11
19.53
24.37
26.81
27.24
26.16
24.15
21.77
19.55
17.86
16.86
16.54
16.81
17.49
18.40
19.34
20.08
20.40
20.13
19.19
17.60
15.43
12.80
9.85
6.76
3.73
0.94
-1.62
-4.18
-7.16
-10.98
-15.79
-21.25
-26.47
-30.21
-31.25
-28.70
-22.37
-12.79
-1.11
11.27
23.00
33.12
41.18
47.17
51.34
53.99
55.33
55.46
54.42
52.31
49.31
45.62
41.50
37.15
32.75
28.40
24.21
20.20
16.37
12.60
8.78
4.82
0.67
-3.63
-7.98
-12.24
-16.30
-20.08
-23.62
-27.05
-30.64
-34.76
-39.65
-45.33
-51.39
-56.86
-60.45
-60.89
-57.44
-50.16
-39.98
-28.40
-16.90
-6.63
1.81
8.24
12.60
14.84
14.97
13.20
10.13
6.65
3.68
1.88
1.39
1.93
2.97
4.01
4.78
5.26
5.55
5.69
5.64
5.26
4.40
3.01
1.19
-0.87
-2.90
-4.72
-6.22
-7.50
-8.78
-10.39
-12.67
-15.80
-19.74
-24.06
-27.97
-30.45
-30.52
-27.54
-21.47
-12.95
-3.11
6.68
15.17
21.52
25.36
26.69
25.87
23.38
19.86
16.01
12.52
10.01
8.79
8.84
9.82
11.22
12.56
13.50
13.93
13.83
13.26
12.26
10.87
9.09
7.02
4.77
2.48
0.32
-1.66
-3.45
-5.10
-6.78
-8.62
-10.74
-13.14
-15.62
-17.71
-18.81
-18.31
-15.80
-11.29
-5.23
1.56
8.13
13.72
17.87
20.49
21.67
21.60
20.47
18.48
15.94
13.20
10.61
8.47
6.92
5.97
5.50
5.38
5.41
5.43
5.22
4.63
3.58
2.09
0.31
-1.57
-3.41
-5.16
-6.86
-8.67
-10.74
-13.18
-15.95
-18.89
-21.65
-23.83
-25.05
-25.02
-23.54
-20.60
-16.27
-10.84
-4.72
1.46
7.01
11.29
13.92
14.91
14.61
13.56
12.25
11.06
10.12
9.43
8.99
8.82
8.96
9.37
9.94
10.42
10.54
10.10
9.03
7.46
5.63
3.73
1.91
0.18
-1.58
-3.53
-5.81
-8.50
-11.57
-14.94
-18.40
-21.70
-24.48
-26.35
-26.95
-26.00
-23.43
-19.35
-14.07
-8.08
-1.97
3.67
8.29
11.61
13.63
14.60
14.90
14.85
14.60
14.20
13.64
13.01
12.47
12.18
12.19
12.41
12.67
12.73
12.47
11.80
10.73
9.27
7.51
5.53
3.45
1.38
-0.63
-2.55
-4.43
-6.32
-8.34
-10.62
-13.27
-16.33
-19.61
-22.70
-25.02
-26.03
-25.41
-23.17
-19.57
-15.02
-9.97
-4.78
0.22
4.77
8.59
11.49
13.36
14.23
14.27
13.76
12.99
12.23
11.64
11.31
11.21
11.28
11.40
11.46
11.38
11.09
10.53
9.68
8.48
6.95
5.12
3.11
1.09
-0.77
-2.39
-3.80
-5.20
-6.84
-8.92
-11.51
-14.50
-17.68
-20.76
-23.44
-25.40
-26.33
-25.90
-23.87
-20.24
-15.25
-9.44
-3.47
2.08
6.83
10.71
13.81
16.30
18.26
19.71
20.62
21.09
21.28
21.37
21.44
21.46
21.25
20.72
19.90
18.97
18.13
17.47
16.81
15.77
13.94
11.04
7.13
2.53
-2.30
-6.94
-11.09
-14.73
-17.90
-20.77
-23.57
-26.55
-29.94
-33.84
-38.03
-41.87
-44.39
-44.55
-41.61
-35.44
-26.58
-16.14
-5.46
4.25
12.14
17.77
20.99
21.90
20.80
18.20
14.76
11.26
8.40
6.58
5.85
5.91
6.34
6.80
7.18
7.59
8.21
9.09
10.06
10.84
11.11
10.67
9.52
7.74
5.50
2.97
0.30
-2.41
-5.10
-7.85
-10.81
-14.21
-18.21
-22.63
-26.95
-30.32
-31.80
-30.62
-26.49
-19.68
-10.95
-1.36
7.96
16.03
22.16
25.98
27.42
26.74
24.49
21.39
18.17
15.45
13.53
12.38
11.74
11.27
10.74
10.12
9.52
9.08
8.85
8.74
8.53
7.96
6.83
5.08
2.81
0.24
-2.35
-4.73
-6.82
-8.78
-10.92
-13.64
-17.23
-21.70
-26.61
-31.18
-34.41
-35.42
-33.63
-29.03
-22.14
-13.88
-5.28
2.75
9.57
14.82
18.35
20.11
20.14
18.62
15.91
12.55
9.18
6.34
4.41
3.44
3.25
3.53
3.92
4.13
4.00
3.44
2.53
1.33
-0.10
-1.73
-3.60
-5.71
-8.03
-10.45
-12.85
-15.16
-17.45
-19.90
-22.63
-25.54
-28.19
-29.81
-29.59
-27.00
-21.99
-15.17
-7.50
-0.06
6.33
11.19
14.39
15.98
16.05
14.73
12.27
9.09
5.76
2.87
0.85
-0.14
-0.22
0.32
1.15
2.00
2.70
3.15
3.26
2.95
2.12
0.73
-1.21
-3.60
-6.29
-9.14
-12.11
-15.36
-19.08
-23.32
-27.81
-31.86
-34.44
-34.57
-31.66
-25.79
-17.72
-8.62
0.30
8.00
13.91
17.83
19.80
20.04
18.78
16.28
12.89
9.03
5.26
2.17
0.22
-0.38
0.22
1.52
2.89
3.77
3.81
2.96
1.38
-0.70
-3.12
-5.77
-8.62
-11.67
-14.93
-18.47
-22.37
-26.65
-31.09
-35.19
-38.08
-38.83
-36.72
-31.57
-23.84
-14.53
-4.85
4.10
11.58
17.20
20.87
22.60
22.46
20.59
17.29
13.14
8.89
5.35
3.06
2.20
2.52
3.47
4.44
4.93
4.73
3.86
2.49
0.81
-1.07
-3.13
-5.43
-8.08
-11.23
-15.03
-19.61
-24.90
-30.55
-35.84
-39.74
-41.22
-39.54
-34.56
-26.86
-17.51
-7.75
1.38
9.21
15.46
20.00
22.73
23.58
22.59
20.06
16.61
13.08
10.25
8.66
8.42
9.21
10.44
11.44
11.67
10.92
9.29
7.10
4.72
2.38
0.05
-2.48
-5.52
-9.31
-13.98
-19.45
-25.53
-31.76
-37.47
-41.71
-43.47
-41.93
-36.76
-28.36
-17.79
-6.51
4.07
12.89
19.46
23.77
26.07
26.68
25.89
23.98
21.29
18.38
15.83
14.17
13.63
14.06
15.00
15.83
16.04
15.33
13.76
11.56
9.09
6.57
4.08
1.51
-1.33
-4.64
-8.54
-13.11
-18.41
-24.38
-30.77
-36.96
-41.96
-44.54
-43.59
-38.59
-29.84
-18.43
-5.94
6.04
16.28
24.07
29.23
31.91
32.43
31.21
28.71
25.48
22.11
19.16
17.13
16.26
16.55
17.72
19.32
20.79
21.67
21.61
20.48
18.32
15.30
11.66
7.74
3.82
0.16
-3.16
-6.29
-9.63
-13.73
-19.02
-25.54
-32.70
-39.34
-43.95
-45.17
-42.24
-35.22
-24.97
-12.84
-0.26
11.51
21.57
29.33
34.47
36.95
37.02
35.22
32.32
29.11
26.27
24.13
22.80
22.15
21.98
22.15
22.57
23.11
23.59
23.69
23.06
21.43
18.62
14.77
10.19
5.40
0.89
-2.96
-6.07
-8.68
-11.28
-14.49
-18.79
-24.32
-30.73
-37.16
-42.35
-44.97
-43.94
-38.82
-29.95
-18.42
-5.78
6.40
16.91
25.11
30.91
34.51
36.19
36.18
34.77
32.38
29.63
27.24
25.76
25.38
25.83
26.58
27.06
26.94
26.25
25.20
24.04
22.76
21.12
18.72
15.32
11.00
6.19
1.53
-2.45
-5.53
-7.87
-9.91
-12.28
-15.54
-20.06
-25.92
-32.72
-39.54
-45.04
-47.74
-46.44
-40.68
-30.93
-18.51
-5.16
7.40
17.93
25.79
30.88
33.51
34.09
33.11
31.02
28.30
25.50
23.15
21.69
21.29
21.74
22.58
23.26
23.44
23.10
22.48
21.89
21.42
20.85
19.75
17.68
14.46
10.28
5.67
1.22
-2.65
-5.84
-8.58
-11.29
-14.44
-18.36
-23.20
-28.86
-34.96
-40.80
-45.35
-47.37
-45.82
-40.17
-30.72
-18.64
-5.61
6.65
16.89
24.50
29.41
31.88
32.24
30.85
28.22
25.02
22.11
20.24
19.82
20.78
22.57
24.49
25.89
26.47
26.21
25.31
23.99
22.39
20.48
18.13
15.22
11.65
7.51
3.07
-1.21
-4.79
-7.25
-8.54
-9.04
-9.56
-11.06
-14.31
-19.49
-26.12
-33.00
-38.66
-41.71
-41.34
-37.43
-30.50
-21.54
-11.63
-1.74
7.44
15.34
21.52
25.57
27.22
26.48
23.75
19.85
15.74
12.38
10.43
10.07
11.09
12.93
14.96
16.69
17.85
18.39
18.37
17.80
16.63
14.67
11.88
8.35
4.35
0.26
-3.56
-6.94
-9.90
-12.60
-15.37
-18.50
-22.23
-26.63
-31.41
-35.90
-39.14
-40.01
-37.67
-31.83
-22.93
-12.11
-0.84
9.45
17.76
23.63
27.08
28.39
27.94
26.14
23.43
20.36
17.56
15.54
14.59
14.64
15.29
16.03
16.48
16.49
16.13
15.57
14.86
13.87
12.35
10.10
7.06
3.43
-0.43
-4.07
-7.20
-9.72
-11.77
-13.70
-15.97
-18.99
-22.96
-27.74
-32.72
-36.91
-39.17
-38.52
-34.50
-27.31
-17.85
-7.32
2.95
11.89
18.81
23.39
25.67
25.87
24.40
21.75
18.52
15.31
12.62
10.79
9.90
9.82
10.28
10.93
11.45
11.57
11.18
10.23
8.83
7.11
5.25
3.30
1.32
-0.70
-2.74
-4.77
-6.69
-8.51
-10.34
-12.49
-15.32
-19.06
-23.65
-28.59
-32.97
-35.70
-35.84
-32.84
-26.84
-18.56
-9.14
0.15
8.31
14.72
19.13
21.60
22.28
21.41
19.26
16.29
13.02
10.05
7.84
6.61
6.31
6.67
7.32
8.00
8.52
8.81
8.84
8.56
7.85
6.63
4.86
2.60
0.03
-2.63
-5.17
-7.46
-9.55
-11.61
-13.92
-16.84
-20.55
-24.95
-29.50
-33.25
-35.00
-33.72
-28.99
-21.17
-11.46
-1.40
7.52
14.35
18.77
20.94
21.26
20.12
17.90
14.95
11.73
8.75
6.45
5.06
4.51
4.54
4.85
5.20
5.47
5.62
5.58
5.25
4.49
3.21
1.39
-0.88
-3.40
-5.99
-8.46
-10.70
-12.73
-14.69
-16.91
-19.73
-23.31
-27.48
-31.57
-34.56
-35.34
-33.18
-27.99
-20.39
-11.51
-2.57
5.41
11.75
16.17
18.58
19.03
17.70
14.90
11.20
7.23
3.67
1.05
-0.33
-0.46
0.40
1.81
3.22
4.20
4.48
4.00
2.87
1.33
-0.42
-2.22
-3.98
-5.65
-7.25
-8.85
-10.61
-12.76
-15.46
-18.73
-22.36
-25.85
-28.51
-29.58
-28.46
-24.88
-19.03
-11.55
-3.41
4.32
10.81
15.53
18.36
19.42
18.91
17.09
14.22
10.70
7.07
3.91
1.77
0.93
1.34
2.61
4.13
5.26
5.55
4.78
3.05
0.63
-2.16
-5.06
-7.90
-10.62
-13.21
-15.68
-18.19
-20.95
-24.28
-28.36
-33.00
-37.50
-40.68
-41.29
-38.46
-32.11
-23.02
-12.61
-2.41
6.38
13.17
17.86
20.66
21.78
21.33
19.41
16.30
12.51
8.73
5.64
3.72
3.05
3.42
4.40
5.52
6.33
6.47
5.73
4.08
1.69
-1.12
-3.95
-6.54
-8.83
-10.94
-13.17
-15.85
-19.22
-23.34
-27.99
-32.56
-36.14
-37.62
-36.09
-31.14
-23.13
-13.16
-2.69
6.86
14.50
19.83
22.89
23.93
23.24
21.08
17.75
13.80
9.93
6.92
5.33
5.26
6.31
7.71
8.64
8.55
7.30
5.16
2.61
0.06
-2.29
-4.49
-6.76
-9.30
-12.25
-15.66
-19.57
-24.02
-28.96
-34.09
-38.69
-41.74
-42.09
-38.98
-32.29
-22.75
-11.69
-0.67
8.98
16.46
21.58
24.49
25.54
24.99
23.10
20.17
16.66
13.21
10.49
9.02
8.94
10.01
11.61
13.06
13.77
13.47
12.13
9.95
7.20
4.17
1.03
-2.17
-5.46
-8.99
-12.91
-17.35
-22.38
-27.95
-33.77
-39.22
-43.36
-45.07
-43.39
-37.89
-28.91
-17.58
-5.48
5.80
15.09
21.87
26.19
28.43
29.09
28.61
27.42
25.93
24.48
23.37
22.70
22.39
22.25
22.11
21.85
21.41
20.74
19.72
18.15
15.85
12.73
8.90
4.57
0.06
-4.42
-8.72
-12.80
-16.70
-20.50
-24.35
-28.43
-32.82
-37.26
-41.09
-43.27
-42.69
-38.63
-31.13
-21.03
-9.71
1.36
11.05
18.77
24.38
27.97
29.68
29.63
28.04
25.39
22.41
19.94
18.63
18.72
19.95
21.67
23.17
23.94
23.85
23.06
21.86
20.45
18.83
16.81
14.16
10.82
6.93
2.87
-0.96
-4.20
-6.79
-8.95
-11.20
-14.11
-18.15
-23.40
-29.37
-35.09
-39.30
-40.82
-38.92
-33.49
-25.13
-14.91
-4.09
6.16
15.00
21.96
26.88
29.77
30.79
30.13
28.13
25.30
22.27
19.80
18.48
18.59
19.94
21.94
23.82
24.91
24.89
23.86
22.12
20.00
17.64
14.98
11.83
8.15
4.09
0.01
-3.68
-6.76
-9.26
-11.42
-13.54
-15.90
-18.69
-22.04
-26.04
-30.69
-35.73
-40.54
-44.07
-45.14
-42.77
-36.66
-27.31
-15.93
-4.08
6.86
15.96
22.87
27.63
30.47
31.64
31.38
30.00
27.94
25.78
24.11
23.32
23.55
24.55
25.85
26.88
27.24
26.77
25.59
23.97
22.14
20.23
18.20
15.97
13.46
10.67
7.68
4.65
1.73
-0.96
-3.33
-5.37
-7.24
-9.17
-11.51
-14.67
-18.92
-24.31
-30.49
-36.72
-41.90
-44.87
-44.70
-40.96
-33.90
-24.36
-13.55
-2.77
6.93
14.79
20.49
24.02
25.60
25.60
24.46
22.66
20.64
18.81
17.50
16.98
17.31
18.36
19.81
21.26
22.34
22.84
22.71
21.97
20.70
18.94
16.74
14.15
11.23
8.11
4.89
1.68
-1.42
-4.29
-6.85
-9.07
-11.00
-12.84
-14.91
-17.55
-21.05
-25.36
-30.06
-34.23
-36.75
-36.61
-33.19
-26.56
-17.44
-7.04
3.33
12.50
19.71
24.58
27.14
27.64
26.47
24.11
21.04
17.82
15.00
13.03
12.16
12.37
13.30
14.40
15.20
15.38
14.92
13.95
12.67
11.17
9.46
7.51
5.37
3.09
0.75
-1.63
-4.10
-6.68
-9.32
-11.89
-14.22
-16.25
-18.08
-19.97
-22.28
-25.27
-29.03
-33.34
-37.60
-41.00
-42.57
-41.47
-37.24
-29.93
-20.23
-9.33
1.42
10.82
18.07
22.89
25.39
25.91
24.89
22.72
19.82
16.67
13.84
11.90
11.21
11.81
13.33
15.13
16.55
17.13
16.80
15.78
14.44
13.04
11.61
9.98
7.93
5.36
2.38
-0.70
-3.58
-6.04
-8.08
-9.84
-11.56
-13.48
-15.82
-18.78
-22.53
-27.08
-32.12
-36.95
-40.51
-41.69
-39.67
-34.31
-26.20
-16.48
-6.42
2.89
10.78
16.91
21.17
23.53
24.00
22.81
20.43
17.56
14.94
13.12
12.28
12.28
12.74
13.27
13.65
13.85
13.95
14.02
14.01
13.69
12.75
10.92
8.19
4.77
1.09
-2.35
-5.19
-7.30
-8.82
-10.10
-11.60
-13.76
-16.88
-21.02
-25.90
-30.83
-34.80
-36.65
-35.47
-30.91
-23.34
-13.82
-3.75
5.50
12.90
18.00
20.78
21.58
20.84
19.05
16.64
14.07
11.68
9.80
8.60
8.10
8.16
8.51
8.88
9.09
9.13
9.06
8.97
8.77
8.26
7.16
5.30
2.71
-0.37
-3.54
-6.38
-8.69
-10.51
-12.22
-14.32
-17.30
-21.31
-25.97
-30.42
-33.47
-34.03
-31.47
-25.92
-18.15
-9.35
-0.71
6.84
12.78
16.90
19.20
19.78
18.84
16.69
13.75
10.55
7.55
5.18
3.67
3.14
3.46
4.41
5.67
6.88
7.68
7.87
7.32
6.04
4.16
1.83
-0.79
-3.53
-6.34
-9.23
-12.28
-15.58
-19.24
-23.24
-27.47
-31.62
-35.13
-37.33
-37.45
-34.96
-29.67
-22.00
-12.81
-3.27
5.48
12.58
17.55
20.28
20.91
19.76
17.28
14.04
10.65
7.65
5.45
4.19
3.76
3.91
4.33
4.78
5.08
5.11
4.71
3.76
2.20
0.08
-2.42
-5.05
-7.61
-10.01
-12.33
-14.70
-17.30
-20.30
-23.84
-27.97
-32.57
-37.12
-40.71
-42.16
-40.46
-35.16
-26.70
-16.28
-5.52
4.15
11.81
17.20
20.45
21.82
21.54
19.78
16.89
13.42
10.06
7.45
5.99
5.69
6.25
7.24
8.26
9.02
9.35
9.14
8.33
6.89
4.85
2.30
-0.57
-3.59
-6.59
-9.44
-12.10
-14.64
-17.26
-20.24
-23.92
-28.43
-33.48
-38.25
-41.54
-42.08
-39.03
-32.34
-22.78
-11.74
-0.77
8.85
16.36
21.50
24.41
25.34
24.65
22.81
20.34
17.82
15.77
14.48
14.01
14.12
14.47
14.75
14.76
14.45
13.85
12.97
11.77
10.16
8.09
5.59
2.81
-0.06
-2.79
-5.27
-7.47
-9.50
-11.63
-14.25
-17.73
-22.23
-27.57
-33.01
-37.46
-39.69
-38.74
-34.28
-26.69
-16.96
-6.35
3.91
12.83
19.74
24.32
26.52
26.57
24.93
22.19
19.05
16.12
13.95
12.83
12.83
13.78
15.32
16.95
18.25
18.93
18.85
18.00
16.41
14.10
11.17
7.71
3.92
0.07
-3.58
-6.84
-9.67
-12.21
-14.76
-17.72
-21.39
-25.82
-30.56
-34.73
-37.11
-36.63
-32.73
-25.59
-16.16
-5.78
4.23
12.80
19.35
23.66
25.76
25.79
24.00
20.82
16.86
12.86
9.58
7.56
6.98
7.62
9.00
10.56
11.93
12.95
13.60
13.79
13.33
11.91
9.31
5.59
1.18
-3.28
-7.16
-10.11
-12.17
-13.74
-15.41
-17.84
-21.44
-26.26
-31.84
-37.13
-40.75
-41.38
-38.16
-31.10
-21.04
-9.46
2.08
12.27
20.34
25.94
29.08
29.90
28.73
26.05
22.59
19.16
16.48
14.96
14.60
15.03
15.78
16.39
16.66
16.60
16.34
15.99
15.52
14.76
13.45
11.39
8.50
4.96
1.11
-2.58
-5.74
-8.22
-10.18
-11.98
-14.16
-17.29
-21.71
-27.49
-34.16
-40.71
-45.68
-47.54
-45.21
-38.46
-28.14
-15.82
-3.33
7.81
16.79
23.41
27.86
30.38
31.17
30.44
28.56
26.15
23.91
22.51
22.20
22.85
23.93
24.84
25.15
24.74
23.77
22.54
21.25
19.90
18.29
16.15
13.39
10.12
6.66
3.39
0.58
-1.72
-3.68
-5.61
-7.90
-10.95
-15.06
-20.27
-26.30
-32.39
-37.37
-40.01
-39.32
-34.94
-27.24
-17.24
-6.28
4.33
13.57
20.81
25.75
28.33
28.69
27.15
24.27
20.78
17.47
15.01
13.80
13.92
15.05
16.70
18.32
19.53
20.13
20.18
19.77
18.98
17.72
15.81
13.14
9.83
6.19
2.65
-0.41
-2.86
-4.87
-6.73
-8.85
-11.56
-15.10
-19.52
-24.63
-29.90
-34.42
-37.06
-36.77
-32.97
-25.80
-16.10
-5.25
5.31
14.43
21.42
26.07
28.45
28.75
27.17
24.09
20.08
15.98
12.70
10.93
10.88
12.18
14.12
15.90
16.98
17.21
16.79
15.98
14.95
13.65
11.90
9.51
6.47
2.95
-0.78
-4.45
-7.89
-11.07
-14.08
-17.08
-20.27
-23.86
-28.00
-32.63
-37.37
-41.43
-43.70
-43.14
-39.14
-31.80
-21.97
-10.96
-0.12
9.52
17.35
23.17
26.89
28.48
27.98
25.64
22.02
17.97
14.48
12.30
11.78
12.74
14.55
16.47
17.87
18.44
18.22
17.47
16.50
15.43
14.14
12.37
9.88
6.63
2.84
-1.07
-4.67
-7.70
-10.16
-12.34
-14.67
-17.65
-21.67
-26.79
-32.65
-38.37
-42.69
-44.29
-42.29
-36.49
-27.52
-16.61
-5.18
5.50
14.59
21.66
26.53
29.22
29.84
28.69
26.26
23.26
20.44
18.41
17.50
17.65
18.50
19.55
20.37
20.71
20.50
19.85
18.89
17.69
16.25
14.46
12.26
9.58
6.45
3.02
-0.51
-3.91
-6.99
-9.71
-12.20
-14.74
-17.72
-21.47
-26.04
-31.12
-35.97
-39.51
-40.66
-38.70
-33.50
-25.61
-16.09
-6.15
3.09
10.87
16.73
20.48
22.12
21.81
19.86
16.81
13.36
10.25
8.11
7.24
7.57
8.71
10.11
11.29
12.01
12.28
12.24
11.97
11.41
10.31
8.48
5.91
2.82
-0.38
-3.32
-5.81
-7.92
-9.90
-12.11
-14.86
-18.38
-22.65
-27.36
-31.80
-34.97
-35.82
-33.62
-28.23
-20.19
-10.58
-0.68
8.33
15.57
20.51
22.95
23.04
21.19
18.11
14.64
11.53
9.30
8.11
7.87
8.27
9.03
9.91
10.74
11.38
11.78
11.87
11.56
10.73
9.20
6.87
3.77
0.12
-3.64
-7.08
-9.95
-12.32
-14.58
-17.30
-20.96
-25.77
-31.47
-37.43
-42.69
-46.15
-46.82
-44.07
-37.89
-28.95
-18.47
-7.87
1.66
9.41
15.18
19.08
21.29
21.90
20.99
18.83
15.95
13.10
11.00
10.06
10.27
11.21
12.41
13.47
14.20
14.58
14.62
14.24
13.26
11.46
8.78
5.31
1.40
-2.55
-6.09
-9.02
-11.33
-13.29
-15.30
-17.78
-21.08
-25.29
-30.12
-34.88
-38.53
-39.92
-38.13
-32.84
-24.49
-14.20
-3.40
6.59
14.87
21.03
25.05
27.14
27.55
26.60
24.68
22.28
19.90
17.96
16.71
16.18
16.27
16.77
17.47
18.20
18.77
18.99
18.65
17.55
15.51
12.49
8.64
4.25
-0.25
-4.46
-8.11
-11.18
-13.82
-16.36
-19.22
-22.75
-27.13
-32.25
-37.62
-42.33
-45.28
-45.40
-42.09
-35.42
-26.28
-16.06
-6.32
1.67
7.17
10.02
10.48
9.03
6.19
2.59
-1.05
-3.88
-5.13
-4.39
-1.84
1.81
5.58
8.62
10.54
11.38
11.40
10.77
9.45
7.30
4.30
0.80
-2.62
-5.35
-7.13
-8.16
-9.01
-10.36
-12.77
-16.47
-21.31
-26.82
-32.17
-36.32
-38.19
-36.91
-32.12
-24.11
-13.80
-2.49
8.52
18.14
25.70
30.91
33.72
34.18
32.53
29.13
24.64
19.93
15.97
13.55
13.00
14.12
16.26
18.62
20.59
21.96
22.90
23.73
24.66
25.60
26.22
26.15
25.18
23.43
21.25
19.06
17.10
15.33
13.45
11.09
8.18
5.13
2.82
2.27
4.34
9.23
16.41
24.73
32.83
39.48
43.93
45.90
45.44
42.76
38.22
32.36
25.97
19.95
15.14
11.86
9.83
8.17
5.86
2.27
-2.44
-7.29
-10.94
-12.28
-10.98
-7.58
-3.28
0.61
3.06
3.60
2.27
-0.63
-4.71
-9.58
-14.92
-20.42
-25.84
-31.07
-36.06
-40.72
-44.70
-47.37
-47.84
-45.38
-39.73
-31.31
-21.23
-10.93
-1.76
5.28
9.69
11.40
10.87
9.12
7.66
8.07
11.44
17.56
24.87
30.96
33.58
31.72
26.06
18.46
10.99
5.11
1.31
-0.46
-0.48
0.94
3.11
4.69
3.86
-0.90
-9.81
-21.46
-33.22
-42.54
-48.16
-50.52
-51.18
-51.64
-52.23
-51.94
-48.98
-41.83
-30.12
-14.88
1.75
17.23
29.30
36.60
38.87
36.87
32.01
25.80
19.44
13.58
8.48
4.36
1.57
0.49
1.20
3.17
5.19
5.77
3.82
-0.87
-7.46
-14.41
-20.13
-23.59
-24.67
-24.12
-23.22
-23.32
-25.41
-29.83
-36.21
-43.49
-50.12
-54.28
-54.27
-49.24
-39.64
-27.32
-14.90
-4.67
2.55
7.77
13.07
20.30
29.74
39.84
47.98
51.92
50.98
46.20
39.65
33.24
27.93
23.68
20.14
17.13
14.96
14.13
14.83
16.62
18.46
19.09
17.49
13.37
7.13
-0.16
-7.20
-12.93
-16.84
-19.19
-20.96
-23.42
-27.57
-33.63
-40.72
-47.06
-50.62
-49.91
-44.62
-35.75
-25.14
-14.85
-6.43
-0.59
2.69
3.90
3.67
2.64
1.37
0.44
0.24
0.93
2.14
3.04
2.57
0.08
-4.10
-8.56
-11.27
-10.65
-6.53
-0.44
5.10
7.90
7.32
4.51
1.61
0.31
0.81
1.66
0.75
-3.33
-10.35
-18.51
-25.25
-28.45
-27.21
-21.96
-14.05
-5.13
3.40
10.75
16.71
21.45
25.18
28.03
29.83
30.35
29.44
27.19
24.04
20.57
17.43
15.00
13.41
12.47
11.76
10.86
9.48
7.51
5.07
2.33
-0.56
-3.55
-6.72
-10.12
-13.63
-17.02
-19.99
-22.42
-24.36
-26.07
-27.77
-29.36
-30.40
-30.19
-28.00
-23.44
-16.65
-8.24
0.77
9.33
16.61
22.10
25.68
27.46
27.73
26.82
25.13
23.11
21.15
19.63
18.68
18.26
18.14
18.07
17.81
17.28
16.38
15.05
13.22
10.83
7.94
4.69
1.33
-1.88
-4.81
-7.46
-10.01
-12.78
-16.11
-20.30
-25.37
-30.94
-36.19
-39.95
-41.08
-38.73
-32.75
-23.79
-13.11
-2.28
7.22
14.38
18.76
20.45
19.91
17.70
14.37
10.43
6.37
2.77
0.23
-0.74
0.06
2.36
5.50
8.61
10.90
11.95
11.71
10.48
8.66
6.56
4.33
1.98
-0.53
-3.21
-6.00
-8.85
-11.75
-14.82
-18.24
-22.10
-26.24
-30.13
-32.86
-33.41
-31.03
-25.53
-17.51
-8.14
1.16
9.21
15.34
19.42
21.70
22.51
22.08
20.59
18.25
15.46
12.79
10.79
9.85
9.99
10.95
12.34
13.78
15.03
15.93
16.33
16.06
14.98
13.05
10.40
7.32
4.13
1.08
-1.76
-4.52
-7.44
-10.79
-14.79
-19.42
-24.39
-29.04
-32.38
-33.40
-31.38
-26.18
-18.39
-9.15
0.19
8.49
14.97
19.35
21.66
22.08
20.89
18.40
15.07
11.50
8.32
6.07
5.01
5.05
5.86
6.97
8.03
8.79
9.12
8.96
8.21
6.82
4.80
2.31
-0.36
-2.96
-5.34
-7.55
-9.82
-12.49
-15.79
-19.77
-24.14
-28.31
-31.40
-32.46
-30.78
-26.15
-18.98
-10.25
-1.17
7.12
13.88
18.75
21.69
22.83
22.33
20.47
17.64
14.41
11.39
9.09
7.76
7.39
7.74
8.51
9.35
10.00
10.17
9.68
8.49
6.75
4.66
2.46
0.22
-2.11
-4.67
-7.52
-10.66
-14.00
-17.56
-21.46
-25.86
-30.70
-35.50
-39.29
-40.90
-39.32
-34.21
-26.04
-16.00
-5.55
3.97
11.71
17.29
20.77
22.33
22.24
20.79
18.37
15.51
12.85
10.88
9.91
9.96
10.81
12.12
13.55
14.80
15.59
15.67
14.86
13.07
10.39
7.06
3.44
-0.20
-3.66
-6.89
-9.92
-12.87
-15.94
-19.40
-23.47
-28.17
-33.12
-37.47
-40.05
-39.76
-35.91
-28.62
-18.79
-7.83
2.69
11.54
18.01
21.92
23.55
23.34
21.81
19.47
16.82
14.35
12.48
11.50
11.47
12.20
13.37
14.57
15.46
15.89
15.80
15.20
14.14
12.62
10.63
8.18
5.34
2.24
-0.94
-4.04
-6.97
-9.73
-12.49
-15.49
-19.02
-23.20
-27.79
-32.16
-35.28
-36.02
-33.55
-27.64
-18.86
-8.46
1.99
11.09
17.91
22.12
23.90
23.68
22.01
19.44
16.53
13.84
11.87
10.99
11.22
12.32
13.85
15.27
16.22
16.47
15.99
14.82
13.12
11.03
8.76
6.51
4.37
2.34
0.30
-1.91
-4.35
-7.01
-9.89
-13.14
-17.02
-21.68
-26.87
-31.75
-35.03
-35.45
-32.27
-25.68
-16.74
-6.99
2.12
9.60
15.07
18.54
20.23
20.36
19.16
16.97
14.20
11.40
9.13
7.78
7.54
8.35
9.94
11.90
13.78
15.17
15.75
15.30
13.71
11.00
7.35
3.13
-1.19
-5.16
-8.49
-11.15
-13.42
-15.78
-18.71
-22.57
-27.39
-32.79
-37.96
-41.78
-43.08
-41.01
-35.27
-26.36
-15.38
-3.79
7.02
16.02
22.66
26.80
28.59
28.35
26.52
23.69
20.51
17.62
15.44
14.20
13.84
14.16
14.89
15.77
16.59
17.13
17.21
16.65
15.37
13.39
10.78
7.73
4.42
1.08
-2.10
-4.99
-7.59
-10.09
-12.85
-16.27
-20.65
-26.03
-31.99
-37.67
-41.95
-43.65
-41.96
-36.68
-28.30
-17.85
-6.61
4.25
13.85
21.57
27.07
30.10
30.70
29.17
26.22
22.82
19.89
18.03
17.39
17.68
18.45
19.30
19.97
20.36
20.39
19.97
18.99
17.36
15.09
12.22
8.91
5.30
1.63
-1.83
-4.83
-7.25
-9.21
-11.09
-13.47
-16.87
-21.52
-27.18
-33.10
-38.20
-41.24
-41.27
-37.85
-31.20
-22.13
-11.86
-1.63
7.46
14.72
19.77
22.50
23.04
21.75
19.19
16.08
13.17
11.07
10.12
10.33
11.42
12.99
14.62
16.03
17.05
17.64
17.71
17.21
16.00
13.99
11.20
7.84
4.24
0.78
-2.24
-4.72
-6.78
-8.74
-11.02
-14.03
-18.06
-23.05
-28.48
-33.30
-36.21
-36.02
-32.11
-24.65
-14.65
-3.60
6.99
15.88
22.40
26.27
27.59
26.63
23.86
19.96
15.72
11.99
9.38
8.17
8.22
9.15
10.41
11.56
12.31
12.53
12.18
11.28
9.85
7.88
5.41
2.49
-0.72
-4.05
-7.31
-10.38
-13.22
-15.79
-18.20
-20.60
-23.26
-26.48
-30.43
-34.92
-39.24
-42.23
-42.62
-39.45
-32.55
-22.64
-11.13
0.32
10.30
17.99
23.12
25.87
26.61
25.78
23.85
21.35
18.86
16.93
15.95
15.98
16.82
17.98
19.02
19.63
19.75
19.50
19.02
18.36
17.39
15.86
13.60
10.58
6.99
3.22
-0.33
-3.37
-5.81
-7.84
-9.88
-12.46
-16.07
-20.92
-26.74
-32.71
-37.59
-40.04
-39.04
-34.28
-26.25
-16.18
-5.57
4.17
12.08
17.75
21.21
22.72
22.58
21.13
18.81
16.12
13.66
11.91
11.11
11.26
12.06
13.17
14.27
15.18
15.80
16.06
15.87
15.18
13.91
12.06
9.71
6.98
4.05
1.09
-1.70
-4.22
-6.44
-8.56
-10.91
-13.93
-17.91
-22.88
-28.40
-33.58
-37.26
-38.31
-36.02
-30.29
-21.73
-11.50
-0.97
8.64
16.47
22.13
25.55
26.85
26.29
24.19
21.05
17.54
14.41
12.35
11.71
12.43
13.97
15.62
16.67
16.81
16.06
14.72
13.15
11.51
9.71
7.51
4.71
1.34
-2.28
-5.71
-8.58
-10.75
-12.38
-13.88
-15.73
-18.35
-21.98
-26.54
-31.64
-36.50
-40.06
-41.20
-39.06
-33.37
-24.61
-13.92
-2.79
7.42
15.78
21.86
25.67
27.44
27.47
26.16
23.93
21.37
19.04
17.37
16.59
16.66
17.36
18.27
19.01
19.21
18.68
17.43
15.74
13.91
12.16
10.51
8.69
6.38
3.40
-0.12
-3.81
-7.22
-10.10
-12.54
-14.87
-17.55
-20.93
-25.17
-30.12
-35.31
-39.92
-42.94
-43.38
-40.51
-34.18
-24.95
-13.97
-2.72
7.43
15.49
20.98
23.88
24.54
23.42
21.09
18.19
15.33
13.08
11.80
11.59
12.26
13.39
14.54
15.40
15.79
15.70
15.19
14.24
12.82
10.89
8.52
5.87
3.20
0.67
-1.64
-3.73
-5.70
-7.62
-9.63
-11.94
-14.86
-18.67
-23.39
-28.63
-33.52
-36.91
-37.72
-35.29
-29.63
-21.42
-11.73
-1.74
7.50
15.26
21.10
24.83
26.46
26.23
24.60
22.27
20.06
18.65
18.34
18.94
19.84
20.34
19.92
18.47
16.28
13.83
11.53
9.53
7.69
5.71
3.30
0.29
-3.24
-7.03
-10.73
-13.98
-16.60
-18.68
-20.55
-22.66
-25.53
-29.43
-34.27
-39.53
-44.24
-47.23
-47.42
-44.14
-37.31
-27.58
-16.11
-4.29
6.55
15.44
21.83
25.61
26.99
26.43
24.52
21.92
19.24
16.99
15.53
14.99
15.28
16.09
16.98
17.49
17.36
16.52
15.16
13.54
11.87
10.14
8.18
5.77
2.79
-0.62
-4.13
-7.37
-10.03
-12.08
-13.71
-15.31
-17.34
-20.20
-24.11
-28.94
-34.15
-38.79
-41.70
-41.83
-38.57
-32.00
-22.82
-12.22
-1.50
8.14
15.82
21.06
23.75
24.14
22.77
20.30
17.47
14.89
12.99
11.94
11.75
12.18
12.93
13.67
14.18
14.36
14.24
13.92
13.43
12.65
11.36
9.36
6.60
3.28
-0.27
-3.70
-6.82
-9.61
-12.19
-14.77
-17.54
-20.67
-24.21
-28.04
-31.72
-34.50
-35.48
-33.87
-29.27
-21.95
-12.77
-2.99
6.14
13.68
19.09
22.23
23.22
22.39
20.20
17.27
14.30
11.93
10.58
10.32
10.90
11.83
12.62
12.99
12.83
12.24
11.33
10.11
8.53
6.51
4.03
1.17
-1.82
-4.68
-7.16
-9.13
-10.64
-11.88
-13.20
-14.96
-17.58
-21.29
-26.04
-31.36
-36.33
-39.80
-40.66
-38.21
-32.43
-23.96
-13.88
-3.49
6.09
14.10
20.07
23.85
25.43
24.98
22.86
19.65
16.11
13.01
10.96
10.21
10.65
11.85
13.29
14.53
15.36
15.74
15.68
15.18
14.15
12.47
10.06
6.99
3.48
-0.12
-3.49
-6.37
-8.71
-10.67
-12.59
-14.89
-17.94
-21.97
-26.92
-32.41
-37.71
-41.82
-43.67
-42.38
-37.57
-29.54
-19.26
-8.12
2.46
11.43
18.28
22.97
25.80
27.05
27.02
25.94
24.16
22.21
20.68
20.08
20.61
22.05
23.93
25.68
26.89
27.42
27.35
26.83
25.94
24.63
22.79
20.35
17.42
14.36
11.65
9.81
9.00
8.95
8.85
7.62
4.26
-1.75
-10.20
-20.10
-29.92
-38.05
-43.17
-44.58
-42.29
-36.94
-29.61
-21.48
-13.62
-6.81
-1.43
2.42
4.91
6.32
6.98
7.24
7.40
7.70
8.28
9.14
10.17
11.20
12.04
12.58
12.79
12.66
12.22
11.39
10.01
7.86
4.76
0.81
-3.54
-7.56
-10.47
-11.80
-11.65
-10.72
-10.05
-10.62
-13.01
-17.25
-22.81
-28.95
-34.79
-39.43
-42.03
-41.83
-38.39
-31.77
-22.75
-12.61
-2.76
5.80
12.65
17.87
21.69
24.15
25.05
24.29
22.09
19.17
16.43
14.58
13.76
13.52
13.15
12.10
10.29
8.03
5.78
3.94
2.58
1.49
0.21
-1.85
-5.13
-9.64
-14.85
-19.69
-23.08
-24.41
-23.95
-22.70
-21.90
-22.34
-23.94
-25.94
-27.27
-27.19
-25.53
-22.46
-18.21
-12.76
-5.92
2.44
12.03
21.97
30.90
37.37
40.34
39.55
35.68
30.22
24.98
21.51
20.63
22.23
25.45
29.02
31.69
32.36
30.25
24.97
16.88
7.27
-1.52
-6.69
-6.13
0.45
10.92
21.28
27.22
25.97
17.62
4.90
-8.25
-18.64
-25.10
-28.61
-31.01
-33.55
-35.86
-36.31
-33.13
-25.65
-14.97
-3.46
6.36
12.88
16.02
16.86
16.85
16.93
17.17
16.94
15.52
12.61
8.70
4.95
2.58
2.28
3.77
5.94
7.40
7.14
5.05
1.76
-1.65
-4.39
-6.22
-7.43
-8.55
-10.04
-12.04
-14.51
-17.27
-20.22
-23.26
-26.38
-29.57
-32.85
-36.13
-39.18
-41.43
-42.04
-40.15
-35.28
-27.58
-17.94
-7.64
1.97
9.97
15.90
19.72
21.63
21.91
20.90
19.10
17.06
15.33
14.29
13.96
14.11
14.37
14.46
14.26
13.84
13.30
12.64
11.78
10.58
8.96
6.89
4.48
1.87
-0.81
-3.46
-6.01
-8.44
-10.77
-13.14
-15.72
-18.79
-22.45
-26.50
-30.34
-32.96
-33.25
-30.42
-24.32
-15.61
-5.56
4.36
12.87
19.27
23.34
25.26
25.36
24.02
21.68
18.82
16.01
13.75
12.42
12.11
12.67
13.72
14.85
15.68
16.01
15.80
15.10
14.03
12.66
11.02
9.14
7.08
4.90
2.67
0.43
-1.84
-4.25
-6.96
-10.14
-13.87
-18.03
-22.22
-25.74
-27.73
-27.37
-24.21
-18.35
-10.50
-1.76
6.65
13.73
18.88
21.91
22.94
22.28
20.29
17.35
13.86
10.30
7.16
4.90
3.78
3.81
4.74
6.11
7.42
8.31
8.59
8.27
7.49
6.47
5.36
4.26
3.13
1.85
0.24
-1.91
-4.81
-8.59
-13.33
-18.83
-24.56
-29.58
-32.69
-32.75
-29.18
-22.17
-12.74
-2.38
7.43
15.67
21.85
25.95
28.12
28.51
27.22
24.45
20.62
16.41
12.60
9.81
8.36
8.13
8.67
9.42
9.89
9.81
9.06
7.71
5.82
3.51
0.86
-1.97
-4.82
-7.54
-10.06
-12.48
-15.07
-18.19
-22.17
-26.99
-32.21
-36.79
-39.46
-39.03
-34.87
-27.19
-17.04
-5.90
4.70
13.58
20.16
24.35
26.37
26.62
25.50
23.39
20.70
17.86
15.30
13.38
12.31
12.10
12.56
13.37
14.19
14.69
14.59
13.69
11.89
9.22
5.87
2.22
-1.38
-4.64
-7.53
-10.27
-13.29
-16.95
-21.43
-26.45
-31.32
-35.03
-36.53
-35.08
-30.51
-23.34
-14.54
-5.29
3.44
10.97
16.97
21.34
24.00
24.96
24.37
22.58
20.07
17.42
15.05
13.24
12.00
11.27
10.92
10.78
10.67
10.34
9.53
8.08
5.93
3.24
0.22
-2.87
-5.86
-8.77
-11.70
-14.92
-18.62
-22.88
-27.52
-32.12
-36.01
-38.34
-38.33
-35.50
-29.83
-21.88
-12.64
-3.33
4.99
11.62
16.33
19.26
20.70
20.91
20.10
18.44
16.26
14.01
12.22
11.32
11.39
12.20
13.21
13.87
13.77
12.81
11.16
9.08
6.85
4.58
2.28
-0.10
-2.62
-5.35
-8.41
-12.01
-16.36
-21.49
-27.05
-32.28
-36.08
-37.39
-35.52
-30.47
-22.92
-14.08
-5.24
2.54
8.66
12.98
15.67
16.97
17.13
16.36
14.88
13.02
11.14
9.70
9.07
9.43
10.67
12.41
14.08
15.12
15.19
14.27
12.59
10.52
8.31
6.04
3.58
0.69
-2.85
-7.16
-12.25
-17.95
-23.89
-29.40
-33.55
-35.37
-34.06
-29.39
-21.80
-12.35
-2.48
6.49
13.66
18.67
21.64
22.88
22.65
21.12
18.43
14.95
11.33
8.37
6.71
6.55
7.49
8.74
9.56
9.47
8.48
6.93
5.15
3.39
1.68
-0.08
-2.00
-4.20
-6.85
-10.16
-14.29
-19.24
-24.63
-29.67
-33.29
-34.51
-32.66
-27.67
-20.11
-10.98
-1.50
7.25
14.42
19.58
22.65
23.80
23.37
21.77
19.43
16.75
14.12
11.88
10.34
9.64
9.71
10.22
10.63
10.42
9.27
7.21
4.54
1.70
-0.98
-3.48
-6.03
-8.96
-12.56
-16.98
-22.14
-27.78
-33.38
-38.21
-41.35
-41.93
-39.37
-33.71
-25.54
-15.94
-6.09
2.97
10.60
16.46
20.54
22.97
23.92
23.64
22.38
20.44
18.15
15.89
14.02
12.79
12.30
12.35
12.56
12.50
11.78
10.29
8.11
5.52
2.80
0.11
-2.50
-5.15
-7.98
-11.17
-14.87
-19.19
-24.10
-29.29
-34.13
-37.67
-38.89
-37.02
-31.84
-23.83
-14.02
-3.71
5.93
14.06
20.26
24.40
26.58
27.01
26.00
23.99
21.44
18.79
16.41
14.54
13.32
12.81
12.88
13.34
13.86
14.07
13.66
12.48
10.53
7.92
4.86
1.53
-1.93
-5.42
-8.93
-12.56
-16.47
-20.86
-25.76
-30.91
-35.65
-39.06
-40.13
-38.15
-32.92
-24.89
-15.05
-4.70
4.85
12.62
18.13
21.39
22.78
22.77
21.76
20.03
17.77
15.27
12.89
11.01
9.87
9.44
9.41
9.36
8.95
8.07
6.88
5.61
4.44
3.36
2.13
0.48
-1.84
-4.86
-8.43
-12.28
-16.14
-19.92
-23.68
-27.53
-31.36
-34.75
-36.91
-36.96
-34.23
-28.56
-20.45
-10.89
-1.13
7.71
14.80
19.79
22.71
23.86
23.68
22.61
21.07
19.38
17.85
16.68
16.02
15.94
16.31
16.92
17.43
17.49
16.90
15.57
13.58
11.14
8.51
5.95
3.62
1.60
-0.18
-1.81
-3.42
-5.16
-7.21
-9.80
-13.11
-17.12
-21.42
-25.18
-27.30
-26.79
-23.17
-16.69
-8.25
0.82
9.30
16.34
21.56
24.95
26.67
26.88
25.74
23.52
20.61
17.60
15.10
13.59
13.28
13.98
15.27
16.60
17.52
17.82
17.53
16.81
15.79
14.50
12.86
10.83
8.42
5.82
3.25
0.89
-1.28
-3.48
-6.06
-9.37
-13.56
-18.40
-23.31
-27.41
-29.71
-29.47
-26.36
-20.62
-13.02
-4.60
3.56
10.61
15.99
19.47
21.09
21.05
19.69
17.44
14.81
12.29
10.30
9.07
8.61
8.74
9.13
9.48
9.57
9.33
8.78
7.95
6.79
5.16
2.96
0.18
-3.03
-6.37
-9.56
-12.41
-14.92
-17.24
-19.66
-22.42
-25.61
-29.02
-32.08
-33.98
-33.86
-31.11
-25.67
-18.14
-9.60
-1.28
5.82
11.11
14.46
16.00
15.96
14.66
12.45
9.81
7.27
5.32
4.31
4.32
5.17
6.52
7.94
9.02
9.47
9.19
8.22
6.74
4.96
3.02
0.98
-1.11
-3.22
-5.34
-7.49
-9.83
-12.64
-16.13
-20.26
-24.59
-28.25
-30.22
-29.68
-26.27
-20.34
-12.74
-4.60
3.08
9.64
14.77
18.41
20.56
21.21
20.40
18.28
15.28
11.99
8.98
6.78
5.59
5.36
5.78
6.45
6.91
6.81
5.93
4.29
2.09
-0.36
-2.76
-4.95
-6.95
-8.93
-11.08
-13.54
-16.42
-19.78
-23.64
-27.88
-32.12
-35.63
-37.45
-36.65
-32.76
-25.93
-17.04
-7.35
1.87
9.71
15.70
19.76
22.02
22.60
21.68
19.52
16.49
13.12
9.98
7.52
5.96
5.28
5.25
5.56
5.89
6.00
5.72
4.96
3.70
1.97
-0.13
-2.43
-4.77
-7.04
-9.22
-11.41
-13.86
-16.84
-20.56
-25.03
-29.91
-34.49
-37.84
-38.98
-37.20
-32.32
-24.73
-15.40
-5.53
3.70
11.37
16.98
20.40
21.80
21.52
19.98
17.65
14.99
12.44
10.39
9.12
8.74
9.18
10.21
11.50
12.68
13.40
13.38
12.52
10.83
8.44
5.61
2.62
-0.30
-3.01
-5.53
-7.99
-10.63
-13.69
-17.35
-21.65
-26.37
-30.97
-34.61
-36.35
-35.40
-31.37
-24.48
-15.53
-5.71
3.79
11.96
18.22
22.36
24.43
24.63
23.29
20.83
17.78
14.76
12.36
10.96
10.71
11.38
12.59
13.83
14.69
14.89
14.38
13.21
11.49
9.31
6.76
3.92
0.90
-2.10
-4.87
-7.26
-9.24
-10.97
-12.76
-14.97
-17.86
-21.49
-25.61
-29.67
-32.89
-34.46
-33.70
-30.27
-24.27
-16.31
-7.37
1.46
9.21
15.27
19.38
21.61
22.23
21.56
19.96
17.85
15.66
13.83
12.70
12.41
12.84
13.67
14.51
15.05
15.16
14.85
14.21
13.23
11.85
9.95
7.46
4.47
1.18
-2.10
-5.08
-7.58
-9.59
-11.31
-13.13
-15.52
-18.87
-23.27
-28.38
-33.35
-37.02
-38.23
-36.24
-30.98
-23.01
-13.40
-3.36
6.03
13.97
19.95
23.72
25.25
24.75
22.71
19.87
17.02
14.86
13.73
13.65
14.27
15.13
15.78
15.96
15.67
15.01
14.17
13.27
12.27
11.02
9.29
6.97
4.11
0.96
-2.13
-4.86
-7.13
-9.02
-10.78
-12.74
-15.20
-18.36
-22.17
-26.34
-30.18
-32.75
-33.08
-30.47
-24.85
-16.77
-7.30
2.35
11.13
18.37
23.73
27.14
28.66
28.46
26.87
24.30
21.29
18.40
16.10
14.71
14.32
14.76
15.65
16.50
16.81
16.31
15.00
13.11
10.93
8.66
6.31
3.78
0.98
-1.98
-4.87
-7.37
-9.29
-10.63
-11.71
-12.97
-14.88
-17.71
-21.37
-25.29
-28.59
-30.23
-29.44
-25.90
-19.93
-12.27
-3.90
4.29
11.61
17.54
21.77
24.08
24.48
23.21
20.81
17.97
15.37
13.50
12.58
12.54
13.12
13.99
14.88
15.60
16.07
16.22
15.97
15.18
13.75
11.62
8.96
6.04
3.21
0.76
-1.21
-2.80
-4.28
-6.02
-8.42
-11.71
-15.90
-20.65
-25.29
-28.92
-30.69
-30.02
-26.72
-21.04
-13.55
-5.11
3.31
10.76
16.40
19.72
20.62
19.47
16.95
13.85
10.77
8.10
5.94
4.33
3.32
2.97
3.34
4.30
5.60
6.82
7.55
7.49
6.55
4.88
2.72
0.38
-1.94
-4.12
-6.13
-7.97
-9.73
-11.57
-13.75
-16.59
-20.27
-24.65
-29.12
-32.70
-34.27
-32.94
-28.50
-21.41
-12.79
-3.92
4.03
10.26
14.44
16.61
17.03
16.09
14.24
11.93
9.56
7.47
5.84
4.77
4.28
4.33
4.80
5.51
6.20
6.58
6.42
5.62
4.25
2.45
0.40
-1.82
-4.18
-6.71
-9.40
-12.18
-15.01
-17.93
-21.13
-24.80
-28.94
-33.14
-36.58
-38.19
-37.09
-32.90
-25.95
-17.19
-7.87
0.86
8.15
13.60
17.13
18.85
19.01
17.89
15.86
13.34
10.80
8.68
7.32
6.90
7.39
8.59
10.16
11.67
12.70
12.92
12.16
10.50
8.20
5.60
3.06
0.75
-1.34
-3.38
-5.60
-8.21
-11.35
-15.14
-19.61
-24.52
-29.34
-33.14
-34.82
-33.47
-28.78
-21.23
-11.98
-2.51
5.85
12.31
16.63
19.04
19.93
19.63
18.40
16.48
14.15
11.79
9.84
8.63
8.32
8.79
9.72
10.74
11.57
12.08
12.28
12.16
11.63
10.52
8.72
6.28
3.48
0.68
-1.87
-4.11
-6.29
-8.80
-11.99
-15.99
-20.59
-25.28
-29.31
-31.84
-32.12
-29.68
-24.48
-17.01
-8.18
0.87
9.05
15.54
19.93
22.20
22.58
21.46
19.24
16.33
13.18
10.27
8.07
6.93
6.97
8.03
9.61
11.19
12.26
12.54
11.99
10.68
8.76
6.42
3.86
1.26
-1.22
-3.46
-5.47
-7.39
-9.48
-12.05
-15.29
-19.21
-23.48
-27.38
-29.98
-30.31
-27.76
-22.34
-14.74
-6.14
2.16
9.16
14.36
17.64
19.20
19.24
17.99
15.69
12.75
9.67
7.03
5.31
4.70
5.17
6.43
8.06
9.59
10.60
10.73
9.79
7.83
5.11
2.01
-1.06
-3.84
-6.24
-8.41
-10.60
-13.14
-16.29
-20.16
-24.61
-29.13
-32.95
-35.18
-34.94
-31.81
-25.86
-17.69
-8.27
1.28
9.98
17.09
22.15
24.99
25.61
24.30
21.52
17.92
14.24
11.13
9.00
7.99
7.94
8.55
9.49
10.48
11.27
11.67
11.47
10.55
8.88
6.58
3.84
0.84
-2.30
-5.63
-9.25
-13.27
-17.73
-22.59
-27.70
-32.72
-37.14
-40.20
-41.09
-39.13
-34.03
-26.13
-16.38
-6.06
3.48
11.25
16.74
19.96
21.21
20.90
19.46
17.23
14.61
12.01
9.85
8.49
8.09
8.55
9.52
10.57
11.31
11.51
11.07
10.04
8.51
6.55
4.23
1.60
-1.28
-4.37
-7.61
-11.04
-14.74
-18.82
-23.29
-27.93
-32.20
-35.29
-36.32
-34.56
-29.76
-22.26
-12.96
-3.08
6.19
13.87
19.38
22.57
23.59
22.85
20.83
18.06
15.05
12.25
10.07
8.82
8.67
9.54
11.12
12.90
14.34
15.04
14.78
13.63
11.71
9.25
6.38
3.22
-0.11
-3.48
-6.79
-10.06
-13.51
-17.50
-22.32
-27.96
-33.90
-39.08
-42.19
-42.10
-38.26
-30.90
-21.05
-10.11
0.52
9.75
16.99
22.05
25.03
26.15
25.76
24.32
22.37
20.41
18.84
17.82
17.35
17.27
17.43
17.70
17.98
18.16
18.06
17.48
16.24
14.24
11.55
8.38
5.00
1.70
-1.33
-3.99
-6.38
-8.70
-11.29
-14.50
-18.62
-23.69
-29.41
-35.08
-39.63
-41.90
-40.95
-36.39
-28.54
-18.40
-7.36
3.19
12.17
19.05
23.70
26.35
27.28
26.81
25.32
23.28
21.24
19.79
19.31
19.92
21.32
23.00
24.34
24.90
24.57
23.56
22.22
20.83
19.40
17.68
15.37
12.27
8.52
4.52
0.74
-2.50
-5.22
-7.67
-10.26
-13.33
-17.04
-21.43
-26.37
-31.54
-36.33
-39.86
-41.06
-39.10
-33.67
-25.23
-14.89
-4.07
5.94
14.26
20.54
24.77
27.10
27.76
27.02
25.28
23.09
21.10
19.85
19.60
20.25
21.41
22.59
23.40
23.68
23.54
23.19
22.82
22.38
21.67
20.36
18.18
15.06
11.18
6.94
2.79
-0.88
-3.86
-6.17
-8.04
-9.80
-11.83
-14.50
-18.04
-22.49
-27.56
-32.53
-36.37
-37.89
-36.20
-31.03
-22.88
-12.96
-2.77
6.37
13.70
18.98
22.39
24.17
24.46
23.36
21.07
18.11
15.25
13.36
13.02
14.29
16.73
19.51
21.83
23.17
23.38
22.65
21.27
19.50
17.50
15.35
13.10
10.76
8.33
5.74
2.94
-0.10
-3.29
-6.38
-9.16
-11.49
-13.47
-15.43
-17.81
-20.99
-25.01
-29.43
-33.40
-35.80
-35.65
-32.38
-26.06
-17.42
-7.61
2.15
10.85
17.82
22.80
25.74
26.75
26.01
23.83
20.68
17.20
14.09
11.95
11.13
11.59
12.96
14.68
16.21
17.17
17.40
17.00
16.13
14.96
13.60
12.06
10.28
8.21
5.84
3.23
0.53
-2.10
-4.56
-6.79
-8.82
-10.78
-12.82
-15.21
-18.17
-21.84
-26.11
-30.49
-34.17
-36.16
-35.64
-32.23
-26.15
-18.15
-9.27
-0.53
7.26
13.54
18.05
20.72
21.64
21.05
19.30
16.90
14.34
12.12
10.62
10.03
10.35
11.32
12.55
13.65
14.33
14.46
14.05
13.17
11.90
10.22
8.12
5.62
2.78
-0.24
-3.27
-6.16
-8.78
-11.11
-13.17
-15.09
-17.07
-19.39
-22.31
-25.89
-29.91
-33.76
-36.54
-37.31
-35.36
-30.54
-23.21
-14.25
-4.75
4.21
11.84
17.59
21.23
22.77
22.41
20.55
17.72
14.50
11.41
8.88
7.17
6.34
6.32
6.87
7.71
8.48
8.95
8.97
8.55
7.79
6.77
5.54
4.03
2.16
-0.16
-2.87
-5.81
-8.75
-11.47
-13.87
-15.98
-17.97
-20.11
-22.68
-25.95
-30.00
-34.66
-39.39
-43.35
-45.52
-45.03
-41.45
-34.96
-26.34
-16.69
-7.13
1.52
8.76
14.41
18.36
20.56
21.00
19.87
17.63
14.94
12.56
11.04
10.62
11.11
12.11
13.13
13.82
14.05
13.86
13.41
12.80
12.02
10.97
9.46
7.33
4.53
1.17
-2.56
-6.35
-9.93
-13.07
-15.65
-17.70
-19.41
-21.19
-23.56
-26.98
-31.55
-36.88
-41.97
-45.51
-46.25
-43.46
-37.17
-28.16
-17.64
-6.89
3.01
11.33
17.64
21.76
23.70
23.69
22.17
19.80
17.22
15.01
13.54
12.92
13.06
13.76
14.75
15.71
16.33
16.41
15.88
14.83
13.44
11.86
10.08
8.01
5.50
2.56
-0.59
-3.62
-6.27
-8.45
-10.36
-12.31
-14.64
-17.55
-21.09
-25.19
-29.60
-33.87
-37.26
-38.87
-37.87
-33.78
-26.79
-17.77
-7.95
1.36
9.22
15.19
19.21
21.48
22.25
21.77
20.32
18.30
16.24
14.69
14.05
14.43
15.60
17.11
18.43
19.16
19.16
18.49
17.37
16.03
14.63
13.14
11.41
9.27
6.62
3.47
0.00
-3.48
-6.68
-9.41
-11.64
-13.52
-15.40
-17.68
-20.71
-24.59
-29.00
-33.22
-36.16
-36.77
-34.32
-28.79
-20.78
-11.41
-1.90
6.73
13.82
19.08
22.39
23.79
23.42
21.60
18.89
15.98
13.53
11.99
11.46
11.74
12.48
13.32
14.04
14.53
14.81
14.89
14.74
14.28
13.37
11.86
9.73
7.03
4.02
1.03
-1.64
-3.87
-5.75
-7.60
-9.81
-12.69
-16.29
-20.41
-24.56
-28.05
-30.13
-30.14
-27.66
-22.66
-15.58
-7.29
1.13
8.66
14.52
18.34
20.10
20.04
18.52
15.99
12.88
9.68
6.87
4.89
4.03
4.34
5.57
7.27
8.93
10.17
10.86
11.00
10.67
9.87
8.55
6.58
3.95
0.82
-2.53
-5.76
-8.62
-11.02
-13.11
-15.21
-17.79
-21.21
-25.60
-30.68
-35.69
-39.52
-41.08
-39.59
-34.91
-27.51
-18.35
-8.60
0.68
8.67
14.86
19.00
21.08
21.23
19.79
17.25
14.27
11.52
9.58
8.79
9.09
10.11
11.32
12.27
12.75
12.81
12.65
12.35
11.80
10.71
8.80
5.97
2.41
-1.41
-4.98
-7.92
-10.10
-11.64
-12.88
-14.29
-16.31
-19.34
-23.53
-28.72
-34.26
-39.18
-42.27
-42.56
-39.53
-33.35
-24.83
-15.14
-5.46
3.23
10.37
15.68
19.11
20.75
20.74
19.43
17.36
15.20
13.64
13.11
13.71
15.09
16.70
17.96
18.50
18.26
17.50
16.55
15.69
14.99
14.29
13.32
11.75
9.45
6.46
3.03
-0.50
-3.86
-6.91
-9.72
-12.50
-15.57
-19.24
-23.68
-28.83
-34.33
-39.45
-43.19
-44.58
-42.92
-38.04
-30.37
-20.83
-10.52
-0.48
8.50
15.91
21.45
24.99
26.55
26.36
24.89
22.78
20.70
19.20
18.59
18.88
19.88
21.23
22.52
23.38
23.57
23.03
21.88
20.36
18.68
16.92
15.01
12.75
9.99
6.73
3.18
-0.31
-3.40
-5.92
-7.96
-9.78
-11.79
-14.34
-17.72
-22.06
-27.33
-33.15
-38.82
-43.24
-45.28
-43.95
-38.92
-30.62
-20.23
-9.25
0.92
9.31
15.58
19.85
22.43
23.69
23.91
23.41
22.49
21.51
20.80
20.63
21.10
22.18
23.67
25.29
26.74
27.70
27.91
27.28
25.89
24.01
21.93
19.85
17.77
15.50
12.78
9.52
5.83
2.05
-1.45
-4.41
-6.86
-9.05
-11.36
-14.15
-17.70
-22.10
-27.30
-32.94
-38.41
-42.81
-45.11
-44.42
-40.28
-32.86
-22.96
-11.89
-1.08
8.25
15.33
19.94
22.34
23.01
22.48
21.21
19.57
17.90
16.57
15.95
16.24
17.43
19.21
21.10
22.62
23.51
23.75
23.54
23.07
22.44
21.60
20.39
18.72
16.54
13.95
11.05
7.94
4.73
1.53
-1.47
-4.14
-6.38
-8.29
-10.13
-12.32
-15.28
-19.35
-24.51
-30.32
-35.83
-39.76
-40.82
-38.16
-31.74
-22.37
-11.51
-0.73
8.71
16.17
21.57
25.08
26.92
27.23
26.18
24.05
21.39
18.82
16.91
16.00
16.07
16.82
17.86
18.85
19.55
19.84
19.70
19.08
17.98
16.45
14.59
12.53
10.41
8.25
6.01
3.60
0.98
-1.78
-4.51
-6.97
-9.00
-10.54
-11.68
-12.72
-14.07
-16.13
-19.24
-23.41
-28.26
-32.94
-36.29
-37.17
-34.79
-29.03
-20.48
-10.34
-0.04
9.07
16.03
20.45
22.37
22.18
20.43
17.70
14.56
11.55
9.16
7.77
7.58
8.48
10.10
11.95
13.57
14.69
15.31
15.52
15.43
15.02
14.19
12.79
10.83
8.39
5.66
2.88
0.25
-2.10
-4.10
-5.77
-7.24
-8.69
-10.36
-12.48
-15.22
-18.70
-22.88
-27.46
-31.84
-35.10
-36.26
-34.55
-29.78
-22.43
-13.56
-4.41
3.99
10.96
16.29
19.96
22.07
22.66
21.86
19.92
17.28
14.49
12.13
10.60
10.07
10.46
11.44
12.60
13.54
13.98
13.80
13.05
11.86
10.38
8.73
6.91
4.87
2.51
-0.24
-3.35
-6.67
-9.90
-12.78
-15.13
-16.99
-18.62
-20.37
-22.62
-25.64
-29.55
-34.17
-39.01
-43.24
-45.74
-45.49
-41.82
-34.76
-25.06
-13.98
-2.96
6.81
14.51
19.79
22.62
23.21
21.98
19.50
16.46
13.54
11.29
9.95
9.44
9.44
9.52
9.34
8.75
7.89
7.03
6.52
6.48
6.77
6.99
6.59
5.10
2.28
-1.75
-6.63
-11.85
-16.83
-21.09
-24.30
-26.35
-27.45
-28.14
-29.17
-31.26
-34.81
-39.63
-44.86
-49.23
-51.38
-50.37
-45.93
-38.56
-29.27
-19.27
-9.63
-1.14
5.75
10.85
14.16
15.78
15.99
15.17
13.82
12.45
11.53
11.32
11.87
13.02
14.44
15.86
17.11
18.21
19.31
20.47
21.58
22.32
22.20
20.85
18.19
14.48
10.23
6.05
2.41
-0.48
-2.71
-4.58
-6.53
-8.98
-12.17
-16.16
-20.67
-25.21
-29.06
-31.48
-31.85
-29.82
-25.39
-18.92
-11.05
-2.56
5.80
13.38
19.70
24.41
27.35
28.43
27.74
25.52
22.32
18.83
15.84
13.97
13.47
14.18
15.65
17.32
18.82
19.93
20.69
21.13
21.23
20.80
19.62
17.61
14.87
11.68
8.37
5.13
1.92
-1.47
-5.32
-9.83
-15.02
-20.71
-26.49
-31.81
-35.96
-38.20
-37.84
-34.42
-27.97
-19.08
-8.80
1.59
10.94
18.48
23.90
27.24
28.75
28.68
27.29
24.87
21.80
18.50
15.35
12.61
10.35
8.58
7.21
6.21
5.49
4.92
4.30
3.41
2.15
0.51
-1.37
-3.38
-5.44
-7.54
-9.71
-11.95
-14.23
-16.54
-19.01
-21.92
-25.46
-29.57
-33.71
-36.94
-38.12
-36.36
-31.38
-23.66
-14.27
-4.56
4.28
11.49
16.73
20.03
21.50
21.32
19.72
17.06
13.87
10.75
8.20
6.48
5.58
5.28
5.34
5.59
5.96
6.36
6.64
6.55
5.85
4.42
2.36
-0.07
-2.50
-4.66
-6.43
-7.92
-9.46
-11.51
-14.51
-18.61
-23.55
-28.56
-32.50
-34.20
-32.81
-28.13
-20.66
-11.47
-1.83
7.10
14.48
19.92
23.35
24.93
24.95
23.75
21.74
19.34
16.91
14.85
13.40
12.71
12.75
13.32
14.09
14.63
14.62
13.78
12.11
9.70
6.79
3.65
0.45
-2.74
-5.86
-8.87
-11.82
-14.79
-18.06
-21.89
-26.39
-31.27
-35.77
-38.79
-39.18
-36.26
-30.03
-21.19
-10.92
-0.51
8.97
16.79
22.52
26.05
27.44
27.01
25.22
22.73
20.13
17.90
16.29
15.29
14.83
14.77
15.03
15.51
16.06
16.40
16.19
15.15
13.16
10.31
6.91
3.33
-0.14
-3.36
-6.33
-9.20
-12.17
-15.45
-19.27
-23.78
-28.90
-34.18
-38.71
-41.36
-41.07
-37.26
-30.09
-20.45
-9.64
0.93
10.21
17.54
22.70
25.73
26.78
26.10
24.05
21.16
18.11
15.56
14.03
13.73
14.53
16.02
17.67
19.06
19.91
20.18
19.83
18.86
17.22
14.79
11.56
7.68
3.40
-0.92
-4.97
-8.57
-11.77
-14.88
-18.33
-22.51
-27.54
-33.06
-38.26
-41.98
-43.10
-40.94
-35.46
-27.27
-17.43
-7.08
2.79
11.50
18.58
23.78
26.96
28.17
27.69
26.06
23.93
21.91
20.44
19.68
19.57
19.87
20.34
20.66
20.66
20.26
19.51
18.58
17.61
16.62
15.39
13.63
11.04
7.59
3.51
-0.72
-4.60
-7.83
-10.43
-12.65
-14.92
-17.63
-21.07
-25.30
-30.10
-34.88
-38.73
-40.55
-39.41
-34.87
-27.25
-17.51
-7.01
2.93
11.42
18.04
22.73
25.66
27.00
26.94
25.70
23.61
21.16
18.85
17.14
16.33
16.48
17.40
18.73
20.09
21.18
21.84
22.06
21.88
21.33
20.32
18.73
16.48
13.62
10.40
7.15
4.15
1.49
-0.91
-3.29
-5.89
-8.86
-12.29
-16.18
-20.51
-25.19
-29.98
-34.40
-37.75
-39.21
-38.13
-34.23
-27.76
-19.48
-10.41
-1.60
6.11
12.22
16.51
18.94
19.59
18.70
16.65
14.05
11.62
10.08
9.83
10.87
12.81
14.99
16.74
17.63
17.55
16.68
15.41
14.12
13.05
12.23
11.48
10.53
9.11
7.11
4.53
1.48
-1.87
-5.33
-8.78
-12.07
-15.15
-17.97
-20.56
-23.07
-25.60
-28.11
-30.29
-31.58
-31.39
-29.31
-25.37
-20.00
-13.93
-7.83
-2.23
2.65
6.77
10.16
12.85
14.89
16.36
17.39
18.15
18.75
19.20
19.47
19.50
19.32
19.02
18.72
18.49
18.37
18.32
18.25
18.04
17.57
16.72
15.37
13.45
11.01
8.24
5.38
2.64
0.13
-2.34
-5.04
-8.31
-12.29
-16.72
-21.04
-24.44
-26.12
-25.61
-22.85
-18.21
-12.35
-6.04
-0.03
5.08
8.91
11.18
11.87
11.12
9.28
6.82
4.22
1.89
0.09
-1.10
-1.70
-1.80
-1.50
-0.89
-0.05
0.86
1.65
2.09
1.99
1.21
-0.22
-2.14
-4.30
-6.42
-8.31
-9.94
-11.42
-12.98
-14.86
-17.26
-20.19
-23.44
-26.61
-29.11
-30.33
-29.77
-27.14
-22.51
-16.29
-9.20
-2.10
4.24
9.23
12.62
14.36
14.58
13.48
11.30
8.37
5.09
1.95
-0.61
-2.29
-3.05
-3.04
-2.54
-1.77
-0.96
-0.31
-0.04
-0.39
-1.51
-3.37
-5.79
-8.46
-11.13
-13.63
-15.97
-18.19
-20.33
-22.50
-24.74
-27.21
-29.98
-32.98
-35.79
-37.72
-37.94
-35.76
-30.96
-23.87
-15.31
-6.33
2.08
9.21
14.64
18.28
20.20
20.58
19.69
17.85
15.48
12.98
10.72
8.99
7.92
7.50
7.60
8.01
8.48
8.79
8.77
8.34
7.42
5.95
3.86
1.12
-2.18
-5.81
-9.44
-12.75
-15.56
-17.95
-20.16
-22.57
-25.48
-28.96
-32.76
-36.29
-38.73
-39.19
-37.05
-32.14
-24.88
-16.16
-7.12
1.24
8.24
13.61
17.36
19.59
20.36
19.78
18.08
15.69
13.20
11.22
10.16
10.11
10.86
11.99
13.09
13.90
14.30
14.31
13.97
13.24
12.05
10.30
7.95
5.10
1.97
-1.17
-4.07
-6.62
-8.88
-10.99
-13.19
-15.71
-18.79
-22.58
-27.04
-31.74
-35.92
-38.51
-38.48
-35.21
-28.74
-19.78
-9.56
0.59
9.52
16.54
21.40
24.20
25.25
24.94
23.70
21.97
20.16
18.70
17.91
17.95
18.72
19.93
21.16
22.04
22.39
22.16
21.51
20.50
19.19
17.53
15.48
13.03
10.25
7.32
4.38
1.56
-1.05
-3.38
-5.45
-7.30
-9.04
-10.92
-13.18
-16.09
-19.77
-24.07
-28.52
-32.25
-34.28
-33.77
-30.31
-24.07
-15.84
-6.71
2.17
9.92
16.02
20.31
22.90
24.01
23.97
23.09
21.71
20.15
18.71
17.68
17.28
17.61
18.59
19.93
21.20
22.02
22.11
21.47
20.35
19.05
17.84
16.73
15.55
14.02
11.98
9.40
6.52
3.63
1.01
-1.25
-3.22
-5.03
-6.87
-8.87
-11.19
-13.94
-17.15
-20.69
-24.12
-26.71
-27.65
-26.26
-22.28
-16.02
-8.23
0.04
7.74
14.05
18.50
21.04
21.98
21.81
21.04
20.03
18.91
17.69
16.36
15.07
14.12
13.76
14.10
14.97
16.00
16.74
16.94
16.56
15.73
14.60
13.25
11.65
9.81
7.77
5.70
3.78
2.15
0.83
-0.22
-1.13
-2.04
-3.09
-4.46
-6.33
-8.76
-11.74
-15.10
-18.51
-21.57
-23.77
-24.64
-23.80
-21.06
-16.54
-10.66
-4.09
2.41
8.11
12.48
15.27
16.48
16.30
15.08
13.26
11.25
9.42
8.03
7.23
7.03
7.36
8.01
8.70
9.08
8.91
8.14
6.91
5.57
4.43
3.65
3.16
2.70
1.95
0.73
-0.96
-2.88
-4.76
-6.37
-7.57
-8.45
-9.14
-9.88
-10.91
-12.43
-14.50
-16.96
-19.39
-21.12
-21.43
-19.79
-16.14
-10.90
-4.91
0.89
5.72
9.20
11.26
12.04
11.72
10.50
8.58
6.29
4.03
2.21
1.11
0.77
0.97
1.43
1.86
2.15
2.32
2.48
2.71
2.97
3.10
2.86
2.10
0.81
-0.83
-2.51
-4.02
-5.27
-6.38
-7.56
-8.97
-10.60
-12.30
-13.96
-15.57
-17.26
-19.16
-21.20
-23.04
-24.08
-23.76
-21.73
-18.09
-13.26
-7.87
-2.55
2.25
6.16
8.99
10.61
10.99
10.21
8.53
6.31
4.04
2.23
1.25
1.24
2.03
3.17
4.14
4.54
4.23
3.33
2.17
1.02
0.00
-0.89
-1.77
-2.75
-3.83
-5.01
-6.25
-7.50
-8.76
-9.99
-11.24
-12.52
-13.89
-15.41
-17.09
-18.89
-20.65
-22.15
-23.02
-22.84
-21.30
-18.26
-13.90
-8.77
-3.59
0.97
4.44
6.69
7.79
7.97
7.42
6.29
4.79
3.20
1.85
0.99
0.74
1.03
1.65
2.39
3.05
3.55
3.85
3.91
3.69
3.16
2.33
1.26
0.01
-1.35
-2.79
-4.29
-5.85
-7.41
-8.93
-10.40
-11.84
-13.28
-14.79
-16.44
-18.27
-20.29
-22.36
-24.15
-25.17
-24.87
-22.82
-18.89
-13.41
-7.09
-0.87
4.42
8.26
10.53
11.41
11.23
10.28
8.82
7.07
5.30
3.83
3.00
2.98
3.73
4.94
6.16
7.00
7.26
6.97
6.34
5.61
4.95
4.38
3.78
2.98
1.84
0.30
-1.53
-3.49
-5.32
-6.83
-7.99
-8.92
-9.83
-10.94
-12.46
-14.46
-16.89
-19.56
-22.17
-24.29
-25.44
-25.17
-23.18
-19.48
-14.38
-8.53
-2.68
2.50
6.60
9.49
11.30
12.22
12.37
11.79
10.57
8.90
7.17
5.80
5.12
5.14
5.61
6.15
6.47
6.49
6.23
5.85
5.37
4.76
3.98
3.00
1.80
0.43
-1.07
-2.58
-3.94
-4.98
-5.58
-5.85
-6.06
-6.58
-7.69
-9.48
-11.82
-14.53
-17.50
-20.72
-24.15
-27.54
-30.36
-31.87
-31.39
-28.56
-23.55
-17.02
-9.92
-3.20
2.45
6.69
9.48
11.03
11.59
11.38
10.59
9.43
8.17
7.10
6.60
6.85
7.87
9.44
11.14
12.49
13.17
13.02
12.12
10.71
9.07
7.39
5.69
3.84
1.69
-0.75
-3.33
-5.72
-7.59
-8.78
-9.41
-9.82
-10.47
-11.76
-13.89
-16.85
-20.44
-24.23
-27.66
-30.05
-30.74
-29.24
-25.44
-19.67
-12.64
-5.25
1.66
7.45
11.75
14.51
15.79
15.80
14.81
13.19
11.36
9.82
8.96
9.01
9.97
11.58
13.39
14.97
16.05
16.55
16.59
16.31
15.77
14.90
13.51
11.46
8.77
5.62
2.31
-0.89
-3.85
-6.51
-8.90
-11.07
-13.06
-15.02
-17.25
-20.07
-23.71
-28.08
-32.65
-36.52
-38.68
-38.32
-35.11
-29.29
-21.57
-12.97
-4.46
3.17
9.42
14.06
17.08
18.56
18.65
17.59
15.79
13.80
12.22
11.51
11.86
13.06
14.62
16.02
16.91
17.23
17.18
16.99
16.83
16.62
16.12
15.05
13.21
10.59
7.31
3.68
0.01
-3.41
-6.31
-8.64
-10.51
-12.14
-13.88
-16.08
-18.96
-22.58
-26.79
-31.20
-35.21
-38.06
-38.98
-37.40
-33.14
-26.50
-18.21
-9.25
-0.54
7.19
13.50
18.18
21.20
22.65
22.76
21.88
20.52
19.20
18.37
18.31
19.07
20.51
22.37
24.32
26.02
27.14
27.50
27.10
26.12
24.87
23.60
22.43
21.25
19.80
17.82
15.19
12.00
8.50
5.00
1.73
-1.19
-3.81
-6.31
-8.91
-11.96
-15.74
-20.43
-25.91
-31.71
-36.98
-40.71
-41.98
-40.26
-35.58
-28.52
-20.03
-11.12
-2.64
4.80
10.89
15.45
18.47
20.03
20.32
19.71
18.67
17.68
17.20
17.50
18.65
20.49
22.65
24.67
26.13
26.76
26.54
25.67
24.43
23.05
21.66
20.25
18.73
16.91
14.64
11.75
8.18
4.07
-0.26
-4.32
-7.68
-10.10
-11.74
-13.03
-14.62
-17.05
-20.57
-24.89
-29.21
-32.46
-33.50
-31.62
-26.72
-19.40
-10.73
-1.94
5.94
12.32
17.04
20.21
22.03
22.70
22.40
21.41
20.08
18.83
18.03
17.88
18.35
19.18
20.08
20.77
21.18
21.39
21.60
21.98
22.58
23.28
23.82
23.88
23.17
21.49
18.80
15.24
11.09
6.70
2.47
-1.31
-4.49
-7.15
-9.59
-12.24
-15.51
-19.62
-24.45
-29.49
-33.91
-36.70
-37.01
-34.33
-28.74
-20.85
-11.66
-2.31
6.28
13.47
18.98
22.74
24.82
25.37
24.64
23.04
21.09
19.35
18.21
17.84
18.17
18.91
19.72
20.22
20.18
19.44
18.04
16.18
14.17
12.31
10.75
9.44
8.09
6.34
3.89
0.67
-3.11
-7.02
-10.56
-13.43
-15.69
-17.85
-20.73
-25.06
-31.02
-37.94
-44.31
-48.24
-48.18
-43.66
-35.52
-25.73
-16.58
-9.78
-5.72
-3.40
-1.06
3.07
10.16
20.56
33.91
49.17
64.40
76.81
83.21
81.32
71.14
55.46
39.12
26.74
20.59
19.58
20.23
18.95
14.16
6.96
-0.02
-4.49
-6.07
-6.14
-6.66
-8.74
-11.99
-14.98
-16.40
-16.05
-14.98
-14.92
-17.27
-22.31
-29.06
-35.59
-39.90
-40.56
-37.18
-30.42
-21.60
-12.24
-3.53
3.92
10.02
15.00
19.05
22.09
23.87
24.10
22.72
20.12
17.02
14.31
12.73
12.58
13.75
15.76
18.02
20.01
21.41
22.10
22.08
21.40
20.07
18.15
15.73
12.99
10.13
7.34
4.66
2.04
-0.72
-3.77
-7.21
-11.05
-15.19
-19.43
-23.43
-26.65
-28.48
-28.30
-25.78
-20.98
-14.45
-7.01
0.44
7.15
12.67
16.80
19.54
21.02
21.40
20.93
19.87
18.55
17.29
16.35
15.88
15.88
16.22
16.67
16.97
16.96
16.53
15.62
14.23
12.32
9.91
7.03
3.83
0.47
-2.82
-5.90
-8.74
-11.42
-14.13
-17.10
-20.43
-24.01
-27.52
-30.37
-31.88
-31.45
-28.76
-23.90
-17.36
-9.85
-2.18
5.00
11.24
16.29
20.05
22.56
23.85
24.05
23.31
21.84
19.87
17.70
15.62
13.87
12.58
11.67
10.87
9.77
7.94
5.05
1.01
-4.06
-9.81
-15.78
-21.43
-26.23
-29.77
-31.86
-32.56
-32.29
-31.73
-31.69
-32.90
-35.62
-39.48
-43.47
-46.20
-46.40
-43.34
-37.13
-28.58
-18.88
-9.21
-0.52
6.60
11.81
14.93
16.01
15.40
13.75
11.94
10.77
10.67
11.62
13.15
14.57
15.36
15.23
14.27
12.79
11.19
9.77
8.65
7.80
7.03
6.11
4.88
3.24
1.25
-0.97
-3.32
-5.83
-8.73
-12.27
-16.58
-21.38
-25.93
-29.15
-29.97
-27.80
-22.74
-15.62
-7.65
-0.02
6.46
11.48
15.12
17.63
19.19
19.90
19.79
18.93
17.55
15.95
14.48
13.40
12.84
12.76
13.06
13.57
14.12
14.53
14.60
14.16
13.11
11.45
9.31
6.91
4.39
1.88
-0.59
-3.06
-5.56
-8.18
-11.06
-14.39
-18.23
-22.39
-26.29
-29.07
-29.84
-28.04
-23.64
-17.23
-9.76
-2.23
4.57
10.17
14.44
17.34
18.97
19.41
18.84
17.53
15.86
14.14
12.65
11.50
10.65
9.98
9.38
8.74
8.03
7.19
6.18
4.93
3.36
1.51
-0.55
-2.68
-4.78
-6.78
-8.73
-10.75
-12.99
-15.62
-18.75
-22.42
-26.49
-30.56
-33.97
-35.89
-35.57
-32.59
-27.06
-19.66
-11.44
-3.50
3.30
8.50
12.07
14.17
15.04
14.88
13.88
12.30
10.52
8.96
8.00
7.78
8.21
8.97
9.72
10.17
10.14
9.57
8.45
6.80
4.70
2.29
-0.20
-2.60
-4.82
-6.96
-9.25
-11.95
-15.27
-19.20
-23.48
-27.60
-30.83
-32.41
-31.72
-28.48
-22.91
-15.63
-7.54
0.41
7.43
13.02
16.98
19.31
20.14
19.73
18.40
16.52
14.52
12.79
11.64
11.20
11.41
12.00
12.60
12.86
12.53
11.56
10.02
8.03
5.75
3.29
0.76
-1.71
-4.09
-6.43
-8.94
-11.93
-15.66
-20.21
-25.31
-30.38
-34.58
-37.04
-37.04
-34.22
-28.69
-21.06
-12.31
-3.56
4.21
10.34
14.58
17.04
18.04
17.96
17.13
15.85
14.39
13.04
12.08
11.66
11.83
12.39
13.02
13.34
13.10
12.20
10.71
8.81
6.66
4.36
1.95
-0.55
-3.14
-5.79
-8.50
-11.35
-14.54
-18.27
-22.62
-27.41
-32.08
-35.75
-37.46
-36.44
-32.38
-25.59
-16.87
-7.38
1.76
9.64
15.78
20.04
22.58
23.71
23.79
23.20
22.22
21.11
20.05
19.14
18.46
18.04
17.85
17.81
17.79
17.58
16.97
15.77
13.84
11.15
7.79
3.95
-0.13
-4.18
-7.93
-11.21
-14.00
-16.43
-18.78
-21.44
-24.64
-28.41
-32.29
-35.53
-37.16
-36.39
-32.85
-26.79
-18.94
-10.29
-1.83
5.73
11.97
16.71
19.94
21.66
22.02
21.26
19.83
18.25
17.03
16.46
16.57
17.12
17.73
18.12
18.17
17.97
17.64
17.19
16.47
15.20
13.20
10.48
7.28
3.94
0.69
-2.39
-5.38
-8.45
-11.71
-15.23
-19.02
-23.12
-27.49
-31.85
-35.64
-37.99
-38.00
-35.12
-29.38
-21.54
-12.73
-4.15
3.36
9.43
14.05
17.33
19.36
20.14
19.76
18.54
16.97
15.62
14.94
15.04
15.74
16.63
17.38
17.76
17.81
17.63
17.40
17.13
16.70
15.86
14.34
11.99
8.82
5.10
1.23
-2.37
-5.47
-8.04
-10.28
-12.53
-15.14
-18.43
-22.51
-27.21
-32.00
-36.00
-38.15
-37.52
-33.65
-26.76
-17.72
-7.76
1.83
10.09
16.53
21.01
23.61
24.48
23.85
22.09
19.66
17.15
15.05
13.70
13.12
13.19
13.67
14.34
15.05
15.72
16.27
16.63
16.65
16.25
15.31
13.74
11.51
8.63
5.24
1.59
-1.95
-5.08
-7.73
-10.09
-12.61
-15.82
-20.08
-25.26
-30.79
-35.66
-38.75
-39.19
-36.66
-31.45
-24.30
-16.14
-7.84
-0.06
6.76
12.33
16.37
18.74
19.44
18.75
17.16
15.26
13.57
12.39
11.86
11.95
12.58
13.60
14.79
15.86
16.53
16.64
16.13
15.07
13.53
11.51
8.90
5.69
1.99
-1.86
-5.41
-8.31
-10.52
-12.35
-14.35
-17.10
-20.93
-25.74
-31.06
-36.03
-39.70
-41.15
-39.79
-35.44
-28.48
-19.71
-10.22
-1.09
6.84
13.10
17.56
20.36
21.73
21.90
21.08
19.53
17.58
15.72
14.42
14.04
14.65
15.98
17.54
18.76
19.27
19.01
18.21
17.18
16.11
14.93
13.33
11.02
7.85
4.03
-0.03
-3.88
-7.22
-9.99
-12.43
-14.86
-17.68
-21.19
-25.50
-30.53
-35.86
-40.74
-44.23
-45.39
-43.62
-38.86
-31.64
-22.95
-13.87
-5.30
2.24
8.55
13.63
17.50
20.13
21.49
21.66
20.92
19.75
18.67
18.10
18.21
18.85
19.69
20.32
20.46
20.02
19.10
17.90
16.63
15.36
13.99
12.34
10.23
7.61
4.57
1.32
-1.92
-5.02
-7.90
-10.60
-13.19
-15.80
-18.62
-21.88
-25.78
-30.37
-35.34
-40.05
-43.59
-44.99
-43.59
-39.18
-32.16
-23.37
-13.82
-4.47
3.92
10.89
16.17
19.61
21.25
21.26
20.04
18.17
16.27
14.88
14.30
14.58
15.52
16.82
18.15
19.23
19.84
19.90
19.36
18.28
16.78
14.96
12.93
10.69
8.22
5.43
2.34
-0.97
-4.28
-7.37
-10.10
-12.52
-14.87
-17.48
-20.70
-24.74
-29.51
-34.66
-39.48
-43.12
-44.67
-43.43
-39.12
-32.06
-23.06
-13.25
-3.81
4.37
10.84
15.54
18.63
20.34
20.88
20.42
19.18
17.54
15.99
15.02
14.98
15.88
17.42
19.11
20.44
21.08
20.99
20.33
19.43
18.49
17.57
16.49
14.96
12.72
9.68
5.98
1.96
-1.96
-5.46
-8.37
-10.75
-12.84
-15.00
-17.66
-21.14
-25.66
-31.05
-36.73
-41.74
-44.93
-45.28
-42.29
-36.12
-27.55
-17.74
-7.84
1.25
8.96
15.08
19.49
22.17
23.21
22.82
21.41
19.53
17.78
16.66
16.41
17.03
18.31
19.86
21.33
22.41
22.94
22.91
22.42
21.60
20.51
19.16
17.45
15.30
12.69
9.72
6.55
3.41
0.48
-2.16
-4.53
-6.73
-8.95
-11.44
-14.49
-18.33
-23.03
-28.36
-33.69
-38.18
-40.83
-40.85
-37.88
-32.09
-24.13
-14.99
-5.76
2.63
9.51
14.57
17.79
19.32
19.45
18.47
16.70
14.56
12.50
11.00
10.42
10.89
12.26
14.17
16.13
17.72
18.71
19.04
18.81
18.12
17.00
15.34
13.02
9.96
6.33
2.47
-1.15
-4.17
-6.49
-8.26
-9.90
-11.79
-14.30
-17.59
-21.72
-26.52
-31.57
-36.14
-39.25
-39.91
-37.46
-31.82
-23.60
-13.93
-4.04
4.98
12.41
17.95
21.54
23.26
23.31
21.99
19.76
17.21
14.92
13.37
12.79
13.16
14.23
15.64
16.99
18.05
18.68
18.89
18.73
18.26
17.40
16.04
14.01
11.23
7.81
4.01
0.23
-3.12
-5.81
-7.83
-9.45
-11.10
-13.30
-16.53
-21.00
-26.67
-33.08
-39.41
-44.63
-47.70
-47.76
-44.48
-38.06
-29.24
-19.11
-8.84
0.55
8.38
14.30
18.25
20.35
20.85
20.06
18.42
16.44
14.69
13.64
13.63
14.67
16.52
18.67
20.62
21.94
22.50
22.37
21.74
20.79
19.54
17.87
15.60
12.64
9.07
5.20
1.41
-1.97
-4.80
-7.21
-9.46
-11.98
-15.15
-19.25
-24.40
-30.48
-37.03
-43.24
-48.03
-50.25
-49.02
-44.06
-35.81
-25.41
-14.27
-3.72
5.25
12.11
16.68
18.93
18.91
16.84
13.20
8.77
4.53
1.29
-0.53
-1.01
-0.62
0.11
0.87
1.61
2.55
3.99
6.10
8.89
12.04
14.91
16.43
15.30
10.40
1.41
-10.77
-24.06
-35.81
-43.81
-47.10
-46.33
-43.25
-39.88
-37.74
-37.41
-38.66
-40.89
-43.43
-45.71
-47.21
-47.33
-45.43
-41.05
-34.09
-24.98
-14.62
-4.17
5.27
12.92
18.54
22.29
24.68
26.21
27.34
28.33
29.38
30.57
31.98
33.56
35.13
36.42
37.22
37.52
37.47
37.32
37.14
36.81
36.01
34.43
32.04
29.05
25.89
22.89
20.21
17.72
15.20
12.35
8.95
4.78
-0.30
-6.29
-12.89
-19.39
-24.76
-27.88
-27.94
-24.68
-18.47
-10.20
-0.99
8.10
16.22
22.81
27.51
30.18
30.88
29.92
27.81
25.20
22.68
20.69
19.39
18.69
18.35
18.08
17.69
17.07
16.25
15.22
13.94
12.26
10.02
7.09
3.54
-0.37
-4.27
-7.82
-10.81
-13.31
-15.56
-17.95
-20.91
-24.77
-29.62
-35.24
-40.97
-45.75
-48.39
-47.91
-43.87
-36.62
-27.14
-16.71
-6.54
2.58
10.24
16.33
20.78
23.54
24.62
24.25
22.92
21.35
20.24
20.00
20.63
21.78
22.98
23.86
24.30
24.42
24.42
24.43
24.36
23.98
23.02
21.35
19.04
16.41
13.82
11.56
9.67
7.91
5.89
3.20
-0.48
-5.21
-10.79
-16.76
-22.44
-26.97
-29.50
-29.31
-26.02
-19.70
-10.87
-0.34
10.96
22.19
32.59
41.52
48.40
52.81
54.55
53.82
51.28
47.82
44.34
41.41
39.17
37.32
35.34
32.79
29.42
25.25
20.55
15.64
10.81
6.18
1.77
-2.51
-6.67
-10.61
-14.02
-16.53
-17.82
-17.79
-16.63
-14.82
-12.91
-11.43
-10.79
-11.19
-12.59
-14.72
-17.11
-19.15
-20.23
-19.98
-18.37
-15.71
-12.50
-9.23
-6.19
-3.46
-0.98
1.16
2.71
3.19
2.24
-0.24
-3.88
-7.94
-11.56
-14.07
-15.25
-15.29
-14.69
-13.91
-13.19
-12.48
-11.65
-10.62
-9.54
-8.73
-8.52
-9.07
-10.22
-11.64
-12.95
-13.96
-14.71
-15.44
-16.49
-18.08
-20.35
-23.36
-27.04
-31.19
-35.33
-38.70
-40.33
-39.36
-35.30
-28.31
-19.17
-9.03
0.94
9.84
17.18
22.79
26.72
29.07
30.02
29.81
28.87
27.65
26.58
25.89
25.59
25.51
25.48
25.41
25.29
25.16
24.94
24.43
23.39
21.58
18.89
15.44
11.44
7.24
3.17
-0.54
-3.79
-6.70
-9.51
-12.58
-16.24
-20.71
-25.93
-31.49
-36.63
-40.35
-41.61
-39.70
-34.47
-26.41
-16.51
-6.03
3.88
12.42
19.07
23.66
26.23
26.95
26.21
24.49
22.39
20.42
18.93
18.00
17.50
17.23
17.01
16.77
16.45
16.02
15.42
14.48
13.07
11.01
8.25
4.83
0.96
-3.04
-6.80
-10.01
-12.62
-14.84
-17.15
-20.12
-24.16
-29.24
-34.80
-39.79
-42.95
-43.20
-40.00
-33.54
-24.75
-14.92
-5.34
3.04
9.77
14.78
18.19
20.14
20.74
20.15
18.64
16.60
14.50
12.70
11.34
10.39
9.70
9.14
8.64
8.16
7.59
6.71
5.24
2.89
-0.42
-4.55
-9.17
-13.87
-18.39
-22.76
-27.40
-32.94
-40.07
-49.21
-60.37
-73.04
-86.26
-98.71
-108.90
-115.44
-117.31
-114.06
-105.97
-93.98
-79.42
-63.69
-47.97
-33.03
-19.26
-6.80
4.27
13.93
22.16
29.00
34.55
38.95
42.45
45.32
47.88
50.42
53.09
55.86
58.52
60.69
62.01
62.22
61.23
59.07
55.91
51.93
47.38
42.55
37.76
33.24
29.07
25.15
21.26
17.18
12.75
7.86
2.44
-3.44
-9.46
-14.98
-18.98
-20.43
-18.66
-13.69
-6.34
2.08
10.23
17.16
22.48
26.30
28.92
30.59
31.44
31.56
31.03
30.04
28.84
27.66
26.57
25.49
24.26
22.72
20.87
18.88
17.05
15.63
14.70
14.05
13.31
12.01
9.87
6.89
3.35
-0.27
-3.52
-6.16
-8.23
-10.07
-12.17
-14.96
-18.66
-23.15
-27.95
-32.32
-35.37
-36.30
-34.55
-29.98
-22.93
-14.15
-4.70
4.37
12.14
18.03
21.82
23.59
23.64
22.37
20.27
17.84
15.57
13.81
12.71
12.21
12.09
12.13
12.15
12.15
12.21
12.38
12.60
12.64
12.19
10.96
8.87
5.98
2.65
-0.74
-3.79
-6.27
-8.22
-9.95
-11.96
-14.75
-18.55
-23.13
-27.82
-31.57
-33.33
-32.38
-28.51
-22.14
-14.09
-5.34
3.20
10.85
17.21
22.09
25.43
27.27
27.70
26.97
25.38
23.36
21.30
19.54
18.20
17.27
16.61
16.06
15.49
14.82
14.02
13.07
11.91
10.48
8.76
6.74
4.45
1.98
-0.57
-3.13
-5.63
-8.14
-10.74
-13.61
-16.91
-20.82
-25.38
-30.43
-35.49
-39.75
-42.29
-42.28
-39.30
-33.62
-26.08
-17.88
-10.11
-3.57
1.48
5.05
7.33
8.45
8.53
7.75
6.42
4.97
3.81
3.15
2.95
2.95
2.82
2.37
1.59
0.66
-0.18
-0.74
-0.99
-1.07
-1.26
-1.87
-3.11
-5.01
-7.40
-9.98
-12.39
-14.39
-15.96
-17.27
-18.71
-20.71
-23.63
-27.51
-32.04
-36.49
-39.87
-41.19
-39.71
-35.30
-28.35
-19.75
-10.58
-1.83
5.74
11.72
15.92
18.42
19.46
19.45
18.89
18.30
18.03
18.20
18.55
18.57
17.64
15.41
12.06
8.51
6.20
6.69
10.96
18.90
29.22
39.84
48.58
53.85
55.08
52.63
47.43
40.45
32.42
23.69
14.39
4.56
-5.71
-16.26
-26.69
-36.43
-44.57
-50.03
-51.86
-49.54
-43.26
-33.91
-22.90
-11.71
-1.56
6.82
13.22
17.67
20.37
21.54
21.42
20.38
18.90
17.45
16.34
15.66
15.25
14.92
14.56
14.18
13.89
13.67
13.30
12.49
10.95
8.66
5.87
3.05
0.60
-1.31
-2.84
-4.44
-6.65
-9.96
-14.60
-20.40
-26.77
-32.69
-36.95
-38.47
-36.65
-31.66
-24.37
-16.14
-8.29
-1.73
3.19
6.63
8.96
10.46
11.31
11.52
11.21
10.56
9.85
9.26
8.83
8.51
8.31
8.44
9.27
11.10
13.93
17.40
20.88
23.75
25.65
26.59
26.74
26.29
25.21
23.22
19.89
14.90
8.23
0.27
-8.13
-15.78
-21.49
-24.37
-24.13
-21.16
-16.42
-11.07
-6.09
-2.05
0.84
2.61
3.22
2.50
0.25
-3.51
-8.44
-13.84
-18.88
-22.93
-25.81
-27.78
-29.45
-31.40
-34.08
-37.57
-41.58
-45.69
-49.46
-52.59
-55.04
-57.00
-58.78
-60.68
-62.87
-65.42
-68.19
-70.84
-72.84
-73.42
-71.77
-67.27
-59.75
-49.60
-37.76
-25.41
-13.71
-3.49
4.76
10.88
14.90
16.95
17.30
16.37
14.69
12.99
12.03
12.48
14.76
18.86
24.27
30.03
35.03
38.27
39.27
38.18
35.84
33.40
32.10
32.88
36.03
40.89
45.83
48.48
46.29
37.43
21.56
0.32
-23.04
-44.44
-60.24
-68.22
-68.07
-61.18
-50.02
-37.44
-25.98
-17.60
-13.40
-13.55
-17.28
-23.12
-29.16
-33.63
-35.32
-33.90
-29.86
-24.33
-18.60
-13.78
-10.54
-9.11
-9.26
-10.48
-12.10
-13.37
-13.69
-12.74
-10.63
-8.01
-5.87
-5.31
-7.09
-11.48
-18.02
-25.79
-33.53
-40.02
-44.19
-45.30
-42.97
-37.28
-28.79
-18.43
-7.36
3.32
12.81
20.65
26.73
31.11
33.92
35.24
35.15
33.73
31.23
28.03
24.67
21.69
19.52
18.33
17.87
17.63
17.02
15.60
13.26
10.25
6.93
3.65
0.62
-2.21
-5.01
-8.04
-11.60
-15.91
-21.04
-26.78
-32.53
-37.34
-40.13
-40.02
-36.57
-30.04
-21.24
-11.33
-1.49
7.40
14.80
20.54
24.66
27.29
28.53
28.48
27.36
25.51
23.42
21.60
20.43
20.01
20.15
20.43
20.42
19.85
18.70
17.17
15.50
13.86
12.23
10.48
8.40
5.88
2.87
-0.64
-4.68
-9.38
-14.80
-20.85
-27.06
-32.54
-36.14
-36.81
-33.93
-27.60
-18.70
-8.52
1.58
10.57
17.96
23.67
27.89
30.73
32.19
32.19
30.79
28.31
25.32
22.51
20.48
19.48
19.40
19.87
20.33
20.35
19.64
18.18
16.07
13.51
10.64
7.56
4.35
1.10
-2.12
-5.31
-8.64
-12.44
-17.05
-22.60
-28.68
-34.33
-38.20
-38.99
-35.98
-29.32
-20.00
-9.47
0.81
9.82
17.07
22.50
26.31
28.70
29.82
29.86
29.02
27.68
26.23
25.04
24.29
23.96
23.84
23.66
23.20
22.35
21.07
19.35
17.16
14.41
11.07
7.21
3.04
-1.12
-5.00
-8.51
-11.82
-15.32
-19.44
-24.38
-29.93
-35.35
-39.54
-41.33
-39.87
-34.94
-27.02
-17.12
-6.47
3.83
13.04
20.76
26.83
31.23
34.00
35.29
35.36
34.58
33.36
32.00
30.69
29.45
28.31
27.29
26.46
25.82
25.27
24.60
23.53
21.82
19.37
16.20
12.47
8.41
4.23
0.15
-3.69
-7.27
-10.71
-14.31
-18.44
-23.39
-29.07
-34.93
-39.94
-42.81
-42.48
-38.42
-30.91
-20.97
-9.98
0.71
10.09
17.68
23.40
27.39
29.83
30.89
30.76
29.80
28.52
27.39
26.80
26.78
27.09
27.32
27.14
26.43
25.27
23.90
22.47
20.95
19.14
16.79
13.75
10.08
6.05
2.03
-1.64
-4.83
-7.63
-10.34
-13.43
-17.37
-22.42
-28.49
-35.01
-40.94
-45.05
-46.19
-43.72
-37.71
-28.87
-18.41
-7.59
2.58
11.45
18.75
24.38
28.36
30.73
31.58
31.20
29.97
28.42
27.05
26.16
25.82
25.84
25.89
25.67
25.05
24.10
23.04
22.09
21.28
20.43
19.18
17.20
14.28
10.51
6.28
2.07
-1.71
-4.89
-7.53
-9.93
-12.39
-15.18
-18.50
-22.45
-27.06
-32.18
-37.35
-41.72
-44.25
-43.91
-40.18
-33.23
-23.91
-13.51
-3.35
5.56
12.70
17.90
21.33
23.28
24.10
24.15
23.71
23.05
22.34
21.72
21.32
21.23
21.47
21.95
22.46
22.72
22.54
21.92
21.00
20.02
19.13
18.32
17.35
15.89
13.65
10.56
6.84
2.90
-0.76
-3.84
-6.30
-8.41
-10.56
-13.12
-16.27
-20.08
-24.53
-29.52
-34.78
-39.73
-43.43
-44.83
-43.11
-38.06
-30.22
-20.72
-10.91
-1.91
5.59
11.35
15.44
18.05
19.45
19.95
19.88
19.52
19.06
18.63
18.27
18.03
18.01
18.27
18.81
19.53
20.22
20.58
20.34
19.29
17.37
14.71
11.58
8.33
5.25
2.50
0.06
-2.19
-4.42
-6.70
-9.03
-11.38
-13.72
-16.15
-18.83
-21.95
-25.65
-29.97
-34.70
-39.45
-43.54
-46.15
-46.51
-44.09
-38.81
-31.12
-21.90
-12.24
-3.18
4.56
10.62
14.97
17.82
19.40
19.96
19.72
18.96
17.99
17.11
16.55
16.34
16.36
16.42
16.33
16.06
15.60
14.99
14.23
13.25
11.98
10.39
8.54
6.55
4.50
2.45
0.38
-1.74
-3.91
-6.09
-8.24
-10.32
-12.35
-14.36
-16.40
-18.60
-21.13
-24.31
-28.35
-33.25
-38.57
-43.41
-46.56
-46.89
-43.80
-37.45
-28.77
-19.04
-9.62
-1.42
5.13
10.07
13.65
16.09
17.56
18.17
18.05
17.49
16.81
16.32
16.22
16.48
16.97
17.50
17.95
18.24
18.30
18.02
17.27
15.99
14.19
12.05
9.79
7.53
5.28
2.92
0.35
-2.46
-5.38
-8.20
-10.74
-12.97
-15.07
-17.31
-20.04
-23.55
-27.96
-33.13
-38.55
-43.36
-46.51
-47.02
-44.32
-38.43
-30.01
-20.14
-10.03
-0.70
7.17
13.24
17.47
19.97
20.93
20.67
19.52
17.85
16.03
14.37
13.14
12.46
12.37
12.76
13.46
14.26
14.95
15.43
15.61
15.44
14.85
13.79
12.20
10.15
7.73
5.11
2.44
-0.21
-2.83
-5.44
-8.02
-10.54
-13.02
-15.55
-18.35
-21.72
-25.87
-30.72
-35.80
-40.27
-43.14
-43.58
-41.12
-35.84
-28.32
-19.48
-10.28
-1.56
6.11
12.44
17.31
20.73
22.71
23.35
22.85
21.59
20.05
18.78
18.11
18.09
18.48
18.86
18.88
18.40
17.50
16.34
15.12
13.89
12.59
11.13
9.45
7.51
5.35
2.99
0.46
-2.20
-4.93
-7.64
-10.24
-12.72
-15.18
-17.85
-21.06
-25.13
-30.18
-35.94
-41.67
-46.20
-48.29
-47.00
-42.09
-34.09
-24.18
-13.74
-3.98
4.35
10.95
15.86
19.26
21.35
22.31
22.39
21.88
21.18
20.66
20.57
20.98
21.78
22.70
23.42
23.70
23.41
22.55
21.24
19.65
17.88
16.02
14.05
11.93
9.57
6.93
3.97
0.72
-2.75
-6.29
-9.74
-12.98
-15.98
-18.86
-21.87
-25.34
-29.50
-34.40
-39.79
-45.10
-49.55
-52.25
-52.49
-49.81
-44.28
-36.37
-26.92
-16.86
-7.05
1.85
9.35
15.12
18.93
20.74
20.72
19.33
17.22
15.07
13.39
12.40
12.04
12.11
12.34
12.52
12.47
12.12
11.41
10.38
9.06
7.48
5.60
3.28
0.36
-3.32
-7.85
-13.19
-19.18
-25.51
-31.84
-37.72
-42.82
-47.04
-50.52
-53.68
-56.98
-60.75
-65.11
-69.88
-74.68
-78.88
-81.60
-81.72
-78.10
-69.89
-56.94
-39.99
-20.62
-0.84
17.46
32.91
44.86
53.20
58.15
60.05
59.33
56.51
52.27
47.38
42.57
38.35
34.99
32.54
30.93
30.09
29.96
30.47
31.43
32.52
33.31
33.42
32.66
31.07
28.85
26.23
23.31
20.04
16.36
12.28
7.97
3.71
-0.23
-3.70
-6.73
-9.50
-12.25
-15.22
-18.59
-22.43
-26.68
-30.99
-34.76
-37.18
-37.46
-35.07
-29.94
-22.55
-13.69
-4.32
4.66
12.54
18.81
23.16
25.55
26.13
25.33
23.73
22.01
20.73
20.27
20.74
21.93
23.45
24.81
25.63
25.68
25.01
23.81
22.31
20.69
19.01
17.18
15.11
12.73
10.04
7.14
4.16
1.26
-1.49
-4.10
-6.66
-9.41
-12.64
-16.61
-21.45
-27.04
-32.91
-38.27
-42.08
-43.34
-41.34
-35.94
-27.64
-17.49
-6.79
3.26
11.88
18.72
23.79
27.26
29.36
30.33
30.45
30.13
29.84
30.00
30.89
32.51
34.60
36.75
38.57
39.86
40.62
41.00
41.22
41.31
41.15
40.48
39.02
36.68
33.62
30.17
26.74
23.64
21.00
18.77
16.72
14.48
11.67
7.88
2.87
-3.37
-10.44
-17.62
-23.91
-28.30
-29.97
-28.58
-24.34
-18.01
-10.72
-3.60
2.50
7.23
10.61
12.90
14.31
14.86
14.41
12.94
10.66
8.09
5.90
4.61
4.34
4.85
5.64
6.25
6.47
6.32
6.01
5.75
5.58
5.40
4.94
3.94
2.19
-0.32
-3.40
-6.67
-9.73
-12.25
-14.16
-15.63
-17.08
-18.99
-21.77
-25.62
-30.36
-35.48
-40.15
-43.39
-44.34
-42.44
-37.70
-30.62
-22.08
-13.04
-4.36
3.39
9.87
14.91
18.40
20.35
20.85
20.21
18.85
17.31
16.07
15.42
15.41
15.90
16.58
17.16
17.46
17.44
17.17
16.73
16.15
15.30
14.01
12.10
9.57
6.56
3.35
0.22
-2.66
-5.28
-7.79
-10.45
-13.53
-17.25
-21.68
-26.64
-31.62
-35.85
-38.47
-38.77
-36.45
-31.66
-24.95
-17.09
-8.88
-0.96
6.18
12.15
16.72
19.76
21.30
21.57
20.95
19.94
19.01
18.55
18.67
19.27
20.05
20.67
20.83
20.43
19.50
18.21
16.70
15.03
13.19
11.05
8.48
5.47
2.14
-1.29
-4.55
-7.42
-9.86
-12.09
-14.53
-17.70
-22.04
-27.66
-34.13
-40.53
-45.57
-47.99
-46.93
-42.25
-34.58
-25.10
-15.15
-5.73
2.50
9.39
14.96
19.31
22.45
24.41
25.26
25.21
24.59
23.79
23.14
22.86
22.97
23.34
23.72
23.83
23.45
22.56
21.31
19.92
18.56
17.17
15.53
13.37
10.53
7.12
3.47
-0.07
-3.25
-6.10
-8.85
-11.75
-15.01
-18.67
-22.74
-27.19
-31.93
-36.68
-40.85
-43.55
-43.82
-41.03
-35.15
-26.91
-17.48
-8.13
0.27
7.37
13.28
18.23
22.31
25.41
27.30
27.96
27.66
26.96
26.45
26.47
27.01
27.71
28.14
27.99
27.28
26.21
25.06
23.96
22.82
21.46
19.69
17.45
14.83
11.97
9.05
6.19
3.45
0.83
-1.70
-4.17
-6.58
-8.92
-11.23
-13.62
-16.39
-19.84
-24.21
-29.36
-34.72
-39.27
-41.92
-41.74
-38.38
-32.12
-23.80
-14.55
-5.45
2.66
9.32
14.40
18.02
20.39
21.71
22.10
21.69
20.65
19.26
17.90
16.87
16.35
16.32
16.54
16.75
16.72
16.37
15.69
14.77
13.71
12.52
11.14
9.51
7.55
5.24
2.66
-0.05
-2.73
-5.24
-7.49
-9.47
-11.26
-13.01
-14.97
-17.46
-20.72
-24.83
-29.52
-34.12
-37.64
-39.02
-37.49
-32.86
-25.57
-16.66
-7.32
1.39
8.77
14.54
18.71
21.34
22.47
22.16
20.57
18.12
15.38
12.98
11.35
10.64
10.70
11.23
11.94
12.59
13.08
13.32
13.28
12.90
12.11
10.86
9.11
6.86
4.20
1.32
-1.55
-4.18
-6.44
-8.34
-10.03
-11.72
-13.66
-16.05
-19.03
-22.67
-26.81
-30.99
-34.47
-36.31
-35.76
-32.44
-26.60
-18.97
-10.49
-2.11
5.50
11.93
16.99
20.60
22.74
23.51
23.10
21.80
19.94
17.87
15.86
14.10
12.65
11.51
10.59
9.81
9.08
8.40
7.79
7.25
6.72
6.03
4.96
3.31
1.05
-1.71
-4.68
-7.51
-9.95
-11.89
-13.42
-14.72
-16.06
-17.72
-19.95
-22.91
-26.63
-30.79
-34.75
-37.60
-38.38
-36.42
-31.56
-24.30
-15.60
-6.60
1.70
8.66
14.01
17.77
20.14
21.32
21.49
20.81
19.49
17.82
16.17
14.88
14.16
13.99
14.12
14.17
13.87
13.12
12.10
11.08
10.29
9.69
9.04
8.02
6.39
4.14
1.46
-1.39
-4.16
-6.73
-9.06
-11.16
-13.13
-15.13
-17.32
-19.91
-23.02
-26.58
-30.30
-33.65
-35.91
-36.39
-34.64
-30.54
-24.43
-17.03
-9.26
-1.99
4.18
8.95
12.29
14.30
15.19
15.14
14.42
13.30
12.09
11.01
10.17
9.58
9.18
8.95
8.86
8.89
9.03
9.16
9.18
8.94
8.29
7.11
5.30
2.88
0.01
-3.08
-6.11
-8.88
-11.32
-13.56
-15.85
-18.50
-21.74
-25.55
-29.59
-33.24
-35.68
-36.14
-34.18
-29.83
-23.57
-16.19
-8.55
-1.33
4.99
10.12
13.83
16.01
16.67
15.93
14.16
11.83
9.45
7.43
6.04
5.30
5.10
5.19
5.41
5.64
5.87
6.11
6.34
6.41
6.07
5.09
3.35
0.93
-1.89
-4.78
-7.46
-9.83
-12.00
-14.20
-16.72
-19.82
-23.63
-28.07
-32.82
-37.25
-40.52
-41.73
-40.22
-35.79
-28.87
-20.42
-11.65
-3.65
2.91
7.83
11.31
13.60
14.94
15.43
15.15
14.30
13.24
12.44
12.32
13.01
14.31
15.78
16.88
17.30
17.00
16.24
15.30
14.36
13.34
11.96
9.95
7.22
3.95
0.56
-2.55
-5.14
-7.26
-9.13
-11.06
-13.31
-16.07
-19.42
-23.43
-28.07
-33.04
-37.68
-41.06
-42.17
-40.28
-35.31
-27.83
-18.90
-9.68
-1.09
6.36
12.51
17.33
20.83
22.96
23.76
23.44
22.33
20.89
19.53
18.48
17.87
17.65
17.71
17.90
18.05
17.98
17.58
16.83
15.78
14.50
13.07
11.48
9.61
7.37
4.69
1.63
-1.58
-4.65
-7.30
-9.42
-11.07
-12.53
-14.16
-16.39
-19.51
-23.62
-28.51
-33.59
-37.94
-40.51
-40.39
-37.15
-31.01
-22.83
-13.77
-4.99
2.69
8.89
13.53
16.69
18.42
18.81
18.05
16.51
14.73
13.28
12.56
12.67
13.37
14.27
14.95
15.20
15.00
14.50
13.86
13.16
12.31
11.12
9.41
7.10
4.31
1.31
-1.60
-4.19
-6.40
-8.31
-10.08
-11.95
-14.20
-17.14
-20.98
-25.75
-31.05
-36.04
-39.54
-40.43
-38.00
-32.29
-24.07
-14.63
-5.36
2.64
8.85
13.29
16.29
18.30
19.60
20.25
20.25
19.74
19.11
18.88
19.37
20.51
21.82
22.76
23.06
22.85
22.42
21.79
20.50
17.81
13.17
6.73
-0.51
-7.18
-12.11
-14.90
-16.01
-16.38
-16.98
-18.30
-20.34
-22.73
-25.02
-26.89
-28.36
-29.72
-31.43
-33.84
-36.91
-40.01
-42.05
-41.84
-38.51
-31.87
-22.49
-11.50
-0.11
10.68
20.32
28.67
35.74
41.52
45.88
48.60
49.62
49.16
47.75
46.15
44.93
44.40
44.42
44.57
44.37
43.53
42.03
40.09
37.98
35.87
33.75
31.48
28.84
25.67
21.92
17.69
13.20
8.76
4.64
1.01
-2.11
-4.81
-7.31
-9.92
-12.96
-16.74
-21.36
-26.58
-31.78
-36.00
-38.17
-37.50
-33.74
-27.25
-18.95
-9.92
-1.16
6.69
13.28
18.47
22.14
24.16
24.44
23.04
20.28
16.78
13.30
10.50
8.80
8.22
8.45
9.03
9.50
9.57
9.09
8.10
6.71
5.01
3.07
0.89
-1.53
-4.14
-6.83
-9.48
-11.96
-14.16
-16.12
-17.91
-19.73
-21.82
-24.41
-27.58
-31.18
-34.73
-37.47
-38.51
-37.15
-33.12
-26.73
-18.74
-10.14
-1.78
5.73
12.11
17.17
20.83
22.94
23.48
22.61
20.74
18.46
16.40
15.02
14.45
14.58
15.07
15.55
15.81
15.77
15.46
14.92
14.11
12.90
11.10
8.58
5.38
1.69
-2.19
-5.94
-9.27
-12.05
-14.32
-16.35
-18.57
-21.43
-25.17
-29.61
-34.07
-37.48
-38.80
-37.36
-33.10
-26.61
-18.86
-10.81
-3.19
3.60
9.40
14.17
17.87
20.44
21.90
22.36
22.08
21.40
20.65
20.02
19.60
19.33
19.11
18.87
18.66
18.57
18.68
18.91
18.99
18.53
17.11
14.54
10.89
6.53
2.02
-2.14
-5.61
-8.30
-10.34
-11.95
-13.47
-15.28
-17.76
-21.22
-25.73
-30.93
-36.00
-39.79
-41.12
-39.23
-34.06
-26.24
-16.93
-7.43
1.19
8.26
13.58
17.30
19.73
21.12
21.67
21.51
20.79
19.74
18.66
17.83
17.43
17.42
17.59
17.71
17.57
17.15
16.60
16.05
15.56
15.04
14.29
13.04
11.17
8.72
5.88
2.91
0.07
-2.51
-4.82
-7.00
-9.22
-11.68
-14.64
-18.29
-22.72
-27.77
-32.95
-37.41
-40.16
-40.34
-37.53
-31.94
-24.32
-15.72
-7.17
0.57
7.10
12.25
16.01
18.38
19.42
19.28
18.24
16.75
15.27
14.19
13.68
13.71
14.06
14.41
14.51
14.22
13.57
12.74
11.89
11.11
10.39
9.60
8.53
7.04
5.04
2.56
-0.23
-3.08
-5.72
-7.91
-9.63
-11.10
-12.77
-15.20
-18.79
-23.54
-28.98
-34.18
-38.03
-39.57
-38.28
-34.19
-27.85
-20.16
-12.05
-4.34
2.43
7.91
11.96
14.53
15.71
15.72
14.88
13.61
12.33
11.41
11.06
11.28
11.90
12.62
13.11
13.19
12.88
12.33
11.72
11.12
10.42
9.37
7.76
5.51
2.75
-0.23
-3.16
-5.86
-8.31
-10.56
-12.73
-14.96
-17.39
-20.18
-23.49
-27.31
-31.37
-35.09
-37.66
-38.24
-36.27
-31.63
-24.75
-16.50
-7.86
0.29
7.30
12.85
16.83
19.29
20.36
20.22
19.12
17.35
15.24
13.17
11.52
10.55
10.42
10.98
11.90
12.69
12.94
12.45
11.32
9.89
8.47
7.28
6.21
4.97
3.21
0.75
-2.28
-5.53
-8.51
-10.90
-12.68
-14.07
-15.51
-17.41
-20.04
-23.46
-27.54
-31.90
-36.02
-39.20
-40.62
-39.60
-35.78
-29.34
-21.00
-11.84
-2.95
4.79
10.86
15.12
17.69
18.78
18.72
17.83
16.48
15.02
13.76
12.96
12.78
13.28
14.35
15.73
17.07
18.01
18.31
17.97
17.18
16.19
15.23
14.26
13.12
11.54
9.32
6.48
3.22
-0.15
-3.34
-6.19
-8.74
-11.19
-13.76
-16.62
-19.79
-23.22
-26.84
-30.53
-34.11
-37.15
-38.99
-38.85
-36.11
-30.61
-22.81
-13.71
-4.54
3.62
10.14
14.84
17.85
19.39
19.68
18.90
17.34
15.40
13.60
12.39
11.98
12.31
13.09
13.94
14.53
14.75
14.65
14.33
13.92
13.38
12.61
11.39
9.57
7.11
4.10
0.76
-2.59
-5.71
-8.42
-10.68
-12.59
-14.37
-16.36
-18.91
-22.24
-26.38
-30.95
-35.21
-38.24
-39.12
-37.28
-32.62
-25.56
-16.95
-7.83
0.81
8.21
13.92
17.84
20.06
20.78
20.27
18.84
16.85
14.74
12.94
11.79
11.39
11.61
12.12
12.59
12.78
12.65
12.28
11.74
10.98
9.87
8.16
5.74
2.66
-0.86
-4.46
-7.81
-10.76
-13.35
-15.77
-18.32
-21.32
-25.01
-29.42
-34.31
-39.06
-42.79
-44.48
-43.37
-39.15
-32.16
-23.25
-13.50
-3.96
4.61
11.75
17.22
20.92
22.81
22.99
21.73
19.51
16.97
14.70
13.15
12.46
12.49
12.90
13.33
13.54
13.52
13.38
13.25
13.11
12.74
11.78
9.93
7.07
3.36
-0.84
-5.11
-9.12
-12.74
-15.95
-18.90
-21.77
-24.82
-28.36
-32.61
-37.58
-42.76
-47.20
-49.65
-49.02
-44.78
-37.23
-27.39
-16.59
-6.11
3.24
11.08
17.33
21.96
24.93
26.22
25.95
24.52
22.54
20.72
19.58
19.35
19.92
20.95
22.05
22.90
23.36
23.44
23.21
22.69
21.83
20.56
18.78
16.49
13.77
10.77
7.61
4.43
1.26
-1.90
-5.05
-8.28
-11.74
-15.67
-20.35
-25.86
-31.96
-37.97
-42.83
-45.36
-44.73
-40.67
-33.65
-24.66
-14.90
-5.40
3.16
10.43
16.33
20.76
23.68
25.05
25.04
24.02
22.51
21.02
19.97
19.50
19.51
19.74
19.90
19.77
19.26
18.42
17.28
15.84
13.92
11.30
7.75
3.34
-1.52
-6.00
-9.24
-10.74
-10.69
-10.06
-10.23
-12.53
-17.79
-26.13
-36.98
-49.26
-61.58
-72.30
-79.71
-82.26
-78.99
-69.77
-55.58
-38.21
-19.86
-2.53
12.40
24.20
32.74
38.28
41.31
42.49
42.65
42.61
43.05
44.28
46.20
48.32
50.09
51.13
51.34
50.94
50.18
49.20
47.92
46.11
43.58
40.21
36.05
31.21
25.81
19.99
13.90
7.79
1.92
-3.46
-8.34
-12.93
-17.62
-22.71
-28.20
-33.58
-37.94
-40.25
-39.66
-35.82
-28.96
-19.87
-9.59
0.77
10.23
18.09
23.90
27.51
29.00
28.66
26.97
24.58
22.17
20.34
19.52
19.78
20.86
22.28
23.47
24.03
23.76
22.74
21.19
19.31
17.16
14.69
11.80
8.46
4.84
1.17
-2.25
-5.30
-8.00
-10.59
-13.35
-16.58
-20.54
-25.33
-30.91
-36.84
-42.33
-46.26
-47.49
-45.29
-39.61
-31.15
-21.10
-10.69
-0.87
7.84
15.23
21.17
25.51
28.07
28.87
28.21
26.73
25.16
24.11
23.91
24.45
25.35
26.14
26.42
26.02
25.03
23.72
22.39
21.22
20.11
18.76
16.77
13.88
10.14
5.92
1.71
-2.06
-5.27
-8.13
-11.04
-14.42
-18.55
-23.52
-29.21
-35.26
-41.02
-45.59
-47.96
-47.31
-43.25
-36.08
-26.68
-16.24
-5.89
3.55
11.59
18.03
22.77
25.76
27.10
27.08
26.19
25.05
24.20
23.94
24.28
24.99
25.73
26.20
26.24
25.87
25.17
24.30
23.33
22.21
20.81
18.94
16.51
13.48
9.98
6.20
2.41
-1.19
-4.45
-7.34
-10.01
-12.71
-15.82
-19.72
-24.64
-30.50
-36.77
-42.48
-46.50
-47.76
-45.64
-40.17
-32.02
-22.23
-11.98
-2.22
6.38
13.51
19.08
23.12
25.73
27.08
27.42
27.08
26.43
25.82
25.52
25.65
26.19
27.01
27.89
28.60
28.95
28.84
28.23
27.17
25.71
23.92
21.82
19.44
16.74
13.71
10.33
6.60
2.64
-1.39
-5.29
-8.88
-12.10
-14.98
-17.69
-20.52
-23.80
-27.85
-32.81
-38.48
-44.21
-49.00
-51.69
-51.30
-47.34
-40.03
-30.21
-19.15
-8.12
1.87
10.24
16.82
21.68
25.01
26.96
27.69
27.44
26.58
25.55
24.83
24.76
25.39
26.55
27.91
29.13
29.94
30.20
29.87
28.93
27.43
25.43
23.06
20.45
17.71
14.91
12.01
8.93
5.58
1.97
-1.79
-5.48
-8.87
-11.85
-14.47
-16.98
-19.69
-22.94
-26.96
-31.78
-37.16
-42.55
-47.16
-50.00
-50.17
-47.12
-40.80
-31.78
-21.04
-9.79
0.91
10.28
17.90
23.66
27.58
29.85
30.69
30.43
29.47
28.22
27.04
26.16
25.62
25.38
25.31
25.29
25.24
25.10
24.80
24.30
23.54
22.48
21.08
19.31
17.18
14.67
11.83
8.74
5.53
2.31
-0.83
-3.81
-6.61
-9.24
-11.76
-14.28
-17.05
-20.37
-24.52
-29.65
-35.55
-41.60
-46.85
-50.14
-50.53
-47.50
-41.18
-32.26
-21.84
-11.13
-1.25
6.98
13.14
17.14
19.25
19.89
19.60
18.80
17.81
16.80
15.90
15.28
15.14
15.64
16.71
18.09
19.33
19.98
19.86
19.03
17.81
16.48
15.22
13.91
12.27
10.05
7.17
3.75
0.11
-3.44
-6.68
-9.57
-12.22
-14.80
-17.50
-20.52
-24.07
-28.33
-33.34
-38.78
-43.94
-47.75
-49.08
-47.09
-41.59
-33.14
-22.86
-12.10
-1.98
6.74
13.69
18.76
21.95
23.34
23.16
21.80
19.82
17.80
16.23
15.38
15.26
15.77
16.68
17.72
18.64
19.19
19.18
18.54
17.27
15.50
13.33
10.87
8.23
5.48
2.69
-0.07
-2.80
-5.52
-8.30
-11.16
-14.07
-16.92
-19.65
-22.35
-25.30
-28.88
-33.37
-38.70
-44.31
-49.21
-52.18
-52.11
-48.43
-41.30
-31.54
-20.49
-9.49
0.32
8.34
14.43
18.78
21.67
23.32
23.86
23.40
22.15
20.51
18.94
17.89
17.61
18.09
19.13
20.40
21.53
22.31
22.54
22.12
21.00
19.24
16.98
14.39
11.61
8.69
5.61
2.33
-1.07
-4.43
-7.55
-10.32
-12.79
-15.22
-17.88
-21.01
-24.73
-29.09
-34.08
-39.57
-45.16
-50.08
-53.29
-53.71
-50.65
-44.08
-34.77
-23.93
-12.89
-2.64
6.23
13.52
19.17
23.12
25.38
26.09
25.58
24.40
23.08
22.05
21.51
21.39
21.56
21.87
22.25
22.70
23.18
23.56
23.57
22.95
21.57
19.47
16.85
14.00
11.12
8.30
5.45
2.47
-0.70
-4.04
-7.42
-10.71
-13.75
-16.42
-18.68
-20.62
-22.51
-24.81
-28.08
-32.64
-38.40
-44.63
-50.07
-53.26
-53.03
-48.88
-41.15
-30.87
-19.40
-8.04
2.21
10.75
17.32
21.95
24.81
26.15
26.29
25.54
24.24
22.72
21.33
20.38
20.08
20.50
21.46
22.67
23.82
24.61
24.85
24.42
23.24
21.33
18.86
16.09
13.36
10.85
8.54
6.21
3.55
0.44
-2.96
-6.28
-9.17
-11.53
-13.59
-15.74
-18.37
-21.64
-25.53
-29.90
-34.61
-39.44
-43.93
-47.26
-48.38
-46.33
-40.68
-31.84
-20.98
-9.67
0.66
9.10
15.39
19.70
22.40
23.75
23.97
23.14
21.49
19.38
17.30
15.72
14.97
15.12
16.04
17.42
18.92
20.18
20.95
21.05
20.42
19.13
17.35
15.33
13.22
11.13
9.01
6.74
4.21
1.43
-1.53
-4.49
-7.33
-9.96
-12.43
-14.92
-17.67
-21.00
-25.16
-30.18
-35.78
-41.25
-45.55
-47.54
-46.35
-41.65
-33.83
-23.92
-13.24
-3.10
5.59
12.38
17.21
20.26
21.74
21.85
20.78
18.83
16.43
14.10
12.37
11.61
11.89
12.97
14.38
15.57
16.19
16.12
15.52
14.64
13.65
12.52
11.05
9.05
6.43
3.34
0.12
-2.93
-5.59
-7.89
-10.01
-12.23
-14.80
-17.90
-21.63
-25.95
-30.74
-35.65
-40.15
-43.43
-44.66
-43.10
-38.41
-30.81
-21.07
-10.41
-0.05
8.94
15.98
20.91
23.88
25.18
25.09
23.89
21.87
19.41
16.99
15.08
14.06
14.06
14.88
16.12
17.24
17.77
17.53
16.56
15.13
13.49
11.75
9.82
7.50
4.60
1.16
-2.62
-6.40
-9.89
-12.92
-15.56
-18.00
-20.50
-23.29
-26.55
-30.44
-35.00
-40.13
-45.42
-50.10
-53.15
-53.47
-50.32
-43.58
-33.88
-22.48
-10.80
-0.07
8.96
16.01
21.14
24.44
26.04
26.08
24.86
22.85
20.67
18.87
17.81
17.60
18.06
18.86
19.64
20.07
19.97
19.27
18.00
16.24
14.04
11.39
8.31
4.84
1.16
-2.50
-5.87
-8.82
-11.34
-13.58
-15.68
-17.73
-19.72
-21.66
-23.63
-25.84
-28.63
-32.31
-37.00
-42.44
-47.93
-52.42
-54.72
-53.83
-49.28
-41.31
-30.79
-19.05
-7.46
2.97
11.67
18.56
23.85
27.76
30.45
31.95
32.34
31.72
30.40
28.83
27.47
26.70
26.73
27.50
28.74
30.02
30.89
31.03
30.34
28.96
27.15
25.18
23.19
21.17
18.99
16.52
13.74
10.73
7.60
4.48
1.41
-1.64
-4.75
-7.97
-11.33
-14.87
-18.73
-23.10
-28.14
-33.77
-39.53
-44.48
-47.45
-47.38
-43.72
-36.69
-27.22
-16.66
-6.31
2.88
10.43
16.29
20.54
23.29
24.63
24.70
23.75
22.23
20.65
19.48
18.97
19.13
19.72
20.48
21.18
21.69
22.03
22.21
22.23
22.00
21.32
20.00
17.91
15.05
11.62
7.87
4.11
0.58
-2.60
-5.46
-8.06
-10.54
-13.06
-15.79
-18.99
-22.86
-27.46
-32.53
-37.38
-40.97
-42.20
-40.26
-34.92
-26.67
-16.55
-5.84
4.28
12.96
19.76
24.53
27.33
28.31
27.74
26.00
23.61
21.12
19.07
17.80
17.38
17.68
18.42
19.27
19.94
20.20
19.97
19.17
17.85
16.13
14.14
11.99
9.78
7.51
5.12
2.58
-0.10
-2.86
-5.55
-8.04
-10.23
-12.15
-13.97
-15.93
-18.36
-21.60
-25.87
-31.13
-37.00
-42.66
-46.99
-48.83
-47.31
-42.17
-33.89
-23.58
-12.64
-2.34
6.43
13.34
18.43
21.94
24.14
25.22
25.39
24.86
23.93
22.92
22.15
21.81
21.96
22.51
23.22
23.81
24.05
23.79
23.02
21.83
20.31
18.59
16.71
14.73
12.72
10.71
8.73
6.72
4.60
2.28
-0.26
-2.94
-5.57
-7.98
-10.06
-11.87
-13.63
-15.73
-18.62
-22.69
-27.94
-33.93
-39.65
-43.82
-45.17
-42.93
-37.11
-28.45
-18.24
-7.89
1.46
9.17
15.08
19.37
22.37
24.34
25.46
25.84
25.60
24.97
24.26
23.79
23.76
24.17
24.83
25.49
25.88
25.89
25.47
24.66
23.47
21.86
19.80
17.31
14.49
11.48
8.50
5.66
3.01
0.50
-1.98
-4.55
-7.24
-9.99
-12.71
-15.29
-17.71
-20.05
-22.51
-25.33
-28.69
-32.59
-36.63
-40.10
-42.00
-41.40
-37.76
-31.18
-22.40
-12.60
-2.99
5.48
12.28
17.32
20.71
22.66
23.33
22.92
21.70
20.03
18.36
17.06
16.39
16.42
16.98
17.82
18.58
18.97
18.85
18.18
17.02
15.49
13.69
11.66
9.44
7.04
4.50
1.88
-0.74
-3.24
-5.49
-7.40
-8.95
-10.20
-11.36
-12.71
-14.54
-17.08
-20.41
-24.39
-28.64
-32.56
-35.35
-36.30
-34.83
-30.83
-24.60
-16.85
-8.52
-0.50
6.50
12.04
15.96
18.28
19.21
18.97
17.86
16.18
14.28
12.51
11.17
10.48
10.51
11.18
12.25
13.47
14.55
15.28
15.50
15.12
14.13
12.60
10.70
8.62
6.47
4.26
1.89
-0.75
-3.69
-6.81
-9.84
-12.48
-14.56
-16.14
-17.54
-19.20
-21.61
-25.05
-29.48
-34.48
-39.29
-42.94
-44.45
-43.14
-38.83
-31.89
-23.22
-13.94
-5.11
2.52
8.61
13.17
16.39
18.44
19.47
19.60
19.02
17.99
16.85
15.92
15.40
15.32
15.59
16.03
16.49
16.81
16.90
16.70
16.20
15.38
14.31
13.02
11.57
9.97
8.23
6.31
4.18
1.87
-0.59
-3.13
-5.69
-8.23
-10.77
-13.39
-16.19
-19.34
-23.04
-27.43
-32.46
-37.76
-42.60
-45.91
-46.63
-44.02
-38.00
-29.26
-19.07
-8.87
0.13
7.29
12.57
16.28
18.82
20.51
21.45
21.66
21.24
20.40
19.47
18.76
18.45
18.57
18.90
19.19
19.22
18.88
18.19
17.26
16.18
14.96
13.52
11.76
9.62
7.14
4.48
1.86
-0.58
-2.82
-4.93
-7.03
-9.22
-11.45
-13.66
-15.78
-17.84
-20.00
-22.51
-25.57
-29.15
-32.93
-36.27
-38.40
-38.59
-36.32
-31.51
-24.48
-15.99
-7.01
1.50
8.73
14.16
17.60
19.15
19.08
17.75
15.59
13.02
10.48
8.41
7.15
6.85
7.45
8.66
10.07
11.31
12.14
12.55
12.64
12.57
12.37
11.91
10.95
9.24
6.69
3.45
-0.12
-3.62
-6.69
-9.21
-11.28
-13.13
-15.03
-17.19
-19.76
-22.83
-26.38
-30.22
-33.84
-36.44
-37.09
-35.11
-30.31
-23.18
-14.70
-6.02
1.87
8.38
13.29
16.62
18.42
18.80
17.89
16.01
13.61
11.30
9.61
8.89
9.21
10.30
11.75
13.07
13.90
14.03
13.51
12.47
11.07
9.37
7.39
5.11
2.49
-0.39
-3.47
-6.64
-9.81
-12.90
-15.82
-18.45
-20.74
-22.80
-24.91
-27.51
-30.94
-35.22
-39.80
-43.68
-45.65
-44.71
-40.52
-33.45
-24.43
-14.66
-5.19
3.28
10.32
15.76
19.53
21.60
22.09
21.29
19.66
17.78
16.19
15.26
15.10
15.55
16.25
16.79
16.82
16.25
15.20
13.95
12.74
11.69
10.72
9.57
7.96
5.74
2.90
-0.35
-3.71
-6.84
-9.46
-11.51
-13.14
-14.67
-16.52
-19.08
-22.57
-26.95
-31.90
-36.85
-40.97
-43.41
-43.37
-40.38
-34.49
-26.25
-16.64
-6.80
2.31
10.07
16.18
20.64
23.52
24.93
25.03
24.08
22.47
20.72
19.30
18.52
18.48
19.01
19.83
20.67
21.31
21.65
21.70
21.47
20.98
20.20
19.07
17.54
15.60
13.26
10.57
7.61
4.45
1.19
-2.07
-5.25
-8.31
-11.27
-14.28
-17.54
-21.28
-25.62
-30.45
-35.43
-39.89
-43.00
-43.89
-41.95
-37.04
-29.57
-20.42
-10.67
-1.34
6.89
13.70
18.99
22.78
25.08
25.93
25.51
24.15
22.34
20.57
19.25
18.63
18.77
19.52
20.66
21.81
22.61
22.83
22.40
21.48
20.28
18.94
17.42
15.53
13.14
10.26
7.14
4.11
1.40
-0.96
-3.16
-5.48
-8.12
-11.18
-14.69
-18.69
-23.23
-28.20
-33.22
-37.61
-40.45
-40.90
-38.51
-33.36
-26.04
-17.45
-8.52
0.00
7.60
13.97
18.96
22.47
24.48
25.06
24.44
22.99
21.18
19.48
18.31
17.93
18.36
19.44
20.80
22.03
22.76
22.79
22.09
20.83
19.18
17.34
15.38
13.26
10.91
8.28
5.39
2.37
-0.64
-3.52
-6.21
-8.76
-11.27
-13.85
-16.69
-19.94
-23.76
-28.21
-33.12
-37.95
-41.87
-43.89
-43.18
-39.39
-32.78
-24.17
-14.65
-5.29
3.12
10.15
15.64
19.64
22.21
23.49
23.62
22.88
21.64
20.37
19.49
19.27
19.77
20.78
22.01
23.11
23.86
24.15
23.96
23.31
22.17
20.51
18.33
15.75
12.96
10.19
7.57
5.09
2.61
-0.01
-2.82
-5.75
-8.63
-11.33
-13.83
-16.28
-18.90
-21.96
-25.63
-29.95
-34.66
-39.23
-42.84
-44.52
-43.41
-39.10
-31.80
-22.39
-12.10
-2.22
6.30
13.04
17.98
21.37
23.46
24.41
24.34
23.42
21.98
20.49
19.45
19.18
19.74
20.87
22.19
23.31
23.99
24.20
24.00
23.46
22.58
21.32
19.64
17.56
15.20
12.73
10.27
7.83
5.37
2.80
0.12
-2.58
-5.16
-7.50
-9.59
-11.51
-13.44
-15.59
-18.16
-21.37
-25.33
-29.95
-34.81
-39.09
-41.66
-41.49
-37.95
-31.18
-22.06
-11.95
-2.22
6.16
12.78
17.70
21.17
23.47
24.69
24.87
24.15
22.81
21.31
20.13
19.57
19.66
20.15
20.69
21.06
21.24
21.41
21.69
22.09
22.34
22.11
21.14
19.44
17.29
15.07
13.07
11.35
9.75
8.03
6.00
3.60
0.86
-2.09
-5.13
-8.12
-10.93
-13.49
-15.85
-18.20
-20.82
-24.02
-27.93
-32.38
-36.83
-40.46
-42.34
-41.73
-38.28
-32.15
-24.02
-14.84
-5.66
2.67
9.59
14.83
18.36
20.35
21.02
20.75
19.90
18.85
17.85
17.09
16.63
16.48
16.59
16.93
17.43
18.00
18.52
18.84
18.84
18.43
17.55
16.22
14.50
12.52
10.43
8.41
6.53
4.78
3.06
1.20
-0.91
-3.31
-5.92
-8.58
-11.13
-13.43
-15.54
-17.66
-20.13
-23.20
-26.94
-31.02
-34.70
-37.02
-37.13
-34.52
-29.25
-21.92
-13.47
-4.92
2.89
9.40
14.29
17.47
19.03
19.13
18.13
16.43
14.50
12.76
11.51
10.91
10.95
11.52
12.48
13.62
14.76
15.67
16.16
16.10
15.43
14.19
12.49
10.44
8.22
5.94
3.75
1.76
-0.02
-1.67
-3.39
-5.37
-7.72
-10.36
-13.09
-15.69
-18.03
-20.20
-22.44
-25.04
-28.20
-31.90
-35.81
-39.31
-41.56
-41.76
-39.34
-34.22
-26.83
-18.03
-8.89
-0.34
6.97
12.74
16.94
19.62
20.86
20.78
19.65
17.82
15.78
13.98
12.74
12.18
12.23
12.73
13.45
14.20
14.84
15.28
15.44
15.26
14.64
13.53
11.90
9.80
7.38
4.79
2.19
-0.38
-2.86
-5.28
-7.64
-9.94
-12.18
-14.34
-16.38
-18.31
-20.14
-22.01
-24.19
-26.96
-30.52
-34.68
-38.79
-41.86
-42.78
-40.84
-35.91
-28.56
-19.85
-10.93
-2.79
4.04
9.35
13.23
15.83
17.28
17.77
17.54
16.95
16.35
16.05
16.13
16.51
16.93
17.17
17.18
17.00
16.76
16.49
16.11
15.47
14.43
12.98
11.21
9.27
7.25
5.17
2.96
0.60
-1.87
-4.35
-6.70
-8.84
-10.76
-12.46
-14.03
-15.56
-17.22
-19.25
-21.87
-25.24
-29.25
-33.48
-37.21
-39.53
-39.59
-36.89
-31.40
-23.69
-14.75
-5.69
2.54
9.37
14.61
18.28
20.48
21.26
20.70
18.99
16.56
13.99
11.93
10.76
10.65
11.43
12.76
14.27
15.69
16.86
17.70
18.13
18.10
17.57
16.49
14.88
12.79
10.38
7.77
5.10
2.44
-0.18
-2.71
-5.12
-7.31
-9.22
-10.94
-12.64
-14.66
-17.36
-20.93
-25.28
-29.92
-34.06
-36.80
-37.35
-35.27
-30.59
-23.76
-15.52
-6.73
1.81
9.51
15.98
21.02
24.58
26.73
27.65
27.64
27.10
26.42
25.97
25.91
26.23
26.75
27.22
27.42
27.22
26.59
25.57
24.25
22.70
20.97
19.09
17.07
14.88
12.44
9.69
6.53
2.94
-0.98
-5.07
-9.11
-12.93
-16.49
-19.83
-23.04
-26.26
-29.63
-33.31
-37.55
-42.48
-48.03
-53.71
-58.62
-61.65
-61.84
-58.76
-52.64
-44.35
-35.03
-25.77
-17.38
-10.28
-4.66
-0.60
1.87
2.79
2.32
0.82
-1.22
-3.27
-4.89
-5.84
-6.14
-5.95
-5.47
-4.87
-4.16
-3.34
-2.41
-1.43
-0.56
-0.01
-0.00
-0.74
-2.36
-4.84
-7.95
-11.24
-14.15
-16.17
-17.08
-17.00
-16.41
-15.88
-15.96
-17.02
-19.19
-22.41
-26.31
-30.22
-33.22
-34.30
-32.61
-27.84
-20.30
-10.87
-0.66
9.25
18.13
25.60
31.50
35.79
38.48
39.64
39.53
38.54
37.19
35.97
35.18
34.86
34.89
35.05
35.13
35.02
34.66
34.06
33.26
32.22
30.89
29.11
26.72
23.68
20.07
16.17
12.33
8.85
5.83
3.15
0.52
-2.34
-5.65
-9.51
-13.94
-18.86
-23.98
-28.83
-32.58
-34.33
-33.32
-29.30
-22.62
-14.19
-5.13
3.52
11.06
17.15
21.70
24.75
26.36
26.64
25.81
24.18
22.13
20.03
18.15
16.61
15.49
14.78
14.43
14.35
14.42
14.51
14.50
14.28
13.74
12.72
11.04
8.62
5.51
2.00
-1.44
-4.37
-6.57
-8.12
-9.47
-11.25
-14.00
-18.05
-23.25
-28.97
-34.20
-37.75
-38.61
-36.21
-30.62
-22.56
-13.14
-3.52
5.30
12.77
18.62
22.82
25.43
26.51
26.26
24.98
23.13
21.22
19.71
18.93
18.93
19.54
20.45
21.29
21.76
21.74
21.21
20.28
19.01
17.41
15.42
12.94
9.96
6.59
3.03
-0.46
-3.66
-6.49
-8.95
-11.17
-13.36
-15.81
-18.82
-22.61
-27.18
-32.11
-36.62
-39.64
-40.17
-37.53
-31.68
-23.14
-12.94
-2.31
7.66
16.17
22.76
27.35
30.07
31.14
30.87
29.56
27.61
25.47
23.63
22.49
22.23
22.73
23.65
24.54
24.99
24.79
23.91
22.46
20.66
18.61
16.41
14.03
11.37
8.34
4.93
1.30
-2.26
-5.47
-8.17
-10.44
-12.54
-14.82
-17.58
-20.98
-25.07
-29.67
-34.41
-38.68
-41.59
-42.24
-39.92
-34.49
-26.44
-16.78
-6.78
2.46
10.19
16.11
20.18
22.53
23.33
22.86
21.45
19.58
17.71
16.23
15.33
14.95
14.91
14.90
14.67
14.09
13.17
12.05
10.84
9.66
8.47
7.13
5.43
3.26
0.63
-2.26
-5.09
-7.56
-9.56
-11.20
-12.90
-15.16
-18.44
-22.91
-28.22
-33.53
-37.66
-39.43
-38.02
-33.31
-25.90
-16.90
-7.65
0.77
7.69
12.94
16.65
19.01
20.19
20.25
19.28
17.54
15.46
13.63
12.53
12.40
13.12
14.28
15.38
16.07
16.26
16.08
15.75
15.34
14.71
13.56
11.59
8.73
5.24
1.58
-1.70
-4.32
-6.25
-7.81
-9.47
-11.69
-14.82
-18.94
-23.87
-29.09
-33.77
-36.92
-37.64
-35.41
-30.31
-23.04
-14.66
-6.31
1.17
7.34
12.11
15.52
17.69
18.73
18.80
18.15
17.16
16.25
15.73
15.74
16.23
16.98
17.73
18.25
18.48
18.48
18.37
18.25
18.07
17.64
16.69
14.97
12.37
9.01
5.16
1.27
-2.24
-5.06
-7.09
-8.50
-9.67
-11.13
-13.35
-16.68
-21.09
-26.19
-31.22
-35.14
-36.90
-35.69
-31.24
-23.90
-14.61
-4.60
4.96
13.23
19.90
24.97
28.60
30.87
31.78
31.33
29.65
27.13
24.31
21.71
19.73
18.48
17.82
17.54
17.35
17.08
16.58
15.79
14.69
13.31
11.77
10.17
8.60
