1520261956.00
64.000000
-0.00
-0.00
-0.00
-0.00
-0.00
-0.00
-0.00
-0.00
-0.00
-0.00
0.00
0.01
0.01
-0.00
-0.03
-0.05
-0.05
0.00
0.13
0.36
0.66
1.01
1.37
1.72
2.06
2.40
2.79
3.24
3.80
4.42
5.06
5.66
6.20
6.68
7.15
7.68
8.31
9.14
10.09
11.04
11.88
12.56
13.14
13.76
14.65
15.96
17.91
20.32
22.90
25.38
27.58
29.57
31.68
34.32
37.81
42.54
48.15
54.10
59.83
64.97
69.58
74.14
79.34
85.71
93.76
103.00
112.62
121.73
129.77
136.75
143.30
150.75
157.77
166.64
177.95
191.79
206.97
220.57
228.25
225.36
208.53
176.87
132.76
80.05
23.07
-34.94
-92.44
-149.16
-205.23
-260.37
-313.74
-363.87
-409.83
-450.91
-486.50
-515.74
-537.23
-549.22
-549.96
-538.37
-514.21
-478.67
-433.88
-382.45
-327.02
-269.84
-212.63
-156.66
-102.95
-52.37
-5.90
35.58
71.43
101.35
125.50
144.38
158.69
169.15
176.37
180.75
182.57
182.07
179.51
175.23
169.65
163.18
156.15
148.81
141.30
133.69
126.02
118.33
110.69
103.16
95.80
88.68
81.83
75.25
68.95
62.95
57.25
51.86
46.78
42.03
37.59
33.45
29.61
26.07
22.81
19.83
17.11
14.67
12.48
10.54
8.83
7.35
6.07
4.97
4.05
3.27
2.62
2.09
1.65
1.30
1.01
0.79
0.61
0.47
0.37
0.29
0.23
0.18
0.16
0.14
0.13
0.14
0.15
0.17
0.20
0.23
0.27
0.31
0.35
0.39
0.44
0.50
0.56
0.64
0.70
0.74
0.75
0.73
0.69
0.66
0.67
0.73
0.83
0.96
1.09
1.19
1.27
1.34
1.45
1.61
1.84
2.15
2.48
2.78
3.02
3.18
3.33
3.53
3.88
4.42
5.10
5.82
6.43
6.82
6.99
7.04
7.19
7.62
8.44
9.58
10.81
11.79
12.31
12.31
12.04
11.83
12.03
12.74
13.73
14.47
14.28
12.67
9.48
5.02
-0.11
-5.33
-10.29
-14.95
-19.61
-24.61
-30.26
-36.71
-44.01
-51.98
-59.89
-66.19
-68.85
-65.94
-56.67
-42.07
-24.81
-8.33
4.57
12.66
16.40
17.28
16.80
15.76
14.25
12.16
9.64
7.30
5.92
6.04
7.69
10.38
13.43
16.08
17.86
18.56
18.23
17.17
15.72
14.18
12.72
11.34
9.91
8.34
6.63
4.95
3.59
2.82
2.78
3.28
3.98
4.47
4.52
4.17
3.71
3.47
3.59
3.93
4.13
3.78
2.68
0.89
-1.35
-3.67
-5.78
-7.50
-8.59
-9.01
-8.84
-8.31
-7.81
-7.77
-8.60
-10.43
-13.07
-15.95
-18.37
-19.63
-19.28
-17.18
-13.53
-8.78
-3.53
1.64
6.22
9.86
12.38
13.78
14.21
13.92
13.20
12.30
11.47
10.92
10.77
10.97
11.33
11.59
11.54
11.14
10.50
9.84
9.33
8.99
8.69
8.28
7.59
6.53
5.09
3.25
1.01
-1.49
-3.99
-6.17
-7.75
-8.72
-9.36
-10.17
-11.61
-13.87
-16.81
-19.96
-22.75
-24.65
-25.30
-24.49
-22.21
-18.54
-13.78
-8.41
-3.02
1.76
5.48
7.96
9.34
9.94
10.17
10.34
10.61
10.96
11.28
11.47
11.48
11.37
11.17
10.90
10.45
9.81
9.02
8.29
7.83
7.72
7.78
7.64
6.98
5.69
3.97
2.19
0.64
-0.58
-1.53
-2.35
-3.05
-3.62
-4.14
-4.84
-6.12
-8.31
-11.42
-15.09
-18.72
-21.67
-23.52
-24.10
-23.42
-21.53
-18.44
-14.27
-9.35
-4.21
0.53
4.48
7.45
9.65
11.40
12.97
14.39
15.51
16.05
15.86
14.96
13.60
12.09
10.73
9.66
8.95
8.60
8.67
9.21
10.21
11.48
12.69
13.40
13.33
12.45
10.96
9.14
7.21
5.19
3.05
0.80
-1.43
-3.41
-4.96
-6.11
-7.05
-8.03
-9.22
-10.63
-12.18
-13.77
-15.43
-17.30
-19.45
-21.77
-23.89
-25.31
-25.49
-24.11
-21.13
-16.84
-11.71
-6.33
-1.22
3.25
6.87
9.60
11.59
13.03
14.12
15.04
15.81
16.39
16.73
16.81
16.77
16.72
16.79
16.96
17.18
17.33
17.33
17.16
16.88
16.53
16.17
15.72
15.13
14.32
13.28
12.08
10.82
9.57
8.36
7.13
5.82
4.36
2.72
0.89
-1.14
-3.34
-5.71
-8.17
-10.58
-12.84
-14.91
-16.89
-18.99
-21.38
-24.08
-26.87
-29.31
-30.90
-31.28
-30.27
-27.89
-24.32
-19.74
-14.41
-8.67
-2.94
2.26
6.53
9.59
11.36
11.98
11.72
10.93
10.02
9.38
9.31
9.98
11.33
13.13
15.07
16.81
18.07
18.68
18.56
17.69
16.14
14.10
11.90
9.92
8.51
7.79
7.66
7.81
7.86
7.57
6.82
5.63
4.10
2.31
0.34
-1.74
-3.86
-5.92
-7.77
-9.34
-10.57
-11.51
-12.27
-13.07
-14.15
-15.77
-18.06
-20.97
-24.26
-27.49
-30.09
-31.45
-31.11
-28.76
-24.45
-18.62
-11.97
-5.30
0.68
5.56
9.21
11.72
13.29
14.08
14.29
14.14
13.90
13.83
14.08
14.59
15.15
15.51
15.55
15.29
14.93
14.65
14.57
14.69
14.86
14.91
14.71
14.22
13.49
12.61
11.69
10.76
9.87
9.01
8.19
7.37
6.53
5.55
4.37
2.91
1.15
-0.84
-2.92
-4.93
-6.72
-8.21
-9.49
-10.81
-12.52
-14.98
-18.36
-22.53
-27.02
-31.07
-33.92
-34.94
-33.88
-30.80
-26.02
-20.05
-13.51
-7.02
-1.20
3.52
7.01
9.39
11.00
12.18
13.20
14.05
14.63
14.81
14.59
14.08
13.49
12.98
12.61
12.45
12.49
12.73
13.17
13.77
14.39
14.88
15.13
15.03
14.60
13.93
13.10
12.13
11.01
9.60
7.85
5.73
3.34
0.85
-1.48
-3.52
-5.19
-6.53
-7.68
-8.75
-9.82
-10.93
-12.19
-13.76
-15.86
-18.66
-22.15
-26.04
-29.78
-32.60
-33.73
-32.58
-28.92
-22.96
-15.40
-7.23
0.41
6.58
10.80
13.10
13.96
14.07
13.98
13.97
13.92
13.38
11.65
8.06
2.11
-6.28
-16.52
-27.42
-37.18
-43.81
-45.59
-41.61
-32.12
-18.58
-3.26
11.31
23.06
30.84
34.49
34.57
32.00
27.64
22.23
16.48
11.15
6.99
4.46
3.47
3.39
3.25
2.27
0.16
-2.74
-5.75
-8.31
-10.30
-12.08
-14.25
-17.23
-21.03
-25.14
-28.80
-31.22
-31.90
-30.66
-27.65
-23.23
-17.84
-11.97
-6.12
-0.79
3.67
7.09
9.54
11.22
12.33
13.00
13.23
13.05
12.60
12.16
12.03
12.39
13.14
13.97
14.48
14.43
13.87
13.09
12.54
12.53
13.20
14.43
15.87
17.01
17.34
16.52
14.55
11.80
8.89
6.39
4.58
3.30
2.06
0.28
-2.38
-5.91
-9.91
-13.75
-16.82
-18.65
-19.02
-18.09
-16.45
-15.02
-14.84
-16.71
-20.73
-26.19
-31.69
-35.58
-36.56
-34.17
-28.82
-21.55
-13.54
-5.60
2.01
9.47
16.97
24.31
30.78
35.17
36.13
32.54
23.92
10.82
-5.03
-20.52
-31.63
-34.37
-26.03
-6.49
21.23
51.62
78.36
96.34
103.34
100.28
90.38
77.53
64.72
53.40
43.72
35.34
28.10
22.36
18.48
16.37
15.17
13.43
9.85
3.87
-3.96
-12.32
-19.78
-25.64
-30.12
-34.24
-39.21
-45.71
-53.56
-61.79
-69.06
-74.20
-76.77
-77.08
-76.15
-75.24
-75.36
-77.02
-80.13
-84.16
-88.59
-93.20
-98.19
-104.00
-111.07
-119.48
-128.82
-138.14
-146.05
-150.94
-151.23
-145.70
-133.80
-115.74
-92.48
-65.61
-37.01
-8.52
18.23
41.89
61.47
76.44
86.79
92.99
95.76
95.82
93.63
89.44
83.56
76.62
69.62
63.77
60.13
59.20
60.84
64.43
69.40
75.64
83.52
93.42
105.03
116.86
126.35
130.85
128.51
119.26
104.93
88.52
73.19
61.48
54.80
53.51
57.40
65.81
77.68
91.35
104.41
113.97
117.21
111.95
97.19
73.82
44.36
12.67
-16.97
-41.03
-57.69
-66.75
-69.46
-67.83
-63.59
-58.31
-53.43
-49.45
-47.48
-48.50
-52.03
-55.80
-58.51
-57.97
-53.15
-44.55
-34.04
-22.79
-12.78
-5.35
-0.91
0.78
0.49
-1.27
-4.16
-7.80
-11.66
-14.96
-16.61
-15.82
-12.53
-7.43
-1.93
2.27
3.89
2.26
-2.56
-9.65
-17.65
-25.08
-30.60
-33.45
-33.57
-31.48
-28.14
-24.63
-21.63
-19.40
-17.80
-16.46
-14.99
-13.18
-11.01
-8.73
-6.91
-6.13
-6.88
-9.33
-13.27
-18.18
-23.44
-28.60
-33.43
-37.84
-41.67
-44.50
-45.65
-44.40
-40.25
-33.09
-23.25
-11.45
1.25
13.65
24.54
32.96
38.50
41.26
41.85
41.07
39.57
37.75
35.75
33.56
31.23
28.86
26.53
24.26
21.90
19.32
16.43
13.33
10.16
7.05
3.93
0.58
-3.27
-7.74
-12.67
-17.62
-22.12
-25.85
-28.80
-31.19
-33.30
-35.29
-37.12
-38.57
-39.48
-39.87
-39.98
-40.14
-40.54
-41.11
-41.52
-41.29
-39.97
-37.27
-33.16
-27.80
-21.50
-14.65
-7.57
-0.56
6.21
12.52
18.17
22.93
26.60
29.16
30.79
31.83
32.62
33.36
34.00
34.46
34.64
34.64
34.63
34.74
34.97
35.14
35.02
34.41
33.23
31.49
29.23
26.57
23.62
20.53
17.42
14.30
11.01
7.29
3.04
-1.57
-5.95
-9.44
-11.46
-11.80
-10.60
-8.20
-4.90
-0.89
3.70
8.64
13.48
17.74
20.98
23.03
24.06
24.39
24.39
24.17
23.61
22.38
20.27
17.26
13.61
9.81
6.32
3.41
1.04
-1.04
-3.11
-5.27
-7.37
-9.12
-10.28
-10.90
-11.31
-12.01
-13.37
-15.50
-18.24
-21.27
-24.23
-26.81
-28.77
-29.85
-29.77
-28.33
-25.48
-21.37
-16.35
-10.97
-5.76
-1.17
2.54
5.35
7.37
8.81
9.86
10.65
11.20
11.53
11.68
11.71
11.69
11.68
11.64
11.53
11.36
11.19
11.04
10.84
10.45
9.69
8.41
6.68
4.61
2.41
0.23
-1.86
-3.89
-5.91
-7.97
-10.09
-12.34
-14.83
-17.61
-20.60
-23.53
-25.94
-27.32
-27.29
-25.72
-22.83
-18.98
-14.67
-10.30
-6.12
-2.27
1.17
4.09
6.45
8.26
9.66
10.86
12.06
13.27
14.36
15.08
15.29
15.01
14.49
14.02
13.84
13.99
14.32
14.67
14.95
15.17
15.36
15.51
15.49
15.11
14.30
13.12
11.71
10.21
8.61
6.81
4.66
2.15
-0.57
-3.19
-5.43
-7.15
-8.42
-9.49
-10.65
-12.11
-13.97
-16.16
-18.59
-21.05
-23.29
-24.97
-25.77
-25.42
-23.83
-21.13
-17.60
-13.57
-9.33
-5.06
-0.89
3.02
6.47
9.28
11.32
12.61
13.26
13.49
13.48
13.46
13.57
13.88
14.40
15.02
15.54
15.79
15.68
15.29
14.84
14.55
14.48
14.51
14.39
13.86
12.85
11.50
10.10
8.90
8.02
7.35
6.60
5.52
3.99
2.18
0.36
-1.14
-2.19
-2.86
-3.42
-4.21
-5.43
-7.08
-9.02
-11.01
-12.81
-14.33
-15.58
-16.62
-17.59
-18.67
-19.97
-21.57
-23.41
-25.23
-26.62
-27.14
-26.41
-24.27
-20.79
-16.35
-11.45
-6.60
-2.23
1.45
4.33
6.50
8.06
9.16
9.94
10.53
11.00
11.39
11.72
11.97
12.16
12.33
12.53
12.84
13.25
13.73
14.18
14.54
14.76
14.78
14.56
14.04
13.19
12.10
10.99
10.13
9.75
9.78
9.87
9.60
8.61
6.91
4.84
2.89
1.39
0.39
-0.36
-1.16
-2.21
-3.51
-4.95
-6.45
-7.96
-9.51
-11.02
-12.36
-13.45
-14.36
-15.37
-16.79
-18.75
-21.06
-23.18
-24.47
-24.46
-23.07
-20.62
-17.64
-14.68
-12.02
-9.72
-7.59
-5.42
-3.08
-0.65
1.71
3.81
5.58
7.04
8.18
8.95
9.24
8.99
8.34
7.62
7.26
7.60
8.67
10.21
11.76
12.90
13.41
13.36
13.00
12.61
12.35
12.23
12.06
11.61
10.70
9.29
7.47
5.49
3.60
2.00
0.80
0.00
-0.51
-0.88
-1.30
-1.95
-2.99
-4.51
-6.48
-8.75
-10.99
-12.86
-14.10
-14.73
-15.05
-15.56
-16.73
-18.62
-20.88
-22.82
-23.77
-23.34
-21.65
-19.16
-16.37
-13.58
-10.76
-7.78
-4.56
-1.28
1.67
3.89
5.27
6.01
6.51
7.14
7.99
8.88
9.44
9.42
8.85
8.05
7.43
7.29
7.65
8.25
8.74
8.87
8.62
8.20
7.89
7.88
8.19
8.62
8.92
8.82
8.19
7.09
5.65
4.10
2.60
1.28
0.16
-0.83
-1.75
-2.71
-3.81
-5.14
-6.66
-8.28
-9.80
-11.01
-11.83
-12.34
-12.79
-13.55
-14.97
-17.16
-19.92
-22.78
-25.12
-26.39
-26.30
-24.88
-22.39
-19.20
-15.60
-11.79
-7.91
-4.09
-0.59
2.26
4.19
5.16
5.38
5.26
5.17
5.37
5.87
6.57
7.38
8.27
9.25
10.32
11.31
12.02
12.32
12.20
11.90
11.66
11.61
11.62
11.40
10.70
9.53
8.19
7.19
6.98
7.63
8.78
9.70
9.60
7.84
4.25
-0.90
-6.98
-13.18
-18.74
-23.12
-25.95
-27.08
-26.50
-24.33
-20.94
-16.92
-13.05
-10.09
-8.50
-8.22
-8.69
-9.09
-8.70
-7.18
-4.72
-1.79
1.12
3.79
6.19
8.40
10.38
11.87
12.56
12.34
11.42
10.25
9.36
9.00
9.10
9.34
9.36
9.02
8.44
7.93
7.77
8.09
8.74
9.39
9.69
9.41
8.49
7.11
5.52
3.98
2.61
1.48
0.52
-0.27
-0.91
-1.35
-1.65
-1.95
-2.46
-3.31
-4.54
-6.02
-7.57
-9.03
-10.40
-11.85
-13.62
-15.92
-18.71
-21.71
-24.38
-26.16
-26.56
-25.41
-22.83
-19.19
-14.99
-10.67
-6.57
-2.84
0.42
3.21
5.52
7.36
8.74
9.78
10.63
11.45
12.35
13.23
13.93
14.24
14.11
13.69
13.29
13.14
13.27
13.48
13.51
13.24
12.79
12.44
12.37
12.52
12.55
12.11
11.04
9.49
7.89
6.56
5.61
4.89
4.09
3.00
1.62
0.13
-1.27
-2.48
-3.56
-4.61
-5.73
-6.85
-7.78
-8.40
-8.77
-9.22
-10.20
-12.01
-14.51
-17.02
-18.46
-17.87
-14.81
-9.63
-3.32
2.99
8.57
13.30
17.57
21.90
26.49
31.09
35.14
38.18
40.04
41.00
41.53
42.03
42.69
43.48
44.36
45.44
46.89
48.62
49.98
49.77
46.77
40.46
31.55
21.89
13.62
8.09
5.06
2.75
-1.28
-8.98
-20.83
-35.77
-51.76
-66.69
-79.20
-88.87
-95.97
-101.00
-104.31
-105.94
-105.85
-104.11
-101.09
-97.35
-93.38
-89.38
-85.26
-80.73
-75.66
-70.25
-65.01
-60.51
-57.19
-55.01
-53.57
-52.09
-49.69
-45.57
-39.19
-30.51
-20.01
-8.61
2.67
13.05
22.25
30.48
38.20
45.80
53.38
60.80
67.72
73.93
79.28
83.69
87.12
89.49
90.76
91.03
90.58
89.84
89.24
88.98
88.95
88.63
87.30
84.29
79.27
72.36
64.13
55.36
46.86
39.23
32.80
27.64
23.61
20.45
17.79
15.15
11.99
7.80
2.21
-4.85
-13.09
-21.86
-30.33
-37.77
-43.78
-48.43
-52.08
-55.07
-57.44
-58.80
-58.55
-56.25
-51.86
-45.86
-38.96
-31.87
-25.05
-18.71
-12.89
-7.66
-3.09
0.75
3.90
6.53
8.79
10.71
12.16
12.89
12.71
11.58
9.69
7.34
4.80
2.30
-0.05
-2.19
-4.05
-5.62
-6.92
-8.04
-9.12
-10.26
-11.47
-12.67
-13.72
-14.55
-15.23
-15.88
-16.71
-17.80
-19.14
-20.56
-21.87
-22.86
-23.41
-23.46
-23.15
-22.67
-22.31
-22.33
-22.89
-24.00
-25.51
-27.13
-28.48
-29.18
-28.86
-27.29
-24.40
-20.33
-15.46
-10.31
-5.38
-1.07
2.51
5.40
7.80
9.80
11.42
12.60
13.30
13.66
13.92
14.32
14.97
15.75
16.40
16.70
16.60
16.29
16.10
16.30
16.96
17.86
18.61
18.83
18.25
16.87
14.86
12.52
10.15
7.97
6.08
4.49
3.09
1.69
0.04
-2.08
-4.83
-8.22
-12.06
-15.89
-19.19
-21.36
-21.97
-20.80
-17.96
-13.81
-9.01
-4.24
-0.13
3.00
5.18
6.73
7.99
9.22
10.39
11.34
11.88
12.02
11.95
11.96
12.24
12.81
13.45
13.93
14.05
13.86
13.50
13.19
13.06
13.08
13.09
12.81
12.06
10.78
9.12
7.30
5.57
4.03
2.61
1.17
-0.49
-2.50
-4.95
-7.88
-11.25
-14.96
-18.74
-22.18
-24.79
-26.12
-25.87
-23.98
-20.67
-16.33
-11.48
-6.61
-2.11
1.81
5.15
8.00
10.49
12.72
14.67
16.28
17.47
18.14
18.26
17.85
17.00
15.88
14.77
14.00
13.82
14.32
15.36
16.60
17.62
18.07
17.72
16.58
14.80
12.66
10.49
8.57
7.02
5.75
4.53
3.07
1.23
-0.92
-3.15
-5.21
-7.03
-8.73
-10.59
-12.86
-15.61
-18.73
-21.94
-24.89
-27.25
-28.76
-29.15
-28.24
-25.95
-22.39
-17.82
-12.65
-7.32
-2.24
2.27
6.04
9.01
11.28
12.97
14.22
15.09
15.61
15.80
15.76
15.60
15.49
15.56
15.88
16.43
17.16
17.98
18.79
19.44
19.84
19.96
19.83
19.57
19.17
18.52
17.45
15.79
13.59
11.13
8.79
6.87
5.42
4.25
3.00
1.38
-0.69
-3.06
-5.48
-7.70
-9.66
-11.41
-13.08
-14.77
-16.53
-18.34
-20.21
-22.18
-24.31
-26.53
-28.62
-30.17
-30.74
-29.95
-27.65
-23.94
-19.18
-13.84
-8.43
-3.38
0.95
4.38
6.88
8.58
9.64
10.26
10.57
10.68
10.73
10.87
11.26
12.00
13.03
14.23
15.40
16.38
17.12
17.60
17.83
17.81
17.56
17.20
16.82
16.52
16.28
15.97
15.37
14.37
12.95
11.22
9.32
7.38
5.50
3.82
2.52
1.71
1.34
1.13
0.66
-0.38
-2.10
-4.27
-6.56
-8.67
-10.52
-12.12
-13.60
-15.00
-16.40
-17.93
-19.83
-22.31
-25.35
-28.49
-30.95
-31.93
-30.96
-28.11
-23.93
-19.17
-14.43
-9.96
-5.81
-1.91
1.69
4.80
7.16
8.64
9.34
9.53
9.62
9.94
10.62
11.61
12.75
13.85
14.78
15.57
16.25
16.88
17.45
17.88
18.13
18.22
18.21
18.13
17.96
17.59
16.87
15.78
14.37
12.80
11.18
9.56
7.93
6.27
4.59
2.97
1.44
0.00
-1.42
-2.94
-4.63
-6.49
-8.46
-10.40
-12.14
-13.53
-14.50
-15.10
-15.57
-16.28
-17.57
-19.68
-22.54
-25.81
-28.92
-31.23
-32.21
-31.48
-28.95
-24.82
-19.59
-13.89
-8.48
-3.93
-0.54
1.73
3.21
4.38
5.60
7.06
8.73
10.39
11.83
12.86
13.44
13.68
13.73
13.82
14.14
14.82
15.87
17.15
18.37
19.25
19.56
19.28
18.60
17.79
17.06
16.43
15.78
14.93
13.73
12.18
10.40
8.57
6.83
5.28
3.98
2.95
2.15
1.46
0.69
-0.42
-2.05
-4.26
-6.89
-9.67
-12.21
-14.23
-15.59
-16.43
-17.09
-18.07
-19.80
-22.44
-25.75
-29.14
-31.79
-32.92
-32.07
-29.24
-24.87
-19.67
-14.42
-9.66
-5.69
-2.51
0.03
2.15
3.98
5.61
7.10
8.45
9.68
10.70
11.47
11.95
12.19
12.34
12.63
13.17
13.89
14.55
14.81
14.56
13.91
13.22
12.89
13.05
13.54
13.94
13.80
12.89
11.33
9.48
7.73
6.35
5.31
4.39
3.35
2.02
0.45
-1.22
-2.85
-4.32
-5.65
-6.84
-7.97
-9.09
-10.25
-11.60
-13.37
-15.78
-18.95
-22.71
-26.51
-29.58
-31.10
-30.53
-27.84
-23.50
-18.33
-13.15
-8.54
-4.76
-1.75
0.66
2.64
4.33
5.83
7.18
8.38
9.32
9.83
9.80
9.27
8.48
7.85
7.78
8.46
9.83
11.54
13.16
14.33
14.82
14.56
13.59
12.06
10.21
8.38
6.96
6.20
6.04
6.12
5.89
4.94
3.16
0.84
-1.56
-3.67
-5.40
-6.97
-8.64
-10.55
-12.67
-14.86
-17.06
-19.29
-21.53
-23.54
-24.80
-24.71
-22.85
-19.31
-14.67
-9.74
-5.26
-1.62
1.20
3.46
5.44
7.32
9.12
10.73
12.02
12.89
13.27
13.17
12.71
12.07
11.43
10.91
10.53
10.28
10.17
10.27
10.65
11.29
12.02
12.56
12.61
12.07
11.05
9.82
8.66
7.71
6.86
5.89
4.59
2.86
0.76
-1.49
-3.71
-5.72
-7.45
-8.96
-10.34
-11.75
-13.36
-15.32
-17.76
-20.70
-24.02
-27.42
-30.48
-32.76
-33.91
-33.73
-32.17
-29.30
-25.30
-20.45
-15.11
-9.68
-4.57
-0.05
3.71
6.64
8.78
10.18
10.94
11.17
11.05
10.80
10.63
10.75
11.31
12.39
13.98
15.84
17.65
18.99
19.55
19.28
18.39
17.30
16.37
15.80
15.56
15.42
15.16
14.59
13.66
12.39
10.86
9.08
7.03
4.65
1.95
-1.02
-4.02
-6.76
-8.98
-10.59
-11.75
-12.85
-14.28
-16.32
-19.02
-22.26
-25.83
-29.49
-32.90
-35.67
-37.26
-37.22
-35.36
-31.82
-27.13
-21.94
-16.81
-12.03
-7.68
-3.71
-0.10
3.03
5.56
7.46
8.82
9.88
10.82
11.77
12.74
13.70
14.64
15.63
16.74
18.04
19.47
20.92
22.24
23.35
24.22
24.89
25.38
25.61
25.46
24.80
23.55
21.73
19.44
16.88
14.25
11.72
9.36
7.19
5.15
3.17
1.23
-0.60
-2.31
-3.92
-5.63
-7.66
-10.18
-13.15
-16.33
-19.31
-21.85
-23.99
-26.10
-28.59
-31.63
-34.92
-37.76
-39.32
-39.06
-36.95
-33.38
-28.98
-24.25
-19.44
-14.54
-9.51
-4.37
0.60
5.02
8.55
11.01
12.53
13.46
14.20
15.05
16.12
17.29
18.41
19.45
20.42
21.44
22.56
23.72
24.76
25.47
25.76
25.66
25.27
24.67
23.87
22.76
21.23
19.23
16.86
14.35
11.91
9.69
7.65
5.63
3.47
1.08
-1.54
-4.25
-6.93
-9.49
-11.89
-14.21
-16.58
-19.19
-22.27
-25.90
-29.94
-33.93
-37.15
-38.91
-38.78
-36.73
-33.09
-28.34
-22.90
-17.04
-10.97
-4.94
0.65
5.40
9.01
11.45
12.93
13.77
14.25
14.53
14.71
14.86
15.08
15.48
16.12
16.98
17.98
18.94
19.70
20.11
20.08
19.64
18.95
18.20
17.57
17.10
16.67
16.04
14.99
13.38
11.19
8.48
5.35
1.91
-1.62
-5.03
-8.04
-10.53
-12.52
-14.29
-16.19
-18.65
-21.85
-25.63
-29.51
-32.68
-34.40
-34.14
-31.82
-27.80
-22.69
-17.18
-11.79
-6.85
-2.50
1.21
4.32
6.84
8.90
10.58
12.00
13.18
14.10
14.75
15.15
15.34
15.36
15.25
15.04
14.77
14.56
14.43
14.39
14.40
14.33
14.05
13.47
12.47
10.93
8.79
6.13
3.12
0.07
-2.78
-5.34
-7.75
-10.29
-13.21
-16.66
-20.56
-24.69
-28.66
-31.91
-33.84
-33.83
-31.53
-26.96
-20.62
-13.35
-6.06
0.55
6.04
10.28
13.30
15.23
16.24
16.62
16.71
16.78
17.00
17.33
17.64
17.78
17.65
17.27
16.72
16.09
15.49
15.02
14.66
14.33
13.77
12.73
11.01
8.65
5.87
2.96
0.12
-2.61
-5.37
-8.36
-11.71
-15.45
-19.49
-23.70
-27.88
-31.73
-34.84
-36.72
-36.90
-35.05
-31.14
-25.50
-18.72
-11.57
-4.79
1.09
5.86
9.58
12.48
14.81
16.72
18.30
19.59
20.65
21.55
22.40
23.28
24.15
24.93
25.48
25.64
25.33
24.59
23.56
22.41
21.31
20.27
19.13
17.72
15.88
13.62
11.08
8.40
5.65
2.88
0.03
-2.91
-5.94
-9.11
-12.54
-16.39
-20.77
-25.59
-30.49
-34.94
-38.36
-40.25
-40.23
-38.11
-33.94
-28.03
-20.97
-13.59
-6.66
-0.75
4.01
7.78
10.93
13.77
16.45
18.90
20.98
22.65
23.98
25.16
26.36
27.63
28.87
29.90
30.52
30.68
30.53
30.32
30.27
30.45
30.71
30.73
30.28
29.22
27.66
25.75
23.62
21.28
18.69
15.81
12.70
9.52
6.47
3.70
1.29
-0.87
-2.98
-5.29
-7.99
-11.11
-14.41
-17.50
-19.97
-21.66
-22.80
-24.00
-25.94
-29.09
-33.42
-38.39
-43.18
-46.90
-48.86
-48.71
-46.37
-41.98
-35.84
-28.45
-20.45
-12.60
-5.59
0.10
4.36
7.43
9.77
11.89
14.10
16.40
18.57
20.28
21.31
21.68
21.63
21.51
21.61
22.05
22.83
23.84
24.93
25.97
26.85
27.42
27.54
27.06
25.99
24.38
22.36
20.11
17.73
15.34
13.04
10.90
8.99
7.21
5.44
3.49
1.27
-1.19
-3.72
-6.11
-8.29
-10.32
-12.38
-14.68
-17.30
-20.18
-23.20
-26.32
-29.57
-33.08
-36.87
-40.75
-44.17
-46.44
-46.81
-44.87
-40.60
-34.46
-27.18
-19.51
-12.17
-5.64
-0.23
3.95
7.01
9.22
10.99
12.72
14.65
16.80
18.98
20.92
22.38
23.24
23.53
23.37
22.99
22.60
22.42
22.57
22.99
23.51
23.87
23.87
23.44
22.61
21.44
19.94
18.06
15.79
13.23
10.63
8.30
6.45
5.09
3.99
2.79
1.10
-1.29
-4.42
-8.04
-11.78
-15.19
-17.96
-20.04
-21.67
-23.31
-25.46
-28.45
-32.28
-36.59
-40.75
-43.98
-45.56
-45.04
-42.33
-37.74
-31.88
-25.48
-19.19
-13.35
-8.05
-3.18
1.45
5.98
10.32
14.16
16.98
18.17
17.30
14.39
10.05
5.39
1.61
-0.35
-0.15
2.04
5.64
10.12
15.07
20.19
25.14
29.46
32.55
33.90
33.35
31.10
27.80
24.25
21.14
18.87
17.36
16.16
14.67
12.41
9.29
5.60
1.86
-1.52
-4.39
-6.91
-9.35
-11.90
-14.60
-17.34
-20.07
-22.79
-25.61
-28.41
-30.89
-32.51
-32.67
-31.02
-27.55
-22.63
-16.85
-10.78
-4.88
0.51
5.13
8.81
11.43
13.00
13.69
13.80
13.64
13.47
13.43
13.54
13.82
14.23
14.74
15.35
16.04
16.79
17.61
18.45
19.16
19.59
19.54
18.94
17.83
16.35
14.71
12.99
11.21
9.27
7.11
4.71
2.10
-0.65
-3.49
-6.35
-9.11
-11.69
-14.06
-16.24
-18.42
-20.81
-23.62
-26.93
-30.57
-34.21
-37.35
-39.40
-39.84
-38.34
-34.81
-29.49
-22.91
-15.74
-8.71
-2.38
2.90
6.99
10.01
12.17
13.73
14.88
15.72
16.28
16.55
16.55
16.37
16.13
15.95
15.93
16.07
16.35
16.68
17.00
17.30
17.53
17.64
17.55
17.13
16.27
14.95
13.26
11.36
9.47
7.76
6.25
4.86
3.37
1.61
-0.49
-2.83
-5.22
-7.48
-9.53
-11.41
-13.26
-15.19
-17.23
-19.39
-21.71
-24.26
-27.17
-30.39
-33.65
-36.41
-38.01
-37.92
-35.93
-32.27
-27.38
-21.89
-16.31
-10.97
-6.05
-1.58
2.49
6.16
9.42
12.17
14.28
15.67
16.34
16.44
16.27
16.13
16.25
16.66
17.29
17.95
18.50
18.92
19.23
19.49
19.68
19.73
19.48
18.81
17.68
16.15
14.41
12.62
10.90
9.24
7.56
5.70
3.53
1.00
-1.87
-4.89
-7.85
-10.51
-12.75
-14.62
-16.30
-18.06
-20.17
-22.81
-25.98
-29.58
-33.35
-36.91
-39.81
-41.53
-41.62
-39.82
-36.22
-31.19
-25.36
-19.31
-13.51
-8.17
-3.38
0.84
4.39
7.18
9.21
10.59
11.56
12.43
13.36
14.36
15.26
15.86
16.10
16.05
15.95
16.03
16.37
16.88
17.35
17.58
17.48
17.05
16.36
15.45
14.32
12.93
11.34
9.67
8.08
6.62
5.25
3.72
1.78
-0.71
-3.73
-7.02
-10.28
-13.20
-15.67
-17.73
-19.68
-21.85
-24.43
-27.37
-30.33
-32.75
-34.04
-33.75
-31.67
-27.92
-22.89
-17.13
-11.23
-5.79
-1.16
2.55
5.48
7.90
10.07
12.08
13.82
15.09
15.72
15.70
15.19
14.47
13.73
13.12
12.65
12.29
12.04
11.93
12.05
12.33
12.59
12.54
11.91
10.56
8.60
6.35
4.15
2.20
0.38
-1.59
-4.05
-7.13
-10.72
-14.52
-18.26
-21.74
-24.89
-27.58
-29.51
-30.24
-29.32
-26.51
-22.04
-16.48
-10.55
-4.91
0.09
4.32
7.82
10.65
12.85
14.42
15.46
16.03
16.22
16.15
15.91
15.66
15.54
15.66
15.97
16.36
16.64
16.67
16.48
16.16
15.87
15.65
15.42
14.98
14.07
12.51
10.20
7.25
3.89
0.43
-2.81
-5.63
-8.03
-10.15
-12.23
-14.52
-17.25
-20.55
-24.45
-28.78
-33.08
-36.69
-38.80
-38.76
-36.33
-31.72
-25.61
-18.76
-11.90
-5.51
0.18
5.04
9.06
12.21
14.54
16.18
17.34
18.20
18.93
19.59
20.17
20.62
20.87
20.89
20.70
20.39
20.10
19.94
19.97
20.09
20.16
19.93
19.26
18.11
16.58
14.84
13.02
11.17
9.17
6.87
4.11
0.85
-2.79
-6.56
-10.18
-13.45
-16.30
-18.86
-21.35
-24.02
-26.99
-30.20
-33.45
-36.40
-38.70
-39.95
-39.84
-38.10
-34.62
-29.52
-23.14
-16.17
-9.39
-3.53
0.98
4.12
6.15
7.48
8.43
9.19
9.73
9.99
9.92
9.58
9.10
8.60
8.20
8.06
8.42
9.50
11.44
14.13
17.23
20.35
23.14
25.47
27.36
28.95
30.34
31.50
32.30
32.51
31.89
30.25
27.52
23.87
19.78
15.97
13.19
11.83
11.76
12.35
12.81
12.54
11.43
9.71
7.73
5.62
3.27
0.47
-2.72
-5.84
-8.13
-8.78
-7.28
-3.56
2.05
8.98
16.60
24.29
31.44
37.49
41.99
44.71
45.69
45.15
43.47
41.06
38.34
35.71
33.53
32.02
31.15
30.50
29.48
27.51
24.28
19.96
15.06
10.18
5.74
1.80
-1.87
-5.57
-9.48
-13.61
-17.89
-22.30
-26.97
-32.12
-37.86
-44.05
-50.24
-55.86
-60.40
-63.69
-65.99
-67.90
-70.10
-73.04
-76.81
-80.99
-84.81
-87.40
-88.01
-86.29
-82.31
-76.52
-69.53
-61.91
-54.03
-46.07
-38.03
-29.83
-21.42
-12.79
-4.04
4.57
12.63
19.62
25.01
28.45
29.93
29.79
28.60
26.90
25.05
23.14
21.11
18.87
16.34
13.62
10.83
8.08
5.49
3.18
1.27
-0.08
-0.72
-0.68
-0.17
0.36
0.36
-0.63
-2.81
-6.06
-9.99
-14.08
-17.86
-20.90
-22.91
-23.61
-22.83
-20.54
-16.95
-12.49
-7.71
-3.09
1.09
4.76
7.99
10.83
13.20
14.95
15.91
15.99
15.28
14.06
12.68
11.49
10.78
10.66
11.03
11.59
11.87
11.31
9.53
6.44
2.42
-1.72
-4.91
-6.24
-5.22
-2.14
2.06
6.06
8.59
8.75
6.33
1.65
-4.47
-10.99
-16.78
-20.83
-22.44
-21.33
-17.75
-12.36
-6.07
0.27
6.03
10.84
14.66
17.58
19.87
21.82
23.80
26.01
28.43
30.72
32.36
32.89
32.13
30.32
27.98
25.66
23.76
22.35
21.27
20.26
19.09
17.72
16.18
14.54
12.82
10.83
8.29
4.91
0.49
-4.90
-10.87
-16.78
-21.89
-25.56
-27.32
-27.03
-24.73
-20.69
-15.39
-9.50
-3.82
0.95
4.31
6.19
6.87
6.83
6.49
6.10
5.70
5.18
4.51
3.76
3.13
2.81
2.89
3.28
3.82
4.32
4.67
4.89
5.00
4.99
4.78
4.28
3.40
2.11
0.47
-1.46
-3.62
-5.98
-8.51
-11.19
-14.04
-17.16
-20.69
-24.71
-29.15
-33.59
-37.29
-39.39
-39.17
-36.38
-31.28
-24.57
-17.15
-9.76
-2.88
3.32
8.77
13.38
16.92
19.20
20.16
19.98
19.09
18.01
17.15
16.70
16.58
16.60
16.54
16.32
15.97
15.63
15.44
15.41
15.39
15.07
14.08
12.20
9.41
5.95
2.24
-1.36
-4.66
-7.73
-10.73
-13.87
-17.17
-20.50
-23.62
-26.17
-27.85
-28.38
-27.53
-25.20
-21.38
-16.24
-10.10
-3.48
3.03
8.80
13.39
16.63
18.63
19.72
20.27
20.55
20.68
20.67
20.49
20.16
19.78
19.43
19.10
18.73
18.26
17.63
16.88
16.07
15.19
14.16
12.79
10.93
8.48
5.48
2.14
-1.26
-4.46
-7.37
-10.13
-13.07
-16.52
-20.57
-24.92
-28.90
-31.63
-32.39
-30.82
-27.12
-21.90
-15.90
-9.77
-3.87
1.68
6.85
11.55
15.58
18.74
20.89
22.10
22.63
22.77
22.73
22.58
22.30
21.80
21.12
20.37
19.66
19.05
18.58
18.20
17.83
17.39
16.71
15.66
14.11
12.01
9.47
6.64
3.70
0.75
-2.20
-5.18
-8.16
-11.10
-13.94
-16.73
-19.61
-22.69
-25.91
-28.93
-31.16
-32.00
-31.06
-28.32
-24.11
-18.94
-13.36
-7.72
-2.18
3.17
8.21
12.71
16.36
18.92
20.29
20.63
20.32
19.79
19.42
19.40
19.69
20.13
20.53
20.81
20.98
21.14
21.36
21.58
21.64
21.35
20.57
19.33
17.81
16.25
14.81
13.52
12.22
10.69
8.79
6.49
3.93
1.27
-1.35
-3.90
-6.37
-8.74
-10.92
-12.88
-14.68
-16.49
-18.50
-20.87
-23.62
-26.63
-29.68
-32.45
-34.57
-35.63
-35.20
-32.99
-29.02
-23.71
-17.79
-12.05
-7.05
-3.00
0.28
3.12
5.74
8.24
10.51
12.40
13.82
14.76
15.28
15.56
15.72
15.89
16.16
16.61
17.24
18.02
18.83
19.58
20.19
20.57
20.68
20.53
20.13
19.47
18.51
17.21
15.48
13.26
10.59
7.62
4.56
1.64
-0.97
-3.24
-5.24
-7.12
-9.03
-11.01
-13.03
-14.97
-16.74
-18.34
-19.88
-21.53
-23.44
-25.62
-27.95
-30.10
-31.67
-32.28
-31.68
-29.81
-26.82
-22.97
-18.58
-13.91
-9.21
-4.68
-0.55
2.95
5.62
7.38
8.36
8.85
9.21
9.80
10.72
11.87
12.98
13.76
14.09
14.06
13.97
14.14
14.73
15.63
16.53
17.06
16.96
16.23
15.05
13.72
12.44
11.27
10.09
8.79
7.32
5.75
4.26
3.02
2.09
1.42
0.84
0.10
-1.01
-2.67
-4.92
-7.64
-10.57
-13.33
-15.60
-17.25
-18.42
-19.48
-20.88
-22.87
-25.38
-27.99
-30.08
-31.04
-30.51
-28.45
-25.12
-20.93
-16.37
-11.81
-7.55
-3.74
-0.45
2.33
4.63
6.48
7.89
8.88
9.41
9.49
9.16
8.51
7.76
7.19
7.05
7.46
8.38
9.59
10.83
11.91
12.72
13.27
13.56
13.49
12.92
11.73
9.98
7.94
5.96
4.29
2.99
1.90
0.73
-0.75
-2.61
-4.74
-6.92
-8.92
-10.58
-11.84
-12.80
-13.65
-14.68
-16.10
-18.02
-20.25
-22.44
-24.08
-24.78
-24.32
-22.75
-20.23
-17.00
-13.29
-9.32
-5.33
-1.56
1.76
4.50
6.60
8.07
9.00
9.47
9.62
9.52
9.32
9.13
9.03
9.03
9.13
9.32
9.59
9.99
10.50
11.07
11.55
11.72
11.38
10.40
8.84
6.93
5.03
3.51
2.56
2.17
2.11
2.07
1.75
0.97
-0.33
-2.03
-3.98
-5.99
-7.87
-9.50
-10.84
-11.99
-13.12
-14.44
-16.15
-18.25
-20.61
-22.91
-24.85
-26.10
-26.42
-25.59
-23.54
-20.34
-16.28
-11.84
-7.58
-3.92
-1.03
1.19
3.03
4.72
6.38
7.94
9.24
10.16
10.72
10.99
11.05
10.95
10.73
10.44
10.21
10.15
10.33
10.69
11.08
11.29
11.19
10.76
10.13
9.46
8.86
8.34
7.83
7.24
6.52
5.71
4.86
3.98
3.03
1.91
0.51
-1.18
-3.10
-5.14
-7.16
-9.09
-10.90
-12.56
-14.05
-15.38
-16.63
-17.96
-19.56
-21.56
-23.84
-26.03
-27.58
-27.97
-27.01
-24.87
-21.97
-18.72
-15.32
-11.77
-8.02
-4.18
-0.58
2.36
4.36
5.48
6.05
6.52
7.18
8.01
8.75
9.08
8.80
7.95
6.81
5.76
5.20
5.40
6.37
7.84
9.27
10.01
9.48
7.45
4.21
0.48
-2.81
-4.87
-5.45
-4.98
-4.45
-5.00
-7.38
-11.66
-17.08
-22.37
-26.26
-28.11
-28.31
-28.36
-30.52
-36.91
-48.55
-64.48
-81.44
-94.40
-97.86
-87.57
-62.22
-24.24
20.16
62.34
93.29
106.20
98.49
72.85
36.36
-1.77
-33.09
-52.36
-58.33
-53.09
-40.28
-23.54
-5.73
10.95
24.51
33.09
35.41
31.53
23.22
13.43
5.21
0.56
-0.26
1.46
3.68
4.61
3.34
-0.07
-4.81
-9.87
-14.34
-17.63
-19.42
-19.68
-18.62
-16.71
-14.60
-12.95
-12.24
-12.70
-14.39
-17.44
-22.08
-28.46
-36.42
-45.15
-53.29
-59.36
-62.39
-62.35
-60.22
-57.55
-55.76
-55.59
-56.83
-58.53
-59.43
-58.36
-54.58
-47.95
-38.96
-28.61
-18.19
-8.84
-1.17
5.00
10.50
16.51
23.92
32.81
42.30
50.79
56.62
58.76
57.20
52.97
47.69
43.01
40.10
39.41
40.68
43.37
46.83
50.51
53.96
56.68
58.15
57.91
55.74
51.82
46.79
41.50
36.76
33.03
30.28
28.06
25.68
22.52
18.29
13.09
7.38
1.81
-2.99
-6.55
-8.67
-9.37
-8.80
-7.12
-4.43
-0.76
3.78
9.02
14.61
20.14
25.14
29.25
32.20
33.92
34.48
34.05
32.85
31.03
28.75
26.11
23.23
20.27
17.38
14.72
12.40
10.47
8.89
7.61
6.51
5.49
4.41
3.11
1.44
-0.79
-3.75
-7.58
-12.17
-17.13
-21.74
-25.11
-26.40
-25.16
-21.37
-15.46
-8.10
-0.04
7.95
15.12
20.81
24.46
25.80
24.87
22.05
17.89
12.95
7.62
2.12
-3.45
-8.97
-14.19
-18.77
-22.32
-24.59
-25.55
-25.46
-24.71
-23.76
-22.92
-22.33
-22.02
-21.94
-22.25
-23.20
-25.21
-28.61
-33.46
-39.38
-45.47
-50.47
-53.10
-52.50
-48.46
-41.52
-32.61
-22.74
-12.63
-2.59
7.29
16.83
25.69
33.33
39.31
43.42
45.84
46.96
47.20
46.87
46.10
44.93
43.42
41.71
39.92
38.17
36.44
34.71
32.92
31.04
29.08
27.05
24.89
22.51
19.67
16.05
11.32
5.27
-2.02
-10.10
-18.18
-25.27
-30.45
-33.13
-33.20
-31.03
-27.33
-22.85
-18.17
-13.59
-9.21
-5.05
-1.21
2.13
4.71
6.44
7.41
7.92
8.33
8.83
9.47
10.11
10.58
10.81
10.83
10.69
10.44
10.01
9.32
8.31
6.98
5.41
3.68
1.78
-0.45
-3.31
-7.14
-12.17
-18.34
-25.13
-31.62
-36.68
-39.30
-38.88
-35.44
-29.52
-22.00
-13.74
-5.48
2.29
9.27
15.24
20.08
23.73
26.30
27.98
28.99
29.49
29.58
29.27
28.59
27.64
26.61
25.71
25.11
24.87
24.88
24.91
24.64
23.83
22.32
20.14
17.45
14.46
11.36
8.18
4.85
1.18
-3.05
-7.93
-13.46
-19.47
-25.62
-31.40
-36.08
-38.93
-39.31
-36.97
-32.14
-25.53
-18.11
-10.72
-3.88
2.27
7.80
12.81
17.20
20.77
23.27
24.65
25.07
24.90
24.52
24.19
24.00
23.85
23.68
23.49
23.35
23.39
23.64
24.02
24.30
24.20
23.44
21.84
19.36
16.09
12.22
8.01
3.72
-0.46
-4.48
-8.51
-12.84
-17.75
-23.43
-29.80
-36.52
-42.99
-48.46
-52.15
-53.50
-52.28
-48.74
-43.53
-37.53
-31.52
-25.93
-20.72
-15.50
-9.78
-3.37
3.54
10.36
16.42
21.19
24.44
26.25
26.83
26.43
25.19
23.36
21.27
19.53
18.77
19.51
21.87
25.44
29.41
32.75
34.48
33.99
31.12
26.18
19.87
13.16
7.06
2.43
-0.29
-1.17
-0.83
-0.20
-0.20
-1.51
-4.47
-9.13
-15.32
-22.73
-30.73
-38.24
-43.76
-45.66
-42.64
-34.40
-21.81
-6.78
8.33
21.46
31.29
37.37
39.84
39.17
35.87
30.65
24.55
18.96
15.30
14.64
17.19
22.17
28.11
33.34
36.68
37.58
36.17
32.87
28.13
22.30
15.71
8.85
2.45
-2.60
-5.63
-6.41
-5.37
-3.51
-2.04
-1.98
-3.84
-7.50
-12.36
-17.56
-22.29
-25.89
-27.99
-28.49
-27.57
-25.59
-23.06
-20.44
-17.96
-15.49
-12.58
-8.65
-3.32
3.31
10.57
17.43
22.86
26.16
27.07
25.73
22.45
17.63
11.83
5.80
0.58
-2.65
-3.00
-0.28
4.90
11.19
17.03
21.13
22.73
21.60
17.84
11.70
3.55
-5.99
-15.90
-24.76
-31.09
-33.77
-32.46
-27.71
-20.86
-13.53
-7.18
-2.79
-0.66
-0.57
-1.90
-3.79
-5.30
-5.54
-3.82
0.10
5.91
12.70
19.12
23.72
25.41
23.74
19.04
12.35
5.14
-1.10
-5.17
-6.39
-4.81
-1.10
3.62
8.09
11.23
12.42
11.47
8.59
4.10
-1.66
-8.33
-15.47
-22.36
-28.09
-31.63
-32.24
-29.69
-24.41
-17.45
-10.08
-3.49
1.54
4.68
6.08
6.19
5.66
5.28
5.76
7.57
10.76
14.79
18.70
21.47
22.34
21.12
18.18
14.14
9.69
5.36
1.59
-1.20
-2.60
-2.33
-0.49
2.33
5.18
7.08
7.38
5.95
3.09
-0.77
-5.31
-10.32
-15.57
-20.58
-24.56
-26.57
-25.88
-22.27
-16.14
-8.36
0.03
8.11
15.18
20.78
24.68
26.76
27.11
25.97
23.70
20.77
17.65
14.74
12.37
10.78
10.04
10.09
10.70
11.55
12.32
12.71
12.56
11.82
10.52
8.74
6.61
4.24
1.71
-0.96
-3.80
-6.91
-10.32
-13.92
-17.44
-20.48
-22.57
-23.37
-22.73
-20.75
-17.69
-13.91
-9.74
-5.50
-1.47
2.02
4.62
6.06
6.18
5.01
2.84
0.12
-2.58
-4.75
-6.06
-6.51
-6.33
-5.95
-5.76
-6.00
-6.64
-7.50
-8.34
-9.03
-9.63
-10.32
-11.28
-12.60
-14.24
-16.15
-18.29
-20.67
-23.20
-25.58
-27.28
-27.64
-26.17
-22.83
-18.08
-12.70
-7.57
-3.25
0.04
2.43
4.15
5.40
6.27
6.78
6.96
6.85
6.53
6.04
5.41
4.63
3.73
2.76
1.80
0.94
0.27
-0.22
-0.60
-1.02
-1.71
-2.86
-4.58
-6.81
-9.39
-12.05
-14.56
-16.76
-18.51
-19.68
-20.06
-19.47
-17.82
-15.16
-11.80
-8.13
-4.53
-1.21
1.78
4.48
6.85
8.75
9.95
10.21
9.50
8.01
6.16
4.41
3.15
2.55
2.50
2.68
2.73
2.37
1.49
0.19
-1.35
-2.94
-4.53
-6.19
-8.08
-10.36
-13.01
-15.85
-18.52
-20.57
-21.61
-21.38
-19.87
-17.21
-13.67
-9.59
-5.34
-1.26
2.32
5.17
7.20
8.46
9.18
9.57
9.79
9.84
9.60
8.88
7.60
5.82
3.72
1.56
-0.38
-1.92
-2.95
-3.48
-3.65
-3.72
-4.02
-4.87
-6.49
-8.89
-11.91
-15.24
-18.53
-21.39
-23.46
-24.42
-24.11
-22.52
-19.87
-16.58
-13.07
-9.66
-6.44
-3.32
-0.21
2.89
5.80
8.18
9.70
10.25
9.90
8.92
7.66
6.43
5.42
4.74
4.37
4.28
4.36
4.54
4.75
4.96
5.16
5.29
5.20
4.70
3.56
1.68
-0.86
-3.83
-6.95
-9.99
-12.87
-15.56
-17.95
-19.77
-20.66
-20.25
-18.38
-15.19
-11.11
-6.71
-2.56
0.93
3.56
5.39
6.64
7.61
8.56
9.60
10.66
11.52
11.96
11.83
11.14
10.06
8.78
7.53
6.47
5.67
5.22
5.03
4.98
4.84
4.38
3.38
1.76
-0.37
-2.83
-5.33
-7.67
-9.78
-11.71
-13.64
-15.75
-18.10
-20.58
-22.90
-24.66
-25.50
-25.14
-23.43
-20.37
-16.13
-11.03
-5.58
-0.40
3.95
7.09
9.01
9.97
10.37
10.57
10.75
10.90
10.96
10.89
10.75
10.64
10.64
10.75
10.89
10.99
10.99
10.88
10.65
10.25
9.56
8.45
6.87
4.89
2.70
0.53
-1.47
-3.25
-4.92
-6.64
-8.64
-11.05
-13.91
-17.12
-20.48
-23.66
-26.24
-27.81
-28.02
-26.76
-24.16
-20.54
-16.33
-11.95
-7.71
-3.73
-0.06
3.33
6.48
9.33
11.70
13.42
14.35
14.53
14.17
13.58
13.07
12.83
12.84
12.97
13.11
13.17
13.18
13.22
13.27
13.23
12.90
12.09
10.74
8.93
6.87
4.80
2.88
1.14
-0.59
-2.49
-4.72
-7.34
-10.30
-13.46
-16.73
-20.02
-23.26
-26.31
-28.92
-30.70
-31.23
-30.21
-27.60
-23.65
-18.81
-13.57
-8.33
-3.35
1.23
5.38
9.00
12.00
14.29
15.81
16.58
16.71
16.33
15.68
14.96
14.44
14.28
14.54
15.12
15.86
16.59
17.20
17.59
17.72
17.51
16.86
15.79
14.36
12.71
10.95
9.15
7.27
5.20
2.89
0.32
-2.44
-5.33
-8.25
-11.15
-14.00
-16.81
-19.64
-22.57
-25.62
-28.63
-31.23
-32.97
-33.37
-32.16
-29.37
-25.28
-20.36
-15.06
-9.73
-4.59
0.28
4.75
8.68
11.87
14.21
15.68
16.46
16.76
16.84
16.79
16.64
16.36
16.01
15.75
15.78
16.23
17.01
17.82
18.29
18.17
17.41
16.22
14.85
13.52
12.24
10.89
9.21
7.06
4.41
1.44
-1.61
-4.53
-7.16
-9.49
-11.58
-13.59
-15.72
-18.21
-21.29
-25.01
-29.17
-33.24
-36.41
-37.81
-36.89
-33.56
-28.28
-21.85
-15.09
-8.60
-2.67
2.62
7.22
11.08
14.12
16.28
17.62
18.34
18.66
18.78
18.81
18.79
18.77
18.80
18.94
19.26
19.75
20.37
21.03
21.58
21.90
21.87
21.39
20.47
19.17
17.61
15.96
14.29
12.62
10.83
8.70
6.08
2.89
-0.75
-4.54
-8.09
-11.09
-13.43
-15.25
-16.91
-18.89
-21.53
-24.96
-29.00
-33.20
-36.96
-39.63
-40.61
-39.53
-36.30
-31.10
-24.51
-17.22
-9.97
-3.33
2.41
7.20
11.11
14.23
16.63
18.34
19.41
19.95
20.08
19.95
19.69
19.45
19.39
19.66
20.32
21.31
22.39
23.29
23.80
23.90
23.69
23.36
23.01
22.56
21.85
20.66
18.94
16.82
14.56
12.38
10.34
8.31
6.03
3.30
0.10
-3.38
-6.78
-9.82
-12.38
-14.55
-16.59
-18.84
-21.53
-24.81
-28.66
-32.94
-37.30
-41.31
-44.36
-45.89
-45.41
-42.70
-37.85
-31.27
-23.65
-15.72
-8.13
-1.35
4.38
8.99
12.56
15.22
17.11
18.39
19.20
19.71
20.05
20.31
20.56
20.83
21.12
21.45
21.84
22.32
22.94
23.73
24.60
25.38
25.81
25.65
24.81
23.35
21.47
19.40
17.29
15.17
12.98
10.68
8.29
5.85
3.39
0.84
-1.92
-4.96
-8.20
-11.43
-14.41
-16.96
-19.17
-21.36
-23.90
-27.11
-31.02
-35.35
-39.53
-42.85
-44.66
-44.50
-42.24
-38.01
-32.21
-25.34
-17.91
-10.45
-3.39
2.86
8.02
11.97
14.83
16.90
18.53
19.98
21.23
22.13
22.47
22.22
21.59
20.92
20.54
20.63
21.16
21.94
22.79
23.53
24.04
24.22
23.94
23.08
21.58
19.54
17.18
14.79
12.58
10.61
8.79
6.97
5.03
2.89
0.57
-1.95
-4.72
-7.77
-11.03
-14.34
-17.50
-20.27
-22.65
-24.80
-27.10
-29.94
-33.46
-37.43
-41.17
-43.80
-44.48
-42.66
-38.29
-31.74
-23.73
-15.09
-6.61
1.06
7.47
12.37
15.73
17.73
18.73
19.14
19.31
19.48
19.72
20.00
20.23
20.34
20.32
20.22
20.12
20.12
20.28
20.61
21.05
21.50
21.78
21.74
21.25
20.28
18.88
17.17
15.22
13.11
10.82
8.34
5.69
2.91
0.07
-2.81
-5.71
-8.64
-11.58
-14.49
-17.35
-20.16
-23.04
-26.17
-29.66
-33.53
-37.51
-41.12
-43.71
-44.61
-43.31
-39.66
-33.90
-26.63
-18.68
-10.86
-3.79
2.30
7.41
11.68
15.20
17.99
19.98
21.17
21.63
21.59
21.30
20.97
20.68
20.46
20.35
20.43
20.82
21.55
22.52
23.52
24.26
24.55
24.32
23.60
22.48
21.09
19.52
17.80
15.98
14.08
12.14
10.18
8.20
6.19
4.15
2.06
-0.09
-2.32
-4.66
-7.15
-9.77
-12.49
-15.26
-18.09
-21.04
-24.25
-27.85
-31.77
-35.82
-39.55
-42.47
-44.12
-44.21
-42.60
-39.30
-34.43
-28.21
-21.04
-13.43
-6.00
0.72
6.31
10.62
13.67
15.62
16.69
17.10
17.07
16.74
16.30
15.90
15.66
15.71
16.08
16.78
17.74
18.87
20.09
21.30
22.39
23.26
23.80
23.95
23.63
22.80
21.43
19.56
17.26
14.71
12.14
9.77
7.69
5.85
4.00
1.83
-0.89
-4.16
-7.75
-11.30
-14.46
-17.09
-19.29
-21.33
-23.56
-26.25
-29.49
-33.14
-36.88
-40.22
-42.54
-43.19
-41.71
-37.97
-32.28
-25.33
-17.97
-10.93
-4.67
0.64
5.06
8.73
11.79
14.30
16.28
17.71
18.61
19.02
19.07
18.96
18.93
19.17
19.73
20.52
21.36
22.12
22.72
23.21
23.63
23.96
24.11
23.89
23.19
21.94
20.24
18.24
16.17
14.20
12.35
10.54
8.62
6.42
3.88
1.05
-1.97
-5.03
-7.99
-10.79
-13.37
-15.73
-17.94
-20.16
-22.61
-25.51
-28.96
-32.96
-37.38
-41.96
-46.35
-50.07
-52.58
-53.32
-51.93
-48.32
-42.76
-35.77
-27.93
-19.79
-11.71
-3.92
3.49
10.50
17.10
23.17
28.49
32.69
35.36
36.27
35.50
33.44
30.73
28.00
25.66
23.89
22.72
22.13
22.08
22.50
23.23
23.99
24.46
24.36
23.57
22.14
20.26
18.11
15.86
13.54
11.13
8.54
5.71
2.67
-0.47
-3.62
-6.69
-9.77
-12.98
-16.46
-20.18
-23.99
-27.57
-30.64
-32.99
-34.43
-34.81
-33.89
-31.44
-27.35
-21.84
-15.45
-8.94
-3.06
1.76
5.39
8.03
9.97
11.41
12.46
13.07
13.20
12.85
12.13
11.24
10.45
9.97
9.89
10.18
10.66
11.08
11.24
11.10
10.74
10.31
9.81
9.06
7.78
5.70
2.78
-0.69
-4.31
-7.66
-10.59
-13.25
-15.99
-19.14
-22.85
-26.89
-30.73
-33.74
-35.33
-35.14
-33.14
-29.52
-24.66
-18.97
-12.90
-6.87
-1.26
3.53
7.26
9.81
11.29
11.98
12.26
12.45
12.66
12.84
12.73
12.11
10.91
9.29
7.61
6.25
5.44
5.15
5.12
4.98
4.42
3.28
1.62
-0.39
-2.58
-4.83
-7.12
-9.57
-12.36
-15.69
-19.72
-24.41
-29.51
-34.56
-38.94
-41.95
-43.01
-41.77
-38.21
-32.74
-26.11
-19.20
-12.87
-7.63
-3.58
-0.47
2.11
4.47
6.63
8.37
9.39
9.53
8.90
7.81
6.65
5.68
4.99
4.49
4.06
3.64
3.26
2.96
2.69
2.28
1.48
0.08
-2.08
-5.05
-8.79
-13.25
-18.30
-23.78
-29.36
-34.58
-38.80
-41.39
-41.89
-40.21
-36.56
-31.44
-25.41
-18.95
-12.40
-6.01
-0.06
5.20
9.53
12.87
15.33
17.18
18.69
19.99
21.08
21.82
22.12
22.01
21.64
21.24
20.99
20.93
20.95
20.80
20.26
19.19
17.55
15.40
12.84
9.90
6.50
2.45
-2.40
-8.10
-14.39
-20.70
-26.21
-30.07
-31.61
-30.59
-27.18
-21.92
-15.51
-8.57
-1.55
5.24
11.58
17.32
22.34
26.55
29.98
32.68
34.73
36.14
36.92
37.10
36.76
36.06
35.20
34.36
33.69
33.22
32.89
32.52
31.89
30.74
28.86
26.18
22.83
19.05
15.15
11.39
7.86
4.56
1.37
-1.95
-5.71
-10.27
-15.87
-22.44
-29.46
-35.95
-40.73
-42.81
-41.76
-37.85
-31.91
-24.96
-17.86
-11.07
-4.69
1.44
7.49
13.53
19.44
24.99
29.85
33.76
36.61
38.50
39.72
40.58
41.27
41.88
42.35
42.58
42.58
42.40
42.13
41.79
41.31
40.60
39.58
38.23
36.59
34.71
32.59
30.18
27.43
24.33
20.95
17.42
13.90
10.49
7.23
4.05
0.89
-2.32
-5.62
-9.02
-12.51
-16.08
-19.66
-23.24
-26.85
-30.62
-34.73
-39.35
-44.50
-49.88
-54.85
-58.52
-60.00
-58.69
-54.49
-47.91
-39.81
-31.17
-22.79
-15.06
-8.07
-1.71
4.11
9.34
13.88
17.67
20.73
23.20
25.21
26.83
28.07
28.96
29.64
30.32
31.22
32.44
33.88
35.25
36.17
36.36
35.73
34.45
32.79
31.05
29.38
27.73
25.91
23.72
21.10
18.15
15.07
12.04
9.09
6.13
2.99
-0.39
-3.93
-7.40
-10.59
-13.41
-15.99
-18.61
-21.55
-24.98
-28.96
-33.42
-38.25
-43.29
-48.21
-52.49
-55.45
-56.34
-54.67
-50.41
-44.06
-36.52
-28.71
-21.30
-14.57
-8.43
-2.69
2.81
8.01
12.75
16.79
20.03
22.58
24.65
26.46
28.17
29.75
31.12
32.16
32.85
33.27
33.55
33.79
34.02
34.19
34.18
33.89
33.24
32.21
30.80
29.01
26.91
24.61
22.25
19.91
17.65
15.44
13.23
10.94
8.53
6.02
3.38
0.64
-2.24
-5.21
-8.22
-11.20
-14.09
-16.92
-19.77
-22.80
-26.14
-29.91
-34.17
-38.85
-43.70
-48.35
-52.17
-54.51
-54.76
-52.59
-48.05
-41.58
-33.93
-25.93
-18.29
-11.48
-5.66
-0.67
3.77
7.91
11.82
15.41
18.46
20.87
22.65
24.03
25.24
26.42
27.54
28.48
29.19
29.73
30.28
30.96
31.76
32.47
32.80
32.56
31.73
30.47
29.01
27.48
25.87
24.12
22.17
20.05
17.86
15.67
13.47
11.21
8.84
6.33
3.78
1.31
-1.01
-3.20
-5.38
-7.68
-10.19
-12.86
-15.59
-18.23
-20.70
-23.07
-25.53
-28.34
-31.74
-35.84
-40.46
-45.14
-49.22
-51.91
-52.60
-50.94
-46.95
-41.03
-33.86
-26.21
-18.80
-12.15
-6.50
-1.87
1.90
5.00
7.57
9.66
11.30
12.59
13.74
15.03
16.64
18.56
20.54
22.23
23.35
23.90
24.13
24.38
24.89
25.65
26.44
27.01
27.15
26.82
26.07
24.93
23.46
21.68
19.66
17.54
15.48
13.57
11.82
10.17
8.54
6.92
5.29
3.59
1.75
-0.32
-2.68
-5.24
-7.82
-10.24
-12.38
-14.26
-16.01
-17.83
-19.85
-22.16
-24.76
-27.61
-30.73
-34.12
-37.71
-41.29
-44.41
-46.48
-46.90
-45.26
-41.52
-36.06
-29.55
-22.79
-16.49
-11.05
-6.61
-3.05
-0.17
2.25
4.30
6.06
7.53
8.78
9.90
11.03
12.22
13.48
14.74
15.91
16.87
17.60
18.12
18.48
18.79
19.11
19.48
19.89
20.27
20.54
20.69
20.71
20.63
20.45
20.10
19.49
18.46
16.99
15.14
13.10
11.14
9.42
7.99
6.75
5.47
3.96
2.07
-0.18
-2.64
-5.16
-7.55
-9.71
-11.63
-13.32
-14.83
-16.20
-17.48
-18.77
-20.22
-22.03
-24.38
-27.35
-30.79
-34.34
-37.45
-39.51
-40.06
-38.82
-35.89
-31.58
-26.39
-20.89
-15.59
-10.86
-6.93
-3.84
-1.46
0.38
1.90
3.22
4.39
5.37
6.12
6.62
6.90
7.10
7.38
7.87
8.69
9.84
11.22
12.67
13.97
14.94
15.51
15.70
15.66
15.54
15.44
15.35
15.19
14.84
14.22
13.28
12.07
10.63
9.04
7.40
5.83
4.46
3.39
2.59
1.99
1.42
0.75
-0.13
-1.29
-2.79
-4.65
-6.81
-9.13
-11.33
-13.16
-14.49
-15.36
-16.03
-16.85
-18.13
-20.05
-22.60
-25.61
-28.71
-31.42
-33.18
-33.52
-32.22
-29.41
-25.55
-21.28
-17.13
-13.43
-10.23
-7.44
-5.02
-3.00
-1.45
-0.36
0.39
1.05
1.86
2.94
4.26
5.62
6.80
7.63
8.11
8.37
8.59
8.97
9.59
10.42
11.33
12.13
12.70
12.94
12.87
12.57
12.13
11.63
11.04
10.32
9.47
8.51
7.58
6.84
6.39
6.14
5.91
5.41
4.47
3.11
1.55
0.06
-1.12
-1.90
-2.42
-2.93
-3.67
-4.79
-6.34
-8.22
-10.30
-12.41
-14.47
-16.44
-18.35
-20.27
-22.27
-24.39
-26.54
-28.48
-29.91
-30.44
-29.78
-27.83
-24.71
-20.71
-16.31
-11.98
-8.06
-4.76
-2.11
-0.06
1.48
2.59
3.33
3.77
4.05
4.33
4.82
5.62
6.67
7.79
8.71
9.22
9.28
9.03
8.74
8.67
8.98
9.71
10.68
11.67
12.43
12.77
12.69
12.17
11.30
10.16
8.85
7.49
6.25
5.22
4.46
3.90
3.44
2.94
2.31
1.45
0.30
-1.13
-2.83
-4.67
-6.49
-8.07
-9.30
-10.19
-10.89
-11.63
-12.62
-14.07
-16.09
-18.72
-21.83
-25.08
-28.02
-30.13
-31.03
-30.54
-28.72
-25.82
-22.17
-18.15
-14.15
-10.50
-7.37
-4.78
-2.55
-0.45
1.68
3.81
5.73
7.19
8.03
8.28
8.11
7.79
7.50
7.36
7.42
7.71
8.30
9.23
10.52
12.07
13.66
14.96
15.67
15.63
14.91
13.84
12.81
12.18
12.02
12.21
12.44
12.44
12.06
11.22
9.92
8.20
6.17
4.02
2.00
0.38
-0.74
-1.43
-1.90
-2.45
-3.27
-4.46
-6.00
-7.79
-9.69
-11.59
-13.40
-15.10
-16.82
-18.78
-21.17
-24.06
-27.23
-30.27
-32.64
-33.89
-33.80
-32.37
-29.73
-26.09
-21.73
-16.94
-12.14
-7.75
-4.10
-1.36
0.51
1.73
2.61
3.35
4.15
5.09
6.21
7.48
8.80
9.98
10.84
11.29
11.36
11.29
11.32
11.63
12.24
13.03
13.80
14.42
14.82
15.05
15.15
15.10
14.79
14.15
13.16
11.92
10.56
9.20
7.84
6.42
4.85
3.17
1.49
-0.09
-1.58
-3.11
-4.90
-7.07
-9.55
-12.11
-14.51
-16.69
-18.79
-21.09
-23.82
-27.02
-30.47
-33.74
-36.33
-37.79
-37.84
-36.36
-33.44
-29.34
-24.47
-19.31
-14.23
-9.50
-5.28
-1.59
1.55
4.14
6.20
7.84
9.25
10.62
12.07
13.52
14.81
15.72
16.18
16.30
16.33
16.56
17.19
18.26
19.62
21.05
22.25
22.98
23.09
22.54
21.42
19.91
18.21
16.46
14.72
12.98
11.23
9.53
7.97
6.55
5.21
3.77
2.04
-0.10
-2.59
-5.24
-7.84
-10.16
-12.16
-13.97
-15.84
-18.08
-20.93
-24.51
-28.72
-33.14
-37.12
-39.90
-40.84
-39.65
-36.51
-31.92
-26.54
-20.86
-15.17
-9.55
-4.10
0.98
5.36
8.76
11.12
12.67
13.81
14.83
15.84
16.73
17.44
17.98
18.55
19.36
20.48
21.77
22.96
23.83
24.34
24.61
24.81
25.04
25.25
25.33
25.18
24.76
24.01
22.90
21.36
19.36
17.02
14.55
12.18
10.04
8.05
6.04
3.80
1.26
-1.49
-4.20
-6.73
-9.09
-11.45
-14.14
-17.38
-21.24
-25.55
-29.99
-34.18
-37.75
-40.39
-41.85
-41.87
-40.24
-36.91
-32.01
-25.95
-19.30
-12.68
-6.58
-1.25
3.28
7.15
10.54
13.53
16.13
18.30
19.96
21.12
21.90
22.46
23.00
23.61
24.32
25.05
25.74
26.40
27.10
27.89
28.77
29.56
30.01
29.93
29.24
28.03
26.47
24.72
22.83
20.77
18.47
15.90
13.11
10.24
7.41
4.71
2.15
-0.28
-2.66
-5.07
-7.60
-10.37
-13.51
-17.06
-21.03
-25.32
-29.75
-34.06
-37.94
-40.99
-42.80
-42.99
-41.28
-37.66
-32.34
-25.84
-18.82
-11.91
-5.61
-0.13
4.51
8.45
11.78
14.53
16.67
18.22
19.32
20.21
21.08
22.04
22.99
23.74
24.18
24.34
24.46
24.81
25.54
26.59
27.67
28.47
28.74
28.43
27.62
26.45
24.99
23.27
21.24
18.87
16.22
13.36
10.40
7.39
4.31
1.13
-2.19
-5.51
-8.68
-11.52
-14.05
-16.48
-19.24
-22.72
-26.99
-31.67
-36.00
-39.07
-40.17
-39.03
-35.84
-31.06
-25.24
-18.87
-12.38
-6.15
-0.54
4.16
7.77
10.40
12.27
13.65
14.74
15.56
16.07
16.19
16.01
15.67
15.38
15.26
15.31
15.44
15.55
15.64
15.81
16.15
16.64
17.07
17.09
16.36
14.71
12.26
9.32
6.29
3.38
0.61
-2.18
-5.21
-8.59
-12.31
-16.26
-20.38
-24.56
-28.65
-32.28
-34.90
-35.83
-34.60
-31.08
-25.69
-19.18
-12.39
-6.02
-0.46
4.20
8.07
11.28
14.01
16.39
18.48
20.28
21.69
22.57
22.80
22.46
21.75
21.04
20.62
20.64
21.05
21.60
21.99
21.97
21.44
20.43
19.12
17.63
16.04
14.32
12.35
10.04
7.39
4.46
1.36
-1.79
-4.96
-8.10
-11.18
-14.16
-17.05
-19.96
-23.15
-26.89
-31.30
-36.14
-40.82
-44.44
-46.17
-45.44
-42.20
-36.88
-30.24
-23.09
-16.08
-9.57
-3.69
1.52
6.06
9.91
13.06
15.61
17.72
19.56
21.24
22.75
23.99
24.87
25.42
25.82
26.34
27.15
28.22
29.30
30.01
30.05
29.37
28.16
26.74
25.39
24.16
22.91
21.40
19.46
17.08
14.33
11.31
8.06
4.63
1.12
-2.31
-5.44
-8.13
-10.48
-12.72
-15.24
-18.31
-22.02
-26.27
-30.83
-35.40
-39.69
-43.39
-46.13
-47.48
-47.06
-44.62
-40.22
-34.25
-27.35
-20.29
-13.74
-8.07
-3.37
0.55
4.02
7.31
10.55
13.66
16.46
18.71
20.24
21.02
21.17
21.00
20.82
20.97
21.64
22.76
24.14
25.40
26.19
26.23
25.47
24.06
22.33
20.67
19.32
18.35
17.57
16.72
15.57
14.04
12.12
9.83
7.10
3.82
-0.02
-4.23
-8.40
-12.14
-15.30
-18.08
-20.91
-24.21
-28.08
-32.21
-36.06
-39.02
-40.61
-40.51
-38.59
-34.87
-29.64
-23.44
-17.04
-11.20
-6.37
-2.63
0.30
2.78
5.09
7.26
9.18
10.80
12.16
13.41
14.68
16.02
17.34
18.54
19.54
20.33
20.90
21.19
21.10
20.53
19.44
17.91
16.13
14.37
12.94
12.02
11.60
11.46
11.19
10.41
8.90
6.72
4.17
1.61
-0.69
-2.66
-4.38
-6.01
-7.75
-9.75
-12.18
-15.18
-18.80
-22.83
-26.79
-29.97
-31.64
-31.26
-28.71
-24.31
-18.72
-12.74
-7.04
-2.05
2.16
5.73
8.90
11.83
14.49
16.67
18.06
18.37
17.43
15.23
12.02
8.23
4.47
1.37
-0.56
-1.06
-0.13
1.93
4.68
7.66
10.47
12.89
14.81
16.28
17.41
18.30
18.96
19.33
19.36
19.01
18.33
17.36
16.04
14.15
11.42
7.67
2.97
-2.23
-7.17
-11.06
-13.23
-13.32
-11.44
-8.01
-3.65
1.12
6.05
11.20
16.82
23.07
29.79
36.37
41.86
45.19
45.40
41.99
34.97
25.08
13.55
1.66
-9.86
-21.27
-33.68
-48.34
-65.74
-85.11
-104.62
-122.24
-136.68
-147.75
-156.04
-162.19
-166.27
-167.76
-165.98
-160.79
-152.86
-143.51
-134.23
-126.09
-119.41
-113.74
-108.09
-101.33
-92.61
-81.64
-68.73
-54.58
-39.89
-24.99
-9.80
6.04
22.84
40.66
59.14
77.47
94.16
107.20
114.26
113.46
104.21
87.86
67.61
47.59
31.52
21.63
18.25
20.34
26.22
34.36
43.46
52.31
59.54
63.71
63.82
59.85
52.95
45.16
38.78
35.50
35.83
38.96
43.06
46.00
46.15
43.10
37.77
32.16
28.47
28.25
31.88
38.51
46.51
54.14
60.18
64.06
65.82
65.80
64.39
61.85
58.33
53.94
48.89
43.53
38.23
33.29
28.87
24.98
21.56
18.58
16.05
13.91
11.96
9.89
7.37
4.27
0.65
-3.19
-6.99
-10.68
-14.43
-18.58
-23.25
-28.19
-32.73
-36.02
-37.35
-36.49
-33.71
-29.62
-24.88
-19.91
-14.87
-9.77
-4.69
0.19
4.58
8.30
11.39
14.08
16.68
19.46
22.57
26.00
29.68
33.45
37.01
39.94
41.67
41.71
39.82
36.17
31.32
25.99
20.83
16.07
11.48
6.39
-0.06
-8.54
-19.25
-31.73
-44.91
-57.51
-68.45
-77.19
-83.94
-89.48
-94.77
-100.59
-107.13
-113.82
-119.29
-121.57
-118.52
-108.36
-90.34
-65.26
-35.51
-4.59
23.80
46.77
62.91
72.39
76.53
77.05
75.52
73.11
70.62
68.66
67.73
68.15
69.80
72.11
74.22
75.38
75.28
74.27
73.15
72.78
73.67
75.77
78.53
81.20
83.14
84.12
84.37
84.41
84.75
85.65
86.90
87.82
87.51
85.21
80.61
73.90
65.69
56.67
47.29
37.72
27.82
17.43
6.42
-5.29
-17.82
-31.27
-45.63
-60.54
-75.22
-88.60
-99.69
-107.84
-112.87
-114.84
-113.74
-109.36
-101.52
-90.46
-77.20
-63.65
-52.26
-45.30
-44.15
-48.87
-58.12
-69.48
-80.05
-87.15
-89.09
-85.63
-77.99
-68.13
-57.71
-47.18
-35.58
-21.17
-2.62
19.97
44.66
68.20
87.11
98.66
101.56
95.99
83.26
65.32
44.39
22.57
1.71
-16.81
-32.02
-43.16
-49.60
-50.60
-45.70
-34.90
-19.11
-0.32
18.47
33.94
43.54
46.76
45.68
44.57
48.29
60.22
80.69
106.71
133.06
154.26
166.30
167.50
158.29
140.47
116.45
88.84
60.36
33.67
11.08
-5.92
-16.96
-22.75
-24.74
-24.59
-23.92
-23.79
-24.86
-27.24
-30.75
-34.93
-39.30
-43.46
-47.21
-50.58
-53.65
-56.58
-59.40
-61.97
-64.04
-65.31
-65.54
-64.65
-62.71
-59.86
-56.31
-52.14
-47.41
-42.13
-36.42
-30.55
-24.92
-19.93
-15.88
-12.85
-10.76
-9.38
-8.51
-7.92
-7.48
-7.00
-6.41
-5.66
-4.89
-4.32
-4.20
-4.71
-5.75
-7.06
-8.34
-9.33
-9.97
-10.39
-10.79
-11.32
-12.03
-12.86
-13.72
-14.60
-15.60
-16.81
-18.29
-19.94
-21.54
-22.87
-23.84
-24.49
-24.92
-25.16
-25.01
-24.20
-22.47
-19.78
-16.45
-12.99
-9.93
-7.56
-5.93
-4.82
-3.98
-3.21
-2.40
-1.55
-0.65
0.35
1.46
2.71
4.02
5.25
6.21
6.73
6.69
6.08
4.97
3.58
2.15
0.90
-0.03
-0.62
-1.01
-1.37
-1.83
-2.45
-3.16
-3.85
-4.48
-5.09
-5.82
-6.75
-7.87
-9.00
-9.88
-10.26
-9.95
-8.95
-7.36
-5.36
-3.13
-0.89
1.23
3.04
4.45
5.45
6.09
6.52
6.80
6.97
6.96
6.66
6.01
5.04
3.90
2.75
1.76
1.02
0.50
0.10
-0.28
-0.69
-1.17
-1.69
-2.30
-2.99
-3.84
-4.89
-6.14
-7.50
-8.86
-10.06
-11.00
-11.65
-12.00
-12.04
-11.76
-11.10
-10.01
-8.54
-6.81
-5.03
-3.41
-2.08
-1.04
-0.15
0.72
1.65
2.56
3.33
3.80
3.92
3.72
3.32
2.85
2.39
1.92
1.38
0.74
0.02
-0.68
-1.22
-1.50
-1.53
-1.42
-1.38
-1.62
-2.25
-3.28
-4.58
-5.96
-7.28
-8.56
-9.89
-11.35
-12.87
-14.23
-15.07
-15.13
-14.35
-12.92
-11.19
-9.48
-7.99
-6.76
-5.74
-4.84
-3.92
-2.87
-1.56
0.06
1.91
3.68
5.02
5.65
5.50
4.80
3.89
3.12
2.69
2.58
2.66
2.75
2.78
2.75
2.71
2.66
2.57
2.38
2.07
1.68
1.26
0.84
0.31
-0.43
-1.49
-2.84
-4.33
-5.75
-6.91
-7.75
-8.28
-8.57
-8.56
-8.16
-7.32
-6.09
-4.77
-3.74
-3.34
-3.71
-4.76
-6.16
-7.52
-8.48
-8.77
-8.30
-7.08
-5.27
-3.08
-0.81
1.32
3.12
4.52
5.55
6.25
6.63
6.67
6.31
5.56
4.55
3.54
2.80
2.52
2.67
3.02
3.29
3.26
2.94
2.47
2.06
1.77
1.56
1.27
0.80
0.15
-0.59
-1.32
-2.01
-2.71
-3.50
-4.34
-5.13
-5.76
-6.18
-6.41
-6.57
-6.80
-7.24
-7.92
-8.79
-9.69
-10.39
-10.71
-10.57
-9.99
-9.13
-8.06
-6.81
-5.36
-3.65
-1.73
0.22
1.92
3.10
3.64
3.59
3.13
2.54
2.09
1.95
2.18
2.68
3.26
3.69
3.87
3.84
3.77
3.85
4.13
4.47
4.59
4.27
3.45
2.32
1.18
0.30
-0.22
-0.56
-0.97
-1.64
-2.57
-3.61
-4.51
-5.16
-5.61
-5.99
-6.48
-7.13
-7.89
-8.63
-9.25
-9.78
-10.27
-10.82
-11.37
-11.76
-11.76
-11.15
-9.84
-7.92
-5.61
-3.20
-0.88
1.22
3.02
4.43
5.37
5.68
5.37
4.55
3.53
2.69
2.31
2.48
3.10
3.90
4.60
5.03
5.15
5.05
4.85
4.62
4.38
4.11
3.77
3.36
2.87
2.30
1.59
0.68
-0.46
-1.77
-3.13
-4.42
-5.56
-6.57
-7.51
-8.47
-9.46
-10.48
-11.58
-12.79
-14.13
-15.50
-16.70
-17.47
-17.57
-16.90
-15.47
-13.39
-10.81
-7.90
-4.88
-1.97
0.64
2.81
4.55
5.89
6.92
7.64
8.06
8.20
8.14
8.02
7.98
8.09
8.38
8.79
9.20
9.51
9.67
9.59
9.30
8.90
8.49
8.11
7.73
7.20
6.41
5.32
4.06
2.81
1.68
0.70
-0.22
-1.20
-2.27
-3.41
-4.56
-5.68
-6.79
-7.94
-9.19
-10.59
-12.16
-13.94
-15.90
-17.97
-19.97
-21.65
-22.77
-23.21
-22.95
-22.00
-20.36
-18.00
-14.94
-11.37
-7.60
-4.01
-0.90
1.63
3.66
5.32
6.74
7.93
8.87
9.58
10.09
10.48
10.80
11.07
11.31
11.57
11.93
12.40
12.95
13.47
13.87
14.14
14.32
14.43
14.38
13.99
13.10
11.72
10.04
8.36
6.92
5.73
4.62
3.32
1.63
-0.43
-2.72
-4.98
-7.07
-8.88
-10.46
-11.89
-13.37
-15.09
-17.27
-19.98
-23.02
-25.98
-28.28
-29.38
-28.98
-27.10
-23.99
-20.03
-15.59
-10.97
-6.46
-2.27
1.37
4.39
6.87
9.00
10.97
12.91
14.76
16.38
17.59
18.23
18.26
17.76
16.99
16.29
16.06
16.52
17.64
19.09
20.35
20.99
20.79
19.89
18.56
17.07
15.52
13.87
12.04
10.01
7.91
5.87
3.95
2.04
-0.02
-2.39
-5.12
-8.14
-11.29
-14.48
-17.64
-20.75
-23.76
-26.56
-29.01
-30.86
-31.85
-31.71
-30.29
-27.61
-23.87
-19.43
-14.61
-9.72
-4.91
-0.30
3.95
7.67
10.66
12.83
14.26
15.16
15.81
16.39
17.01
17.71
18.56
19.68
21.24
23.33
25.83
28.42
30.63
32.03
32.37
31.65
30.02
27.77
25.14
22.33
19.47
16.64
13.86
11.09
8.28
5.36
2.34
-0.71
-3.69
-6.58
-9.42
-12.29
-15.17
-17.88
-20.20
-21.98
-23.33
-24.60
-26.21
-28.32
-30.67
-32.62
-33.43
-32.57
-29.98
-26.02
-21.24
-16.15
-11.05
-6.13
-1.51
2.62
6.08
8.77
10.73
12.10
13.06
13.79
14.45
15.24
16.30
17.73
19.48
21.34
23.02
24.39
25.46
26.37
27.28
28.17
28.77
28.71
27.69
25.63
22.72
19.36
16.00
12.96
10.36
8.09
5.88
3.39
0.39
-3.23
-7.33
-11.62
-15.76
-19.42
-22.34
-24.34
-25.39
-25.64
-25.46
-25.35
-25.78
-26.92
-28.56
-30.09
-30.74
-29.94
-27.47
-23.55
-18.68
-13.39
-8.15
-3.24
1.12
4.68
7.20
8.57
8.85
8.40
7.72
7.35
7.66
8.71
10.35
12.27
14.20
16.01
17.73
19.44
21.23
23.04
24.70
25.96
26.56
26.36
25.37
23.78
21.88
20.01
18.39
17.04
15.83
14.48
12.73
10.51
7.97
5.41
3.14
1.31
-0.19
-1.69
-3.60
-6.21
-9.64
-13.70
-17.96
-21.80
-24.57
-25.68
-24.72
-21.55
-16.41
-9.87
-2.73
4.17
10.14
14.84
18.28
20.80
22.78
24.49
25.98
27.07
27.58
27.48
26.96
26.31
25.83
25.60
25.51
25.35
24.92
24.09
22.90
21.44
19.84
18.23
16.67
15.18
13.67
11.97
9.90
7.35
4.36
1.09
-2.25
-5.49
-8.56
-11.49
-14.35
-17.21
-20.12
-23.09
-26.08
-28.92
-31.34
-32.97
-33.38
-32.26
-29.49
-25.18
-19.69
-13.53
-7.25
-1.38
3.69
7.70
10.55
12.20
12.78
12.45
11.49
10.21
8.91
7.77
6.87
6.17
5.68
5.43
5.51
5.96
6.62
7.13
7.10
6.29
4.71
2.64
0.44
-1.68
-3.69
-5.73
-7.96
-10.50
-13.36
-16.57
-20.10
-23.86
-27.53
-30.57
-32.27
-32.11
-29.87
-25.86
-20.70
-15.17
-9.82
-4.94
-0.56
3.42
6.99
9.98
12.12
13.13
12.94
11.77
10.07
8.33
6.93
5.89
4.99
3.90
2.39
0.46
-1.68
-3.80
-5.83
-7.85
-10.03
-12.44
-14.96
-17.35
-19.45
-21.26
-22.99
-24.90
-27.02
-29.15
-30.78
-31.34
-30.36
-27.68
-23.43
-18.02
-11.98
-5.86
-0.17
4.76
8.73
11.72
13.85
15.32
16.42
17.50
18.88
20.76
23.08
25.46
27.27
27.86
26.83
24.29
20.82
17.30
14.56
13.19
13.40
15.06
17.84
21.29
24.79
27.56
28.73
27.48
23.29
16.20
6.86
-3.61
-13.94
-22.99
-30.01
-34.61
-36.68
-36.20
-33.12
-27.46
-19.48
-9.83
0.40
9.87
17.33
21.92
23.35
21.94
18.39
13.60
8.44
3.69
0.06
-1.91
-1.81
0.46
4.53
9.61
14.54
18.08
19.32
17.99
14.45
9.61
4.44
-0.30
-4.31
-7.65
-10.47
-12.89
-14.84
-16.18
-16.84
-16.93
-16.74
-16.58
-16.63
-16.87
-17.08
-16.95
-16.19
-14.68
-12.41
-9.54
-6.24
-2.68
1.08
5.05
9.25
13.69
18.26
22.79
26.95
30.37
32.75
33.88
33.74
32.47
30.32
27.57
24.53
21.50
18.72
16.38
14.58
13.25
12.26
11.42
10.56
9.55
8.27
6.56
4.26
1.18
-2.72
-7.33
-12.32
-17.29
-21.75
-25.31
-27.62
-28.38
-27.45
-24.82
-20.67
-15.39
-9.51
-3.58
1.88
6.56
10.27
12.99
14.76
15.71
15.98
15.78
15.30
14.66
13.98
13.27
12.54
11.81
11.14
10.55
10.00
9.38
8.51
7.27
5.66
3.80
1.84
-0.15
-2.33
-4.92
-8.15
-12.10
-16.54
-21.03
-25.01
-27.96
-29.50
-29.44
-27.72
-24.40
-19.73
-14.16
-8.26
-2.59
2.40
6.56
9.95
12.73
15.02
16.79
17.98
18.56
18.58
18.18
17.51
16.63
15.54
14.25
12.79
11.15
9.34
7.32
5.06
2.66
0.32
-1.64
-2.99
-3.72
-4.00
-4.28
-5.04
-6.74
-9.57
-13.51
-18.23
-23.18
-27.74
-31.27
-33.27
-33.39
-31.51
-27.65
-22.03
-15.10
-7.49
-0.01
6.64
11.94
15.72
18.13
19.46
20.01
19.96
19.41
18.50
17.41
16.38
15.61
15.13
14.82
14.44
13.77
12.68
11.16
9.33
7.33
5.33
3.44
1.69
0.05
-1.65
-3.65
-6.17
-9.32
-12.96
-16.74
-20.17
-22.79
-24.23
-24.27
-22.81
-19.85
-15.50
-10.06
-3.97
2.18
7.75
12.31
15.69
18.01
19.56
20.67
21.53
22.17
22.52
22.49
22.02
21.17
20.03
18.69
17.21
15.59
13.83
11.92
9.91
7.87
5.84
3.83
1.81
-0.32
-2.75
-5.63
-9.12
-13.24
-17.78
-22.35
-26.30
-28.94
-29.70
-28.26
-24.69
-19.45
-13.23
-6.80
-0.73
4.67
9.34
13.38
16.84
19.70
21.88
23.27
23.93
24.04
23.81
23.37
22.74
21.88
20.72
19.37
18.01
16.81
15.88
15.09
14.21
12.96
11.18
8.89
6.28
3.61
1.06
-1.41
-4.05
-7.18
-11.07
-15.71
-20.78
-25.68
-29.67
-32.07
-32.43
-30.63
-26.91
-21.80
-16.00
-10.20
-4.89
-0.27
3.75
7.44
10.97
14.33
17.31
19.62
21.07
21.70
21.68
21.29
20.81
20.41
20.18
20.12
20.20
20.31
20.31
20.04
19.40
18.34
16.90
15.14
13.13
10.92
8.51
5.95
3.32
0.68
-1.89
-4.36
-6.75
-9.16
-11.79
-14.81
-18.29
-22.13
-26.08
-29.78
-32.85
-34.97
-35.86
-35.26
-33.02
-29.20
-24.12
-18.37
-12.62
-7.45
-3.10
0.55
3.80
6.91
9.91
12.62
14.75
16.16
16.91
17.24
17.46
17.74
18.06
18.29
18.28
17.98
17.54
17.15
16.99
17.09
17.26
17.25
16.76
15.67
13.97
11.84
9.50
7.14
4.79
2.36
-0.25
-3.10
-6.09
-9.02
-11.64
-13.81
-15.56
-17.06
-18.60
-20.43
-22.68
-25.26
-27.89
-30.12
-31.45
-31.45
-29.92
-26.91
-22.75
-17.87
-12.67
-7.50
-2.60
1.78
5.39
8.03
9.66
10.39
10.52
10.43
10.43
10.70
11.26
12.06
13.01
14.05
15.12
16.09
16.80
17.07
16.83
16.14
15.16
14.11
13.08
12.09
11.07
9.98
8.85
7.68
6.45
5.05
3.33
1.20
-1.28
-3.94
-6.56
-8.99
-11.20
-13.24
-15.13
-16.88
-18.51
-20.11
-21.79
-23.64
-25.58
-27.34
-28.55
-28.88
-28.11
-26.21
-23.25
-19.38
-14.85
-9.98
-5.20
-0.95
2.45
4.90
6.53
7.57
8.26
8.76
9.14
9.46
9.77
10.11
10.51
10.97
11.44
11.85
12.16
12.39
12.55
12.69
12.82
12.96
13.01
12.88
12.46
11.68
10.59
9.34
8.12
7.01
5.99
4.94
3.71
2.22
0.48
-1.43
-3.40
-5.36
-7.28
-9.14
-10.92
-12.54
-13.94
-15.11
-16.07
-16.92
-17.78
-18.80
-20.06
-21.49
-22.92
-24.01
-24.40
-23.84
-22.28
-19.91
-17.04
-14.01
-11.03
-8.18
-5.47
-2.89
-0.54
1.51
3.22
4.63
5.80
6.81
7.71
8.45
9.02
9.46
9.81
10.17
10.55
10.86
10.97
10.71
10.00
8.90
7.57
6.28
5.28
4.71
4.55
4.62
4.66
4.49
4.03
3.40
2.73
2.10
1.47
0.71
-0.29
-1.56
-3.06
-4.68
-6.30
-7.85
-9.25
-10.45
-11.44
-12.24
-12.95
-13.70
-14.58
-15.61
-16.75
-17.87
-18.84
-19.51
-19.73
-19.34
-18.24
-16.41
-14.02
-11.28
-8.53
-6.01
-3.88
-2.19
-0.83
0.35
1.48
2.61
3.69
4.58
5.17
5.43
5.48
5.48
5.61
5.95
6.45
7.03
7.66
8.34
9.05
9.70
10.11
10.09
9.53
8.48
7.15
5.76
4.49
3.41
2.53
1.79
1.13
0.50
-0.24
-1.17
-2.37
-3.79
-5.24
-6.50
-7.39
-7.93
-8.33
-8.92
-9.94
-11.45
-13.25
-14.97
-16.26
-17.00
-17.31
-17.51
-17.88
-18.47
-19.00
-19.01
-18.10
-16.14
-13.33
-10.10
-6.97
-4.25
-1.97
0.02
1.89
3.74
5.48
6.95
7.98
8.55
8.77
8.78
8.69
8.49
8.12
7.54
6.85
6.28
6.07
6.35
7.00
7.72
8.18
8.19
7.77
7.12
6.46
5.91
5.47
5.05
4.59
4.06
3.51
2.94
2.31
1.54
0.61
-0.41
-1.44
-2.36
-3.18
-3.95
-4.79
-5.77
-6.95
-8.31
-9.79
-11.30
-12.67
-13.75
-14.40
-14.69
-14.80
-14.98
-15.43
-16.15
-16.93
-17.40
-17.17
-15.99
-13.82
-10.91
-7.67
-4.58
-2.03
-0.14
1.22
2.30
3.34
4.35
5.15
5.51
5.34
4.86
4.46
4.57
5.32
6.55
7.87
8.83
9.20
8.99
8.39
7.70
7.12
6.79
6.70
6.80
6.97
7.09
7.01
6.60
5.81
4.66
3.27
1.82
0.48
-0.68
-1.70
-2.70
-3.82
-5.05
-6.39
-7.74
-9.07
-10.38
-11.67
-12.84
-13.79
-14.45
-14.87
-15.29
-15.97
-17.02
-18.30
-19.36
-19.71
-18.96
-17.05
-14.19
-10.80
-7.28
-3.93
-0.91
1.76
4.08
6.08
7.74
8.98
9.69
9.81
9.37
8.55
7.62
6.84
6.34
6.14
6.13
6.20
6.29
6.42
6.66
6.99
7.36
7.64
7.72
7.51
6.99
6.18
5.19
4.16
3.22
2.48
1.96
1.57
1.14
0.52
-0.40
-1.64
-3.14
-4.86
-6.74
-8.72
-10.64
-12.33
-13.57
-14.27
-14.53
-14.61
-14.87
-15.52
-16.56
-17.76
-18.71
-19.01
-18.33
-16.60
-13.89
-10.50
-6.87
-3.47
-0.68
1.31
2.58
3.39
4.10
4.98
6.12
7.40
8.59
9.51
10.08
10.38
10.53
10.63
10.74
10.84
10.94
11.00
11.04
11.08
11.11
11.09
10.98
10.71
10.22
9.48
8.48
7.26
5.96
4.74
3.70
2.85
2.06
1.09
-0.24
-1.96
-3.92
-5.85
-7.49
-8.69
-9.46
-9.90
-10.24
-10.74
-11.64
-13.16
-15.34
-18.01
-20.77
-23.03
-24.22
-23.99
-22.24
-19.20
-15.27
-10.90
-6.52
-2.45
1.11
4.08
6.48
8.33
9.64
10.43
10.70
10.58
10.27
10.05
10.11
10.45
10.91
11.26
11.35
11.19
10.99
10.95
11.18
11.65
12.19
12.65
12.86
12.72
12.15
11.12
9.68
7.99
6.28
4.80
3.62
2.71
1.85
0.85
-0.36
-1.71
-3.06
-4.28
-5.41
-6.60
-8.05
-9.76
-11.59
-13.26
-14.59
-15.65
-16.68
-17.98
-19.62
-21.31
-22.49
-22.54
-21.06
-18.06
-13.93
-9.26
-4.59
-0.37
3.16
5.87
7.72
8.79
9.23
9.30
9.27
9.36
9.66
10.15
10.77
11.40
11.99
12.55
13.11
13.68
14.25
14.74
15.07
15.20
15.13
14.97
14.78
14.58
14.30
13.86
13.13
12.10
10.83
9.42
7.96
6.46
4.87
3.16
1.38
-0.43
-2.21
-3.96
-5.74
-7.62
-9.58
-11.57
-13.48
-15.29
-17.09
-18.98
-21.02
-23.11
-24.95
-26.16
-26.37
-25.34
-23.09
-19.80
-15.77
-11.38
-6.88
-2.53
1.46
4.90
7.60
9.46
10.52
11.02
11.27
11.56
12.06
12.71
13.35
13.85
14.20
14.54
15.00
15.61
16.24
16.67
16.76
16.53
16.16
15.87
15.80
15.82
15.69
15.09
13.86
12.05
9.91
7.81
6.01
4.58
3.36
2.08
0.50
-1.48
-3.73
-6.03
-8.14
-9.95
-11.49
-12.98
-14.64
-16.63
-18.95
-21.49
-24.00
-26.17
-27.70
-28.30
-27.78
-26.06
-23.17
-19.32
-14.81
-9.98
-5.19
-0.74
3.18
6.48
9.16
11.26
12.85
13.94
14.52
14.60
14.26
13.75
13.41
13.54
14.31
15.56
16.95
18.07
18.66
18.72
18.42
17.93
17.35
16.59
15.58
14.30
12.90
11.60
10.55
9.75
9.03
8.19
7.13
5.83
4.37
2.82
1.24
-0.40
-2.09
-3.81
-5.46
-7.00
-8.44
-9.91
-11.64
-13.88
-16.79
-20.28
-24.02
-27.45
-29.94
-30.92
-30.05
-27.32
-23.03
-17.71
-12.01
-6.53
-1.75
2.10
4.98
7.10
8.73
10.15
11.45
12.61
13.47
13.89
13.90
13.68
13.51
13.65
14.20
15.02
15.89
16.58
16.99
17.17
17.18
17.07
16.80
16.27
15.44
14.33
12.97
11.46
9.89
8.31
6.80
5.42
4.16
2.98
1.73
0.26
-1.60
-3.92
-6.65
-9.61
-12.49
-15.03
-17.07
-18.66
-20.04
-21.52
-23.27
-25.21
-26.92
-27.85
-27.50
-25.69
-22.54
-18.42
-13.78
-9.00
-4.37
-0.09
3.64
6.66
8.88
10.29
10.97
11.14
11.09
11.16
11.54
12.30
13.28
14.21
14.85
15.15
15.21
15.26
15.47
15.87
16.34
16.64
16.58
16.07
15.11
13.77
12.12
10.24
8.23
6.21
4.31
2.59
1.03
-0.43
-1.92
-3.52
-5.25
-7.08
-8.98
-10.94
-12.97
-15.06
-17.22
-19.47
-21.73
-23.92
-25.85
-27.27
-27.84
-27.25
-25.31
-22.02
-17.61
-12.52
-7.30
-2.44
1.70
4.99
7.50
9.42
10.92
12.11
13.00
13.60
13.92
14.07
14.19
14.33
14.48
14.58
14.56
14.47
14.44
14.59
14.92
15.32
15.51
15.30
14.57
13.32
11.67
9.78
7.79
5.84
4.02
2.34
0.74
-0.87
-2.59
-4.40
-6.23
-7.98
-9.59
-11.17
-12.88
-14.91
-17.35
-20.11
-22.94
-25.52
-27.48
-28.52
-28.39
-26.98
-24.30
-20.51
-15.88
-10.81
-5.73
-1.04
2.93
5.98
8.08
9.36
10.08
10.51
10.88
11.26
11.59
11.74
11.62
11.26
10.85
10.64
10.79
11.35
12.19
13.02
13.55
13.59
13.07
12.14
11.02
9.94
9.00
8.13
7.14
5.80
3.98
1.68
-0.97
-3.73
-6.41
-8.86
-11.06
-13.06
-15.04
-17.13
-19.47
-22.02
-24.51
-26.53
-27.57
-27.27
-25.49
-22.37
-18.22
-13.44
-8.37
-3.37
1.25
5.20
8.24
10.26
11.32
11.63
11.51
11.22
10.95
10.75
10.56
10.26
9.80
9.14
8.35
7.55
6.85
6.35
6.06
5.97
5.98
5.96
5.69
4.92
3.41
1.10
-1.85
-5.11
-8.24
-10.92
-13.10
-15.03
-17.07
-19.57
-22.56
-25.73
-28.51
-30.25
-30.44
-28.88
-25.62
-20.94
-15.26
-9.07
-2.90
2.75
7.48
11.05
13.45
14.86
15.56
15.88
16.01
16.12
16.22
16.36
16.51
16.66
16.82
16.95
17.04
17.06
17.03
16.88
16.59
16.08
15.28
14.16
12.70
10.96
8.97
6.76
4.31
1.65
-1.15
-3.97
-6.61
-8.93
-10.95
-12.91
-15.14
-17.98
-21.51
-25.51
-29.47
-32.69
-34.54
-34.50
-32.34
-28.08
-22.08
-14.97
-7.54
-0.63
5.16
9.53
12.52
14.46
15.73
16.64
17.41
18.13
18.83
19.51
20.18
20.78
21.27
21.61
21.75
21.70
21.52
21.18
20.67
19.97
19.08
18.01
16.79
15.37
13.68
11.67
9.33
6.77
4.16
1.60
-0.83
-3.15
-5.43
-7.70
-9.96
-12.24
-14.58
-17.14
-20.11
-23.55
-27.28
-30.85
-33.66
-35.07
-34.67
-32.33
-28.21
-22.75
-16.48
-9.97
-3.69
2.01
6.92
10.95
14.13
16.52
18.24
19.41
20.13
20.49
20.57
20.45
20.25
20.08
20.09
20.32
20.76
21.31
21.84
22.24
22.43
22.34
21.89
21.02
19.65
17.83
15.72
13.56
11.53
9.71
7.93
5.95
3.51
0.51
-2.95
-6.56
-10.03
-13.11
-15.74
-18.02
-20.14
-22.28
-24.59
-27.14
-29.89
-32.67
-35.16
-36.92
-37.48
-36.46
-33.70
-29.30
-23.58
-16.99
-10.02
-3.12
3.32
8.97
13.59
17.09
19.53
21.07
21.95
22.38
22.49
22.38
22.10
21.78
21.54
21.46
21.57
21.75
21.89
21.93
21.88
21.79
21.68
21.43
20.84
19.78
18.21
16.26
14.19
12.18
10.30
8.46
6.49
4.20
1.49
-1.62
-5.01
-8.47
-11.73
-14.56
-16.82
-18.53
-19.86
-21.08
-22.49
-24.29
-26.61
-29.41
-32.47
-35.36
-37.43
-37.95
-36.33
-32.40
-26.51
-19.41
-12.07
-5.30
0.44
5.04
8.68
11.55
13.82
15.53
16.71
17.48
18.05
18.68
19.53
20.63
21.84
22.91
23.64
23.94
23.80
23.32
22.68
22.05
21.60
21.40
21.42
21.47
21.23
20.41
18.93
16.87
14.52
12.19
10.07
8.19
6.46
4.72
2.84
0.71
-1.69
-4.41
-7.36
-10.39
-13.32
-15.94
-18.14
-19.96
-21.53
-23.01
-24.57
-26.34
-28.44
-30.92
-33.63
-36.19
-38.01
-38.47
-37.13
-33.93
-29.13
-23.23
-16.74
-10.06
-3.54
2.55
7.91
12.30
15.61
17.89
19.31
20.06
20.26
20.01
19.45
18.82
18.35
18.20
18.38
18.73
19.03
19.18
19.19
19.20
19.34
19.61
19.93
20.11
19.95
19.30
18.11
16.38
14.19
11.67
9.02
6.43
3.99
1.80
-0.22
-2.16
-4.21
-6.55
-9.31
-12.43
-15.69
-18.77
-21.32
-23.14
-24.29
-25.05
-25.82
-26.95
-28.60
-30.65
-32.68
-34.06
-34.22
-32.79
-29.68
-25.13
-19.52
-13.29
-6.86
-0.58
5.18
10.07
13.85
16.47
18.09
19.01
19.47
19.61
19.41
18.89
18.10
17.24
16.45
15.86
15.49
15.34
15.43
15.82
16.51
17.34
18.08
18.43
18.15
17.21
15.72
13.87
11.84
9.76
7.69
5.65
3.65
1.65
-0.44
-2.70
-5.22
-7.98
-10.90
-13.80
-16.53
-18.96
-21.04
-22.82
-24.40
-25.92
-27.51
-29.28
-31.26
-33.35
-35.33
-36.79
-37.25
-36.27
-33.57
-29.20
-23.55
-17.19
-10.81
-4.93
0.13
4.26
7.47
9.81
11.32
12.10
12.30
12.17
11.96
11.85
11.91
12.15
12.53
13.03
13.59
14.15
14.60
14.92
15.14
15.39
15.80
16.37
16.93
17.20
16.90
15.99
14.63
13.13
11.73
10.48
9.23
7.74
5.88
3.72
1.48
-0.58
-2.36
-3.92
-5.49
-7.35
-9.67
-12.40
-15.37
-18.36
-21.18
-23.71
-25.81
-27.31
-27.90
-27.27
-25.20
-21.65
-16.88
-11.30
-5.44
0.25
5.45
9.95
13.63
16.39
18.19
19.04
18.96
18.13
16.75
15.17
13.71
12.65
12.17
12.27
12.83
13.59
14.28
14.66
14.58
14.02
13.09
11.98
10.90
9.97
9.17
8.33
7.23
5.72
3.80
1.59
-0.79
-3.29
-5.91
-8.64
-11.37
-13.92
-16.13
-18.03
-19.81
-21.75
-24.02
-26.50
-28.84
-30.50
-30.99
-30.01
-27.44
-23.38
-18.12
-12.11
-5.91
-0.17
4.58
8.04
10.21
11.30
11.64
11.57
11.31
10.99
10.59
10.07
9.38
8.51
7.52
6.55
5.70
5.01
4.41
3.75
2.89
1.78
0.42
-1.16
-2.96
-4.98
-7.20
-9.55
-11.88
-14.05
-16.00
-17.78
-19.56
-21.54
-23.83
-26.38
-28.90
-30.94
-31.97
-31.53
-29.40
-25.67
-20.71
-15.00
-8.99
-3.08
2.47
7.36
11.34
14.20
15.92
16.63
16.58
16.00
15.06
13.86
12.51
11.18
10.10
9.44
9.22
9.27
9.28
8.98
8.15
6.76
4.91
2.78
0.53
-1.71
-3.92
-6.16
-8.56
-11.26
-14.43
-18.12
-22.31
-26.83
-31.31
-35.18
-37.75
-38.37
-36.65
-32.61
-26.68
-19.61
-12.20
-5.15
1.08
6.26
10.35
13.48
15.81
17.58
18.96
20.08
20.93
21.40
21.37
20.81
19.76
18.37
16.89
15.52
14.44
13.69
13.21
12.78
12.11
10.94
9.13
6.70
3.80
0.66
-2.58
-5.84
-9.24
-12.95
-17.09
-21.59
-26.17
-30.33
-33.51
-35.25
-35.30
-33.58
-30.23
-25.42
-19.44
-12.63
-5.43
1.65
8.13
13.64
18.00
21.21
23.36
24.58
25.06
25.05
24.81
24.59
24.52
24.55
24.54
24.32
23.82
23.13
22.38
21.69
21.07
20.42
19.59
18.41
16.68
14.30
11.23
7.64
3.81
0.09
-3.33
-6.53
-9.89
-13.88
-18.75
-24.33
-29.97
-34.81
-38.03
-39.20
-38.26
-35.46
-31.14
-25.62
-19.18
-12.13
-4.87
2.12
8.39
13.65
17.83
21.01
23.37
25.07
26.23
26.93
27.25
27.30
27.19
27.06
27.00
27.07
27.27
27.58
27.94
28.24
28.28
27.84
26.75
24.95
22.56
19.81
16.97
14.18
11.41
8.49
5.19
1.43
-2.71
-6.92
-10.91
-14.51
-17.82
-21.14
-24.78
-28.92
-33.47
-38.12
-42.34
-45.62
-47.49
-47.61
-45.78
-41.96
-36.33
-29.28
-21.41
-13.41
-5.95
0.49
5.71
9.76
12.89
15.34
17.31
18.85
19.93
20.53
20.67
20.49
20.14
19.82
19.65
19.76
20.18
20.90
21.86
22.97
24.09
25.09
25.82
26.18
26.09
25.55
24.61
23.39
21.94
20.26
18.29
15.95
13.26
10.39
7.61
5.13
3.05
1.18
-0.83
-3.44
-7.01
-11.67
-17.19
-23.08
-28.67
-33.29
-36.44
-37.81
-37.35
-35.09
-31.19
-25.87
-19.45
-12.40
-5.32
1.22
6.81
11.28
14.75
17.45
19.54
21.01
21.75
21.66
20.82
19.57
18.40
17.72
17.71
18.21
18.92
19.45
19.59
19.32
18.74
17.98
17.18
16.48
16.03
15.92
16.14
16.47
16.57
15.99
14.37
11.46
7.22
1.77
-4.62
-11.50
-18.32
-24.53
-29.75
-33.90
-37.19
-39.96
-42.42
-44.47
-45.64
-45.29
-42.87
-38.20
-31.48
-23.22
-14.07
-4.66
4.38
12.44
18.85
22.98
24.48
23.48
20.64
16.99
13.64
11.42
10.66
11.22
12.63
14.34
15.93
17.15
17.89
18.12
17.84
17.09
15.95
14.50
12.79
10.87
8.77
6.53
4.28
2.15
0.29
-1.28
-2.70
-4.25
-6.32
-9.27
-13.25
-18.07
-23.20
-27.82
-31.18
-32.81
-32.74
-31.33
-28.95
-25.62
-20.89
-14.09
-4.79
6.75
19.48
31.82
42.16
49.31
52.78
52.79
50.11
45.85
41.11
36.71
32.96
29.64
26.34
22.92
19.75
17.77
17.98
20.82
25.79
31.55
36.43
39.11
39.02
36.24
31.32
24.87
17.42
9.40
1.17
-6.97
-14.82
-22.24
-29.04
-34.85
-39.11
-41.19
-40.63
-37.31
-31.52
-23.84
-15.04
-5.94
2.73
10.43
16.85
21.98
25.91
28.71
30.29
30.34
28.53
24.76
19.25
12.55
5.38
-1.65
-8.10
-13.80
-18.71
-22.87
-26.38
-29.33
-31.89
-34.18
-36.31
-38.35
-40.29
-42.04
-43.40
-44.18
-44.22
-43.53
-42.33
-40.95
-39.66
-38.48
-37.22
-35.53
-33.05
-29.65
-25.39
-20.56
-15.47
-10.44
-5.70
-1.39
2.40
5.61
8.23
10.31
11.88
13.01
13.77
14.32
14.83
15.52
16.58
18.07
19.90
21.80
23.38
24.25
24.13
22.82
20.29
16.62
11.93
6.43
0.34
-6.03
-12.31
-18.15
-23.23
-27.39
-30.55
-32.66
-33.61
-33.25
-31.47
-28.28
-23.88
-18.69
-13.15
-7.70
-2.62
1.90
5.73
8.75
10.88
12.05
12.34
11.93
11.07
10.03
9.06
8.31
7.82
7.52
7.19
6.58
5.41
3.57
1.12
-1.71
-4.58
-7.21
-9.47
-11.39
-13.12
-14.85
-16.72
-18.73
-20.74
-22.51
-23.71
-24.04
-23.32
-21.52
-18.74
-15.12
-10.85
-6.05
-0.87
4.47
9.64
14.24
17.98
20.72
22.57
23.76
24.56
25.11
25.38
25.18
24.28
22.60
20.21
17.39
14.48
11.79
9.41
7.24
5.04
2.56
-0.30
-3.47
-6.76
-10.01
-13.11
-16.08
-18.88
-21.37
-23.25
-24.15
-23.76
-21.94
-18.80
-14.64
-9.84
-4.76
0.35
5.34
10.13
14.59
18.54
21.72
23.95
25.11
25.31
24.77
23.79
22.61
21.31
19.92
18.37
16.68
14.86
12.98
11.05
9.06
6.98
4.77
2.42
-0.07
-2.68
-5.39
-8.14
-10.89
-13.63
-16.29
-18.88
-21.28
-23.29
-24.51
-24.53
-22.94
-19.60
-14.76
-8.95
-2.89
2.83
7.81
11.99
15.48
18.49
21.14
23.37
25.04
25.88
25.72
24.49
22.34
19.58
16.62
13.84
11.53
9.75
8.44
7.43
6.59
5.85
5.16
4.45
3.58
2.30
0.47
-1.99
-4.96
-8.24
-11.60
-14.91
-18.07
-20.94
-23.24
-24.62
-24.69
-23.24
-20.33
-16.29
-11.58
-6.69
-1.99
2.31
6.11
9.38
12.14
14.39
16.17
17.46
18.18
18.31
17.83
16.85
15.61
14.41
13.44
12.79
12.40
12.04
11.48
10.50
9.03
7.08
4.78
2.34
-0.08
-2.35
-4.48
-6.49
-8.49
-10.55
-12.72
-14.96
-17.13
-18.96
-20.10
-20.11
-18.71
-15.76
-11.48
-6.38
-1.15
3.56
7.32
10.01
11.77
12.89
13.60
13.99
14.03
13.63
12.79
11.65
10.46
9.47
8.83
8.56
8.47
8.32
7.88
7.00
5.65
3.90
1.84
-0.49
-3.01
-5.68
-8.37
-10.96
-13.30
-15.40
-17.33
-19.24
-21.22
-23.20
-24.89
-25.84
-25.62
-23.94
-20.83
-16.59
-11.78
-7.00
-2.78
0.59
3.07
4.82
6.03
6.84
7.24
7.20
6.75
6.02
5.27
4.71
4.43
4.39
4.44
4.46
4.38
4.21
3.95
3.54
2.87
1.85
0.44
-1.27
-3.12
-4.91
-6.48
-7.81
-8.96
-10.14
-11.59
-13.44
-15.67
-18.01
-19.97
-20.99
-20.65
-18.82
-15.69
-11.76
-7.56
-3.56
-0.06
2.88
5.26
7.10
8.39
9.11
9.31
9.18
9.03
9.11
9.53
10.15
10.65
10.74
10.31
9.42
8.30
7.18
6.15
5.15
4.11
2.95
1.69
0.39
-0.94
-2.33
-3.87
-5.63
-7.59
-9.68
-11.76
-13.74
-15.56
-17.17
-18.56
-19.66
-20.32
-20.35
-19.59
-17.96
-15.55
-12.64
-9.60
-6.75
-4.28
-2.24
-0.54
0.97
2.34
3.62
4.75
5.69
6.40
6.92
7.29
7.57
7.77
7.90
7.91
7.78
7.45
6.97
6.37
5.71
5.05
4.33
3.46
2.34
0.96
-0.59
-2.12
-3.47
-4.60
-5.61
-6.74
-8.23
-10.17
-12.43
-14.68
-16.57
-17.85
-18.49
-18.61
-18.33
-17.67
-16.55
-14.79
-12.29
-9.13
-5.61
-2.12
0.96
3.39
5.10
6.14
6.65
6.73
6.53
6.20
5.93
5.83
5.98
6.33
6.68
6.85
6.66
6.12
5.36
4.52
3.72
2.92
2.01
0.84
-0.63
-2.34
-4.09
-5.70
-7.07
-8.21
-9.21
-10.17
-11.13
-12.01
-12.63
-12.82
-12.56
-11.95
-11.24
-10.67
-10.44
-10.55
-10.89
-11.28
-11.58
-11.74
-11.76
-11.72
-11.62
-11.44
-11.14
-10.65
-9.90
-8.83
-7.41
-5.64
-3.59
-1.43
0.64
2.40
3.77
4.80
5.65
6.50
7.43
8.26
8.71
8.56
7.84
6.85
6.07
5.89
6.43
7.46
8.55
9.32
9.62
9.50
9.14
8.64
7.91
6.79
5.21
3.29
1.44
0.12
-0.34
0.08
1.03
1.96
2.38
2.13
1.39
0.60
0.02
-0.40
-1.05
-2.40
-4.68
-7.65
-10.75
-13.22
-14.59
-14.67
-13.59
-11.62
-9.06
-6.21
-3.37
-0.92
0.85
1.79
1.95
1.52
0.69
-0.46
-1.89
-3.50
-5.06
-6.26
-6.90
-7.00
-6.87
-6.93
-7.54
-8.81
-10.66
-12.86
-15.23
-17.65
-20.09
-22.57
-25.14
-27.92
-31.11
-35.02
-39.88
-45.64
-51.90
-57.76
-62.04
-63.56
-61.49
-55.60
-46.30
-34.44
-21.08
-7.23
6.24
18.60
29.25
37.77
43.94
47.82
49.82
50.56
50.72
50.83
51.22
51.93
52.79
53.48
53.56
52.69
50.68
47.65
44.00
40.28
36.99
34.46
32.77
31.87
31.52
31.31
30.64
28.82
25.34
20.29
14.42
8.97
4.98
2.69
1.11
-1.74
-8.16
-19.87
-37.51
-60.64
-88.16
-118.82
-151.34
-184.34
-215.89
-243.40
-263.90
-274.60
-273.90
-262.06
-241.39
-215.88
-190.09
-167.79
-150.88
-138.96
-129.82
-120.60
-109.01
-94.31
-77.30
-59.78
-43.58
-29.81
-18.53
-9.00
-0.15
9.02
19.19
30.68
43.47
57.10
70.67
82.95
92.72
99.32
102.99
104.96
106.85
109.94
114.38
118.94
121.55
120.41
114.96
106.39
97.05
89.31
84.37
81.79
80.01
77.49
73.86
70.29
68.90
71.63
79.16
90.56
103.74
116.52
127.60
136.75
144.51
151.28
156.66
159.22
157.14
148.99
134.60
115.26
93.33
71.18
50.12
29.87
8.72
-15.41
-43.48
-74.20
-103.76
-126.90
-138.88
-137.39
-123.64
-101.82
-77.28
-54.45
-35.52
-20.48
-8.32
1.65
9.00
12.64
11.77
6.83
-0.34
-7.17
-11.47
-12.22
-9.71
-5.04
0.67
6.70
12.90
19.29
25.71
31.56
35.99
38.23
38.06
35.91
32.78
29.84
28.04
27.83
29.00
30.87
32.50
33.01
31.82
28.77
24.07
18.19
11.65
4.94
-1.60
-7.69
-13.01
-17.16
-19.58
-19.72
-17.19
-12.00
-4.66
3.87
12.35
19.52
24.37
26.09
24.12
18.06
8.03
-4.86
-18.19
-28.45
-32.13
-27.14
-13.87
4.67
24.04
40.10
50.64
55.81
57.49
57.87
58.24
58.49
57.69
54.92
50.01
43.55
36.49
29.42
22.30
14.52
5.34
-5.46
-17.37
-29.15
-39.25
-46.35
-49.82
-49.86
-47.36
-43.53
-39.44
-35.67
-32.35
-29.18
-25.71
-21.53
-16.41
-10.30
-3.34
4.13
11.70
18.87
25.29
30.86
35.74
40.18
44.34
48.05
50.87
52.22
51.71
49.43
46.02
42.48
39.82
38.70
39.19
40.79
42.61
43.74
43.45
41.42
37.63
32.30
25.71
18.21
10.27
2.59
-3.97
-8.38
-9.72
-7.54
-2.03
5.84
14.50
22.18
27.48
29.84
29.66
28.20
27.03
27.40
29.82
33.81
38.10
41.04
41.04
36.97
28.52
16.18
1.22
-14.62
-29.52
-41.93
-51.01
-56.62
-59.31
-59.98
-59.63
-59.07
-58.87
-59.41
-60.92
-63.50
-67.14
-71.47
-75.92
-79.82
-82.56
-83.81
-83.54
-81.91
-79.16
-75.47
-70.90
-65.47
-59.23
-52.31
-45.03
-37.85
-31.40
-26.37
-23.30
-22.42
-23.50
-25.83
-28.52
-30.78
-32.28
-33.26
-34.31
-36.09
-38.96
-42.85
-47.35
-51.92
-56.20
-60.10
-63.85
-67.73
-72.01
-76.83
-82.17
-87.75
-92.86
-96.39
-96.91
-93.11
-84.12
-69.77
-50.63
-27.85
-3.06
21.84
44.91
64.53
79.81
90.84
98.63
104.61
109.91
114.77
118.50
120.01
118.61
114.54
108.94
103.38
99.05
96.43
95.26
94.91
94.78
94.58
94.26
93.81
93.11
91.92
90.08
87.57
84.61
81.43
78.03
74.03
68.75
61.57
52.36
41.76
31.20
22.64
18.00
18.53
24.28
33.87
44.81
54.17
59.63
60.24
56.51
50.02
42.49
34.95
27.49
19.64
10.94
1.50
-8.03
-16.91
-24.72
-31.60
-38.01
-44.28
-50.26
-55.29
-58.55
-59.55
-58.45
-56.09
-53.71
-52.46
-53.06
-55.53
-59.32
-63.59
-67.56
-70.75
-72.80
-73.30
-71.68
-67.46
-60.61
-51.85
-42.46
-33.75
-26.37
-20.13
-14.24
-7.92
-0.92
6.27
12.77
17.84
21.14
22.78
22.99
22.00
19.99
17.32
14.60
12.50
11.54
11.76
12.79
14.00
14.79
14.88
14.28
13.23
11.99
10.76
9.63
8.58
7.51
6.22
4.50
2.17
-0.72
-3.75
-6.13
-6.89
-5.28
-1.02
5.47
13.23
21.14
28.21
33.79
37.59
39.50
39.46
37.50
33.79
28.78
23.10
17.45
12.35
8.05
4.50
1.54
-0.94
-2.93
-4.31
-5.03
-5.20
-5.18
-5.45
-6.48
-8.49
-11.32
-14.55
-17.66
-20.27
-22.30
-23.90
-25.32
-26.70
-28.03
-29.22
-30.23
-31.16
-32.19
-33.52
