1520861591.00
64.000000
-0.00
-0.00
-0.00
-0.00
-0.00
-0.00
-0.00
-0.00
-0.00
-0.00
0.00
0.01
0.01
-0.00
-0.03
-0.05
-0.05
0.00
0.13
0.36
0.66
1.01
1.37
1.72
2.06
2.40
2.79
3.24
3.80
4.42
5.06
5.66
6.20
6.68
7.15
7.68
8.31
9.14
10.09
11.04
11.88
12.56
13.14
13.76
14.65
15.96
17.91
20.32
22.90
25.38
27.58
29.57
31.68
34.32
37.81
42.54
48.15
54.10
59.83
64.97
69.58
74.14
79.34
85.71
93.76
103.00
112.62
121.73
129.77
136.75
143.30
150.75
157.77
166.64
177.95
191.79
206.97
220.57
228.25
225.36
208.53
176.87
132.76
80.05
23.07
-34.94
-92.44
-149.16
-205.23
-260.37
-313.74
-363.87
-409.83
-450.91
-486.50
-515.74
-537.23
-549.22
-549.96
-538.37
-514.21
-478.67
-433.88
-382.45
-327.02
-269.84
-212.63
-156.66
-102.95
-52.37
-5.90
35.58
71.43
101.35
125.50
144.38
158.69
169.15
176.37
180.75
182.57
182.07
179.51
175.23
169.65
163.18
156.15
148.81
141.30
133.69
126.02
118.33
110.69
103.16
95.80
88.68
81.83
75.25
68.95
62.95
57.25
51.86
46.78
42.03
37.59
33.45
29.61
26.07
22.81
19.83
17.11
14.67
12.48
10.54
8.83
7.35
6.07
4.97
4.05
3.27
2.62
2.09
1.65
1.30
1.01
0.79
0.61
0.47
0.37
0.29
0.23
0.19
0.16
0.15
0.14
0.15
0.17
0.19
0.22
0.25
0.29
0.33
0.37
0.41
0.46
0.51
0.56
0.61
0.66
0.72
0.78
0.85
0.92
1.00
1.09
1.18
1.29
1.41
1.55
1.71
1.88
2.07
2.28
2.52
2.78
3.06
3.38
3.73
4.11
4.52
4.97
5.46
5.98
6.55
7.15
7.80
8.49
9.23
10.01
10.83
11.71
12.62
13.59
14.61
15.70
16.85
18.06
19.31
20.60
21.85
23.01
23.99
24.67
24.93
24.64
23.73
22.11
19.77
16.75
13.08
8.95
4.53
0.02
-4.36
-8.39
-11.90
-14.78
-16.97
-18.48
-19.34
-19.61
-19.39
-18.72
-17.70
-16.41
-14.93
-13.38
-11.82
-10.28
-8.80
-7.37
-5.94
-4.45
-2.87
-1.22
0.45
2.09
3.73
5.28
6.81
8.42
10.24
12.29
14.49
16.66
18.64
20.44
21.88
23.13
24.47
26.20
28.40
30.91
33.34
35.34
36.79
37.41
37.46
37.50
38.05
39.27
40.84
42.12
42.40
41.33
38.46
34.04
28.68
22.87
16.60
9.09
-1.27
-17.02
-36.43
-59.83
-87.42
-118.53
-150.92
-180.71
-203.06
-213.68
-210.42
-194.10
-169.01
-140.44
-113.00
-89.38
-70.21
-54.76
-42.10
-31.60
-22.93
-16.21
-10.89
-5.96
-0.43
6.12
13.36
20.33
25.87
29.29
30.22
29.13
26.93
24.61
22.76
21.46
20.34
18.82
16.50
13.10
8.69
3.57
-1.89
-7.28
-12.12
-15.83
-17.75
-17.32
-14.32
-8.91
-1.66
6.59
14.89
22.40
28.47
32.71
35.08
35.76
35.21
33.94
32.41
30.96
29.73
28.78
28.10
27.68
27.46
27.31
27.04
26.44
25.38
23.82
21.83
19.52
16.97
14.21
11.23
8.04
4.58
0.81
-3.36
-8.07
-13.38
-19.22
-25.21
-30.62
-34.49
-35.83
-33.97
-28.81
-20.93
-11.43
-1.61
7.37
14.82
20.47
24.41
26.83
27.94
27.94
27.08
25.71
24.28
23.18
22.70
22.86
23.53
24.39
25.07
25.26
24.78
23.58
21.78
19.55
17.01
14.21
11.13
7.75
4.14
0.44
-3.21
-6.82
-10.53
-14.63
-19.29
-24.37
-29.35
-33.36
-35.42
-34.80
-31.23
-25.00
-16.87
-7.82
1.12
9.14
15.69
20.56
23.73
25.43
25.98
25.79
25.30
24.85
24.69
24.91
25.52
26.39
27.39
28.31
28.97
29.10
28.52
27.16
25.08
22.49
19.60
16.62
13.60
10.51
7.28
3.82
0.02
-4.27
-9.22
-14.87
-21.01
-27.05
-32.06
-35.01
-35.11
-32.14
-26.47
-19.01
-10.89
-3.10
3.64
9.03
13.01
15.70
17.21
17.65
17.12
15.81
14.01
12.16
10.69
9.93
9.98
10.65
11.54
12.19
12.24
11.58
10.31
8.66
6.85
4.93
2.78
0.21
-2.96
-6.74
-11.04
-15.72
-20.66
-25.72
-30.59
-34.73
-37.35
-37.66
-35.14
-29.85
-22.42
-13.88
-5.39
2.12
8.11
12.41
15.11
16.41
16.56
15.82
14.51
13.04
11.79
11.07
10.98
11.42
12.08
12.63
12.75
12.31
11.26
9.69
7.67
5.33
2.73
-0.07
-3.03
-6.17
-9.60
-13.43
-17.81
-22.72
-27.92
-32.93
-37.05
-39.51
-39.66
-37.18
-32.19
-25.27
-17.30
-9.26
-1.92
4.26
9.18
12.94
15.69
17.54
18.53
18.78
18.50
18.00
17.62
17.54
17.81
18.26
18.66
18.78
18.49
17.70
16.43
14.73
12.72
10.50
8.12
5.58
2.79
-0.31
-3.81
-7.78
-12.30
-17.43
-23.06
-28.83
-34.01
-37.62
-38.71
-36.76
-31.83
-24.65
-16.35
-8.05
-0.63
5.48
10.22
13.72
16.15
17.57
17.98
17.40
16.02
14.25
12.62
11.64
11.60
12.43
13.72
14.95
15.61
15.44
14.49
12.94
11.01
8.75
6.05
2.72
-1.34
-6.06
-11.22
-16.57
-21.99
-27.47
-33.07
-38.65
-43.70
-47.35
-48.56
-46.52
-40.99
-32.43
-21.93
-10.90
-0.68
7.75
13.94
17.97
20.27
21.51
22.37
23.41
24.97
26.99
29.03
30.31
29.96
27.28
22.08
14.80
6.52
-1.44
-7.96
-12.45
-15.04
-16.37
-17.28
-18.41
-20.03
-22.11
-24.44
-26.92
-29.59
-32.68
-36.44
-41.08
-46.50
-52.23
-57.42
-60.92
-61.67
-58.98
-53.00
-44.65
-35.40
-26.70
-19.50
-13.97
-9.66
-5.92
-2.37
0.86
3.24
4.18
3.49
1.66
-0.15
-0.46
2.00
7.78
16.47
26.81
37.14
45.94
52.41
56.57
59.28
61.92
66.20
73.87
86.22
103.62
124.96
147.62
168.12
183.34
191.75
194.02
192.56
190.11
188.28
186.69
183.21
175.30
161.49
142.40
120.63
99.44
81.32
66.75
54.21
41.05
24.92
4.81
-18.79
-44.34
-70.12
-94.87
-118.00
-139.49
-159.64
-178.68
-196.39
-212.00
-224.12
-231.05
-231.11
-223.16
-206.95
-183.39
-154.23
-121.62
-87.49
-53.36
-20.52
9.66
35.64
55.94
69.79
77.55
80.76
81.52
81.60
81.62
80.99
78.47
73.21
65.58
57.07
49.70
45.15
44.27
46.93
52.35
59.32
66.40
72.04
74.88
74.14
70.05
63.88
57.53
52.98
51.41
52.79
55.76
58.16
57.90
53.77
45.83
35.12
22.99
10.31
-3.01
-17.92
-35.66
-56.95
-81.47
-107.64
-133.03
-155.04
-171.66
-181.84
-185.61
-183.87
-177.97
-169.37
-159.33
-148.79
-138.44
-128.75
-120.02
-112.33
-105.58
-99.44
-93.43
-87.02
-79.73
-71.44
-62.49
-53.77
-46.44
-41.41
-38.95
-38.56
-39.20
-39.81
-39.84
-39.34
-38.91
-39.21
-40.58
-42.90
-45.83
-49.16
-53.04
-57.91
-64.16
-71.80
-80.31
-88.74
-96.06
-101.39
-104.25
-104.30
-101.22
-94.65
-84.36
-70.49
-53.58
-34.41
-13.68
8.23
31.25
55.32
80.23
105.31
129.46
151.27
169.05
181.12
186.15
183.79
175.05
162.28
148.33
135.42
124.23
113.86
102.68
89.53
74.55
58.96
44.26
31.25
19.70
8.76
-2.18
-12.87
-22.15
-28.57
-31.18
-30.01
-26.03
-20.73
-15.49
-11.22
-8.17
-6.12
-4.65
-3.43
-2.34
-1.47
-0.98
-0.92
-1.17
-1.41
-1.28
-0.59
0.56
1.86
2.91
3.36
3.07
2.09
0.62
-1.12
-2.95
-4.85
-6.89
-9.28
-12.24
-15.98
-20.50
-25.57
-30.69
-35.17
-38.25
-39.30
-37.86
-33.80
-27.39
-19.26
-10.36
-1.66
6.01
12.29
17.19
20.96
23.83
25.83
26.84
26.75
25.74
24.23
22.84
22.06
22.03
22.53
23.05
23.14
22.51
21.09
18.96
16.28
13.17
9.77
6.22
2.65
-0.90
-4.54
-8.45
-12.85
-17.78
-23.03
-28.06
-32.17
-34.67
-35.05
-33.13
-29.05
-23.27
-16.43
-9.24
-2.34
3.80
8.97
13.17
16.50
19.10
21.01
22.19
22.61
22.37
21.77
21.19
21.05
21.54
22.54
23.69
24.45
24.44
23.49
21.75
19.50
17.02
14.41
11.59
8.39
4.73
0.70
-3.53
-7.85
-12.29
-17.01
-22.11
-27.36
-32.07
-35.20
-35.75
-33.17
-27.58
-19.75
-10.83
-1.97
5.97
12.55
17.65
21.34
23.78
25.19
25.87
26.12
26.24
26.37
26.57
26.80
27.03
27.22
27.38
27.45
27.33
26.90
26.06
24.79
23.11
21.06
18.70
16.05
13.22
10.36
7.58
4.88
2.03
-1.39
-5.77
-11.24
-17.46
-23.60
-28.50
-31.07
-30.64
-27.17
-21.29
-14.10
-6.69
0.09
5.85
10.58
14.45
17.57
19.91
21.41
22.04
21.97
21.54
21.08
20.80
20.74
20.75
20.69
20.48
20.12
19.69
19.20
18.56
17.59
16.09
13.89
10.96
7.39
3.45
-0.54
-4.26
-7.56
-10.50
-13.37
-16.56
-20.40
-24.94
-29.85
-34.42
-37.71
-38.84
-37.27
-32.96
-26.46
-18.64
-10.56
-3.09
3.21
8.10
11.63
13.94
15.27
15.80
15.77
15.44
15.03
14.75
14.69
14.82
15.06
15.25
15.30
15.15
14.80
14.23
13.41
12.28
10.77
8.87
6.62
4.13
1.51
-1.17
-3.98
-7.03
-10.49
-14.38
-18.53
-22.55
-25.80
-27.57
-27.26
-24.56
-19.56
-12.83
-5.21
2.40
9.25
14.98
19.52
23.02
25.65
27.45
28.41
28.53
27.95
27.00
26.03
25.41
25.25
25.53
26.00
26.39
26.41
25.87
24.64
22.68
20.03
16.78
13.08
9.12
5.07
1.07
-2.73
-6.28
-9.58
-12.83
-16.33
-20.41
-25.21
-30.50
-35.63
-39.62
-41.49
-40.59
-36.83
-30.68
-23.02
-14.77
-6.76
0.42
6.46
11.20
14.68
17.01
18.42
19.19
19.56
19.72
19.80
19.89
20.10
20.50
21.04
21.61
21.99
22.01
21.63
20.88
19.83
18.48
16.70
14.32
11.25
7.59
3.69
-0.05
-3.33
-6.03
-8.36
-10.67
-13.37
-16.75
-20.90
-25.65
-30.55
-34.90
-37.86
-38.68
-36.92
-32.65
-26.40
-19.04
-11.48
-4.44
1.67
6.70
10.64
13.48
15.22
15.94
15.83
15.26
14.65
14.35
14.56
15.19
16.02
16.80
17.34
17.58
17.60
17.48
17.26
16.86
16.15
15.01
13.37
11.27
8.82
6.21
3.58
1.03
-1.42
-3.86
-6.44
-9.30
-12.56
-16.22
-20.26
-24.61
-29.10
-33.40
-36.95
-39.05
-38.98
-36.36
-31.36
-24.71
-17.47
-10.63
-4.81
-0.14
3.60
6.72
9.36
11.45
12.83
13.45
13.49
13.32
13.36
13.92
14.98
16.33
17.58
18.38
18.55
18.07
17.08
15.78
14.30
12.68
10.92
9.00
6.94
4.70
2.30
-0.28
-2.99
-5.70
-8.27
-10.56
-12.60
-14.59
-16.81
-19.59
-23.10
-27.30
-31.90
-36.35
-39.94
-41.92
-41.66
-38.83
-33.64
-26.72
-19.07
-11.68
-5.30
-0.18
3.80
6.99
9.66
11.88
13.57
14.57
14.92
14.84
14.71
14.88
15.50
16.44
17.42
18.11
18.35
18.19
17.78
17.29
16.73
15.97
14.84
13.25
11.23
8.92
6.48
4.02
1.56
-0.89
-3.36
-5.88
-8.52
-11.36
-14.53
-18.12
-22.19
-26.74
-31.62
-36.53
-40.97
-44.31
-45.89
-45.25
-42.26
-37.27
-30.90
-23.93
-17.04
-10.72
-5.28
-0.86
2.47
4.75
6.09
6.70
6.86
6.89
7.05
7.48
8.21
9.16
10.16
11.04
11.66
11.96
12.01
11.87
11.61
11.19
10.47
9.32
7.65
5.48
2.94
0.23
-2.50
-5.11
-7.59
-9.99
-12.44
-15.08
-18.07
-21.49
-25.32
-29.31
-32.98
-35.71
-36.86
-35.97
-32.92
-27.98
-21.72
-14.96
-8.41
-2.66
1.95
5.37
7.66
8.95
9.45
9.34
8.86
8.29
7.94
8.04
8.65
9.64
10.72
11.61
12.10
12.15
11.85
11.25
10.32
8.97
7.12
4.81
2.26
-0.29
-2.61
-4.70
-6.69
-8.86
-11.44
-14.60
-18.41
-22.80
-27.52
-32.03
-35.54
-37.16
-36.21
-32.50
-26.49
-19.13
-11.52
-4.57
1.28
5.96
9.64
12.48
14.49
15.67
16.05
15.85
15.48
15.37
15.88
17.08
18.77
20.50
21.82
22.38
22.11
21.21
20.02
18.85
17.79
16.70
15.26
13.20
10.37
6.85
2.93
-1.07
-4.89
-8.41
-11.72
-15.07
-18.72
-22.89
-27.68
-32.99
-38.52
-43.71
-47.87
-50.19
-49.99
-46.93
-41.19
-33.42
-24.62
-15.84
-7.88
-1.15
4.31
8.69
12.17
14.86
16.83
18.19
19.12
19.93
20.89
22.18
23.76
25.43
26.90
27.91
28.37
28.30
27.88
27.24
26.49
25.62
24.60
23.31
21.68
19.66
17.20
14.31
11.06
7.54
3.88
0.23
-3.34
-6.79
-10.22
-13.78
-17.66
-22.04
-27.07
-32.67
-38.48
-43.81
-47.72
-49.31
-47.99
-43.72
-37.04
-28.93
-20.41
-12.35
-5.23
0.82
5.87
10.05
13.44
16.07
18.05
19.49
20.55
21.41
22.22
23.06
24.00
25.06
26.19
27.28
28.19
28.73
28.78
28.29
27.35
26.07
24.58
22.89
20.91
18.44
15.34
11.61
7.41
3.07
-1.06
-4.73
-7.90
-10.72
-13.48
-16.57
-20.30
-24.85
-30.16
-35.80
-41.05
-44.95
-46.60
-45.40
-41.30
-34.78
-26.72
-18.15
-9.93
-2.65
3.44
8.34
12.20
15.21
17.58
19.45
20.95
22.17
23.19
24.16
25.15
26.23
27.36
28.44
29.31
29.85
29.96
29.62
28.88
27.81
26.50
24.99
23.24
21.14
18.56
15.43
11.84
8.10
4.53
1.38
-1.36
-3.95
-6.79
-10.23
-14.44
-19.42
-24.99
-30.89
-36.75
-41.97
-45.82
-47.51
-46.44
-42.47
-36.00
-27.92
-19.26
-10.92
-3.46
2.93
8.31
12.80
16.46
19.30
21.32
22.62
23.44
24.12
24.90
25.91
27.07
28.17
29.05
29.62
29.96
30.20
30.40
30.50
30.30
29.59
28.24
26.29
23.92
21.37
18.80
16.22
13.52
10.52
7.13
3.42
-0.37
-3.99
-7.23
-10.12
-12.87
-15.85
-19.44
-23.89
-29.24
-35.18
-41.10
-46.06
-49.07
-49.29
-46.35
-40.53
-32.70
-24.03
-15.64
-8.31
-2.43
1.93
4.90
6.67
7.49
7.70
7.73
8.00
8.81
10.22
12.04
13.93
15.53
16.64
17.22
17.45
17.57
17.76
18.03
18.16
17.74
16.44
14.14
11.05
7.64
4.39
1.61
-0.73
-2.85
-5.10
-7.75
-10.96
-14.81
-19.26
-24.13
-28.97
-33.04
-35.41
-35.28
-32.29
-26.75
-19.52
-11.68
-4.18
2.44
8.04
12.70
16.49
19.35
21.15
21.82
21.59
20.89
20.29
20.25
20.93
22.18
23.60
24.79
25.49
25.65
25.38
24.78
23.84
22.40
20.24
17.21
13.39
9.03
4.57
0.33
-3.51
-7.02
-10.41
-13.96
-17.90
-22.34
-27.28
-32.60
-38.02
-43.06
-47.02
-49.12
-48.63
-45.21
-39.07
-31.01
-22.15
-13.64
-6.22
-0.15
4.71
8.74
12.23
15.32
17.94
19.99
21.50
22.65
23.72
24.97
26.51
28.19
29.73
30.81
31.26
31.10
30.51
29.69
28.66
27.36
25.58
23.20
20.21
16.78
13.14
9.47
5.89
2.37
-1.14
-4.69
-8.32
-12.04
-15.88
-19.94
-24.37
-29.28
-34.63
-40.05
-44.84
-48.08
-48.90
-46.82
-41.92
-34.88
-26.73
-18.48
-10.87
-4.23
1.41
6.19
10.20
13.52
16.17
18.22
19.80
21.01
22.01
22.91
23.79
24.72
25.74
26.81
27.85
28.71
29.21
29.22
28.64
27.47
25.75
23.58
21.08
18.35
15.48
12.50
9.42
6.27
3.07
-0.14
-3.35
-6.58
-9.83
-13.10
-16.45
-19.96
-23.81
-28.18
-33.09
-38.27
-43.10
-46.64
-47.99
-46.55
-42.27
-35.65
-27.69
-19.43
-11.73
-5.07
0.45
5.01
8.84
12.11
14.88
17.17
19.02
20.51
21.82
23.10
24.46
25.91
27.37
28.74
29.86
30.67
31.10
31.19
30.94
30.42
29.59
28.42
26.84
24.80
22.39
19.74
17.05
14.44
11.88
9.20
6.22
2.85
-0.79
-4.42
-7.73
-10.60
-13.20
-15.96
-19.35
-23.68
-28.95
-34.81
-40.65
-45.76
-49.44
-51.07
-50.22
-46.78
-41.05
-33.78
-25.97
-18.57
-12.19
-7.03
-2.88
0.58
3.61
6.25
8.45
10.16
11.45
12.50
13.56
14.78
16.20
17.73
19.19
20.44
21.39
22.02
22.37
22.47
22.35
21.95
21.20
20.11
18.67
16.97
15.10
13.08
10.87
8.41
5.67
2.69
-0.44
-3.59
-6.65
-9.53
-12.22
-14.79
-17.38
-20.25
-23.66
-27.72
-32.35
-37.08
-41.17
-43.73
-44.05
-41.77
-37.09
-30.65
-23.37
-16.17
-9.64
-4.06
0.60
4.50
7.69
10.16
11.81
12.72
13.17
13.60
14.44
15.87
17.79
19.83
21.62
22.93
23.73
24.18
24.39
24.38
23.94
22.82
20.85
18.05
14.67
11.06
7.60
4.46
1.63
-1.02
-3.73
-6.68
-10.01
-13.83
-18.23
-23.21
-28.56
-33.79
-38.14
-40.79
-41.09
-38.79
-34.10
-27.66
-20.28
-12.82
-5.93
0.04
4.95
8.92
12.20
15.02
17.53
19.76
21.66
23.21
24.48
25.60
26.69
27.76
28.73
29.46
29.82
29.82
29.48
28.84
27.88
26.55
24.80
22.65
20.20
17.55
14.78
11.90
8.89
5.75
2.57
-0.55
-3.51
-6.30
-9.06
-12.04
-15.57
-19.90
-25.12
-30.93
-36.69
-41.46
-44.27
-44.41
-41.74
-36.68
-30.10
-23.03
-16.31
-10.40
-5.34
-0.96
2.95
6.50
9.66
12.36
14.58
16.40
17.98
19.50
20.98
22.37
23.57
24.52
25.25
25.88
26.50
27.11
27.57
27.64
27.18
26.13
24.61
22.78
20.76
18.63
16.35
13.90
11.27
8.50
5.60
2.57
-0.56
-3.73
-6.77
-9.51
-11.92
-14.14
-16.55
-19.59
-23.61
-28.65
-34.40
-40.19
-45.16
-48.43
-49.34
-47.66
-43.57
-37.66
-30.76
-23.66
-16.96
-10.98
-5.74
-1.15
2.93
6.53
9.68
12.38
14.72
16.80
18.73
20.56
22.22
23.62
24.69
25.40
25.84
26.12
26.38
26.64
26.83
26.82
26.46
25.58
24.09
21.95
19.27
16.26
13.18
10.27
7.64
5.27
3.01
0.68
-1.83
-4.56
-7.45
-10.42
-13.47
-16.64
-20.04
-23.80
-28.03
-32.68
-37.55
-42.11
-45.70
-47.53
-47.02
-44.00
-38.82
-32.21
-25.10
-18.22
-12.04
-6.64
-1.94
2.19
5.72
8.62
10.80
12.30
13.31
14.10
14.97
16.14
17.67
19.49
21.40
23.22
24.77
25.99
26.83
27.27
27.29
26.83
25.86
24.42
22.58
20.48
18.24
15.96
13.66
11.33
8.89
6.29
3.50
0.58
-2.38
-5.22
-7.82
-10.14
-12.21
-14.21
-16.34
-18.91
-22.20
-26.37
-31.32
-36.53
-41.13
-44.05
-44.43
-41.89
-36.78
-29.98
-22.64
-15.75
-9.91
-5.24
-1.58
1.33
3.66
5.51
6.91
7.90
8.57
9.08
9.59
10.20
10.96
11.84
12.74
13.60
14.35
15.00
15.56
16.04
16.39
16.52
16.31
15.71
14.68
13.28
11.61
9.81
8.00
6.19
4.35
2.39
0.23
-2.12
-4.59
-7.06
-9.53
-12.10
-15.01
-18.51
-22.71
-27.43
-32.21
-36.36
-39.18
-40.08
-38.80
-35.40
-30.32
-24.20
-17.76
-11.59
-6.06
-1.33
2.57
5.65
7.88
9.25
9.86
9.95
9.88
9.99
10.49
11.36
12.45
13.57
14.55
15.36
15.96
16.28
16.19
15.53
14.23
12.32
9.98
7.44
4.90
2.56
0.52
-1.22
-2.76
-4.42
-6.61
-9.73
-14.00
-19.29
-25.08
-30.57
-34.90
-37.38
-37.66
-35.75
-31.99
-26.90
-20.99
-14.77
-8.59
-2.77
2.43
6.82
10.26
12.76
14.41
15.42
16.06
16.60
17.27
18.20
19.36
20.64
21.74
22.42
22.55
22.15
21.44
20.63
19.81
18.84
17.50
15.54
12.89
9.64
5.95
2.09
-1.71
-5.11
-7.84
-9.81
-11.27
-12.82
-15.24
-19.14
-24.53
-30.74
-36.58
-40.82
-42.56
-41.55
-38.01
-32.42
-25.40
-17.54
-9.53
-2.10
4.15
9.01
12.67
15.66
18.48
21.34
23.98
25.85
26.34
25.13
22.30
18.39
14.15
10.39
7.73
6.63
7.29
9.68
13.56
18.44
23.47
27.60
29.76
29.20
25.89
20.51
14.32
8.65
4.40
1.83
0.67
0.36
0.25
-0.27
-1.86
-5.11
-10.36
-17.37
-25.14
-32.04
-36.38
-37.02
-33.89
-27.88
-20.45
-12.88
-5.92
0.29
5.85
10.74
14.60
16.91
17.38
16.15
13.89
11.42
9.40
8.11
7.41
7.01
6.64
6.23
5.92
5.89
6.26
6.93
7.57
7.68
6.78
4.62
1.32
-2.66
-6.69
-10.25
-13.15
-15.54
-17.88
-20.62
-24.03
-28.04
-32.21
-35.82
-38.04
-38.26
-36.19
-32.06
-26.45
-20.22
-14.17
-8.88
-4.55
-1.08
1.79
4.32
6.65
8.77
10.61
12.15
13.45
14.66
15.89
17.18
18.44
19.44
19.94
19.72
18.72
16.96
14.59
11.76
8.67
5.50
2.44
-0.28
-2.60
-4.56
-6.39
-8.50
-11.25
-14.84
-19.13
-23.62
-27.55
-30.16
-30.85
-29.47
-26.25
-21.80
-16.78
-11.80
-7.17
-2.99
0.84
4.44
7.83
10.98
13.77
16.11
17.94
19.21
19.97
20.31
20.33
20.18
19.96
19.71
19.39
18.92
18.24
17.32
16.14
14.69
12.92
10.72
8.02
4.81
1.16
-2.78
-6.85
-10.94
-14.97
-18.95
-22.87
-26.68
-30.15
-32.85
-34.25
-33.83
-31.35
-26.96
-21.18
-14.71
-8.21
-2.12
3.45
8.51
13.17
17.41
21.12
24.12
26.30
27.70
28.45
28.76
28.86
28.87
28.81
28.61
28.23
27.65
26.93
26.20
25.51
24.81
23.92
22.61
20.70
18.12
15.02
11.65
8.26
5.01
1.89
-1.27
-4.70
-8.61
-13.09
-18.08
-23.33
-28.39
-32.65
-35.50
-36.42
-35.21
-32.04
-27.38
-21.84
-15.99
-10.21
-4.70
0.43
5.07
9.09
12.35
14.82
16.62
17.98
19.16
20.36
21.65
22.90
23.98
24.78
25.27
25.58
25.84
26.10
26.29
26.17
25.50
24.18
22.28
20.04
17.73
15.44
13.10
10.52
7.56
4.23
0.76
-2.61
-5.72
-8.65
-11.58
-14.80
-18.46
-22.61
-27.06
-31.52
-35.54
-38.58
-40.09
-39.65
-37.07
-32.56
-26.65
-20.06
-13.46
-7.36
-1.96
2.72
6.71
10.09
12.88
15.06
16.71
17.96
18.96
19.91
20.91
21.97
23.02
23.95
24.73
25.33
25.79
26.13
26.29
26.15
25.55
24.39
22.67
20.53
18.18
15.80
13.48
11.18
8.79
6.22
3.46
0.59
-2.22
-4.87
-7.32
-9.66
-11.99
-14.50
-17.36
-20.67
-24.47
-28.64
-32.79
-36.32
-38.51
-38.79
-36.90
-33.08
-27.91
-22.19
-16.52
-11.23
-6.39
-1.88
2.33
6.14
9.30
11.65
13.10
13.81
14.09
14.24
14.47
14.82
15.28
15.74
16.19
16.62
17.09
17.59
18.04
18.32
18.21
17.60
16.43
14.78
12.86
10.94
9.20
7.67
6.23
4.63
2.61
0.10
-2.78
-5.79
-8.67
-11.28
-13.64
-15.91
-18.28
-20.94
-23.96
-27.37
-31.07
-34.81
-38.10
-40.32
-40.80
-39.14
-35.29
-29.65
-22.93
-15.93
-9.30
-3.40
1.63
5.81
9.18
11.81
13.73
15.04
15.95
16.68
17.49
18.50
19.71
21.01
22.27
23.36
24.20
24.78
25.07
25.04
24.67
23.96
22.93
21.61
19.98
18.02
15.72
13.11
10.38
7.76
5.43
3.44
1.62
-0.34
-2.76
-5.85
-9.63
-13.98
-18.67
-23.39
-27.73
-31.17
-33.13
-33.06
-30.69
-26.24
-20.33
-13.87
-7.71
-2.40
1.90
5.32
8.07
10.30
12.05
13.31
14.13
14.67
15.14
15.66
16.25
16.81
17.25
17.48
17.53
17.48
17.39
17.28
17.06
16.58
15.69
14.36
12.69
10.89
9.19
7.72
6.38
4.98
3.29
1.21
-1.25
-3.93
-6.66
-9.30
-11.79
-14.17
-16.55
-19.08
-21.94
-25.28
-29.10
-33.23
-37.20
-40.42
-42.29
-42.34
-40.36
-36.49
-31.13
-24.81
-18.14
-11.61
-5.61
-0.40
3.87
7.12
9.36
10.75
11.57
12.21
13.05
14.35
16.12
18.19
20.18
21.76
22.72
23.06
23.00
22.91
23.02
23.44
24.05
24.54
24.60
23.88
22.15
19.32
15.54
11.30
7.44
4.85
4.05
4.89
6.56
7.91
7.98
6.33
3.10
-1.37
-6.82
-13.18
-20.37
-28.09
-35.64
-42.13
-46.80
-49.25
-49.51
-47.84
-44.55
-39.96
-34.38
-28.23
-21.97
-16.01
-10.58
-5.73
-1.35
2.60
6.07
8.83
10.70
11.72
12.24
12.88
14.28
16.74
20.05
23.50
26.23
27.56
27.36
25.82
23.33
20.17
16.49
12.56
8.89
6.20
5.02
5.38
6.58
7.57
7.43
5.88
3.21
-0.03
-3.54
-7.38
-11.77
-16.62
-21.45
-25.58
-28.62
-30.73
-32.52
-34.46
-36.44
-37.71
-37.29
-34.69
-30.27
-25.13
-20.48
-17.12
-15.06
-13.85
-12.94
-12.05
-11.24
-10.65
-10.22
-9.55
-7.97
-4.92
-0.27
5.49
11.40
16.38
19.65
21.04
21.01
20.33
19.65
19.17
18.65
17.67
16.11
14.28
12.78
12.10
12.22
12.59
12.32
10.65
7.21
2.09
-4.40
-11.86
-19.93
-28.14
-35.77
-41.88
-45.50
-46.00
-43.28
-37.83
-30.56
-22.57
-14.92
-8.49
-4.03
-2.01
-2.48
-4.97
-8.37
-11.31
-12.58
-11.71
-9.10
-5.79
-2.96
-1.26
-0.59
-0.35
0.16
1.21
2.65
4.07
5.19
6.01
6.76
7.57
8.28
8.51
7.85
6.21
3.87
1.29
-1.11
-3.29
-5.51
-8.21
-11.66
-15.83
-20.29
-24.41
-27.48
-28.93
-28.39
-25.81
-21.41
-15.67
-9.19
-2.64
3.45
8.72
13.00
16.29
18.70
20.37
21.43
21.96
22.00
21.54
20.59
19.26
17.80
16.49
15.56
14.98
14.41
13.29
11.09
7.56
2.80
-2.79
-8.74
-14.72
-20.61
-26.47
-32.33
-38.19
-43.89
-49.37
-54.56
-59.44
-63.84
-67.30
-69.19
-68.84
-65.85
-60.24
-52.54
-43.51
-34.01
-24.76
-16.21
-8.60
-1.95
3.85
9.05
13.86
18.36
22.45
25.89
28.45
30.04
30.84
31.16
31.35
31.58
31.83
31.93
31.66
30.92
29.77
28.37
26.89
25.46
24.08
22.66
21.01
18.94
16.30
12.96
8.91
4.26
-0.61
-5.14
-8.60
-10.36
-10.08
-7.87
-4.26
0.01
4.24
7.98
11.05
13.42
15.07
15.99
16.12
15.44
14.09
12.29
10.34
8.55
7.19
6.50
6.63
7.65
9.52
12.07
15.06
18.21
21.23
23.81
25.61
26.34
25.82
24.06
21.33
18.07
14.78
11.79
9.13
6.56
3.58
-0.24
-5.17
-11.15
-17.82
-24.62
-30.85
-35.88
-39.14
-40.23
-39.00
-35.58
-30.39
-24.00
-16.95
-9.58
-2.00
5.80
13.83
21.89
29.60
36.58
42.57
47.56
51.82
55.66
59.32
62.88
66.21
69.11
71.33
72.63
72.81
71.81
69.64
66.46
62.47
57.84
52.64
46.86
40.45
33.45
25.91
17.91
9.41
0.31
-9.47
-19.85
-30.52
-40.98
-50.74
-59.54
-67.39
-74.59
-81.53
-88.46
-95.40
-102.07
-107.98
-112.55
-115.21
-115.58
-113.54
-109.31
-103.37
-96.34
-88.74
-80.91
-72.88
-64.52
-55.72
-46.47
-36.91
-27.23
-17.62
-8.15
1.20
10.47
19.66
28.61
36.99
44.43
50.61
55.36
58.80
61.21
62.89
64.01
64.53
64.25
62.96
60.60
57.37
53.64
49.84
46.25
42.94
39.78
36.59
33.25
29.81
26.41
23.24
20.43
17.93
15.59
13.13
10.27
6.74
2.43
-2.55
-7.85
-12.83
-16.70
-18.74
-18.43
-15.68
-10.79
-4.33
3.00
10.61
18.11
25.33
32.26
38.87
45.03
50.53
55.13
58.72
61.36
63.23
64.52
65.41
65.90
65.97
65.59
64.84
63.80
62.56
61.08
59.20
56.68
53.24
48.66
42.85
35.84
27.88
19.32
10.67
2.43
-4.96
-11.29
-16.61
-21.21
-25.59
-30.22
-35.41
-41.15
-47.11
-52.79
-57.79
-61.95
-65.42
-68.58
-71.79
-75.26
-78.99
-82.81
-86.42
-89.42
-91.36
-91.69
-89.95
-85.95
-79.91
-72.48
-64.44
-56.57
-49.32
-42.84
-37.11
-32.12
-27.91
-24.53
-21.95
-19.96
-18.22
-16.40
-14.25
-11.68
-8.72
-5.33
-1.45
3.00
8.10
13.81
20.00
26.47
32.97
39.22
44.89
49.73
53.55
56.32
58.13
59.14
59.54
59.51
59.16
58.59
57.86
56.98
55.95
54.73
53.32
51.69
49.82
47.61
44.90
41.57
37.56
33.00
28.09
23.05
17.90
12.42
6.33
-0.63
-8.43
-16.71
-24.85
-32.05
-37.51
-40.65
-41.17
-39.23
-35.40
-30.55
-25.58
-21.15
-17.51
-14.51
-11.84
-9.28
-6.84
-4.70
-3.02
-1.82
-0.88
0.07
1.25
2.70
4.32
5.94
7.43
8.70
9.69
10.37
10.71
10.71
10.47
10.14
9.86
9.68
9.55
9.35
8.94
8.18
7.08
5.68
4.06
2.35
0.72
-0.68
-1.73
-2.49
-3.13
-3.99
-5.37
-7.46
-10.19
-13.37
-16.75
-20.15
-23.53
-26.98
-30.62
-34.55
-38.74
-42.95
-46.76
-49.54
-50.61
-49.45
-45.99
-40.64
-34.20
-27.62
-21.61
-16.56
-12.42
-8.93
-5.82
-2.91
-0.15
2.44
4.80
6.88
8.70
10.38
12.22
14.65
18.17
23.04
29.04
35.50
41.39
45.77
48.02
48.02
45.96
42.22
37.15
31.16
24.80
18.68
13.32
8.93
5.27
1.83
-1.80
-5.74
-9.68
-13.13
-15.76
-17.66
-19.24
-21.04
-23.44
-26.55
-30.17
-33.92
-37.31
-39.80
-40.82
-39.92
-36.92
-32.05
-25.93
-19.43
-13.42
-8.47
-4.77
-2.16
-0.26
1.26
2.61
3.85
4.94
5.87
6.71
7.56
8.56
9.79
11.26
12.91
14.61
16.21
17.60
18.69
19.44
19.85
19.91
19.66
19.08
18.17
16.92
15.40
13.73
12.10
10.67
9.52
8.57
7.59
6.34
4.65
2.55
0.27
-1.91
-3.77
-5.31
-6.74
-8.43
-10.72
-13.81
-17.75
-22.28
-27.00
-31.30
-34.52
-36.09
-35.63
-33.14
-28.94
-23.68
-18.12
-12.95
-8.59
-5.19
-2.59
-0.47
1.48
3.43
5.37
7.14
8.56
9.59
10.37
11.21
12.38
13.99
15.85
17.65
19.07
19.94
20.32
20.45
20.52
20.63
20.71
20.65
20.40
19.99
19.50
19.01
18.49
17.81
16.82
15.43
13.67
11.71
9.82
8.20
6.97
6.06
5.27
4.28
2.81
0.69
-2.07
-5.26
-8.53
-11.56
-14.13
-16.26
-18.23
-20.46
-23.36
-27.08
-31.46
-35.97
-39.83
-42.26
-42.70
-40.94
-37.24
-32.16
-26.43
-20.71
-15.48
-10.93
-7.05
-3.75
-0.92
1.51
3.61
5.46
7.12
8.71
10.23
11.67
12.95
14.06
15.00
15.84
16.63
17.37
18.06
18.68
19.29
19.90
20.52
21.02
21.23
21.01
20.37
19.45
18.52
17.81
17.42
17.28
17.19
16.89
16.25
15.24
14.00
12.65
11.29
9.86
8.22
6.23
3.80
1.01
-1.96
-4.88
-7.61
-10.14
-12.62
-15.23
-18.15
-21.49
-25.23
-29.21
-33.10
-36.43
-38.67
-39.35
-38.26
-35.47
-31.37
-26.51
-21.47
-16.68
-12.34
-8.46
-4.94
-1.71
1.25
3.89
6.14
7.98
9.47
10.72
11.88
12.98
14.03
15.00
15.86
16.65
17.40
18.18
19.01
19.85
20.65
21.33
21.81
22.05
21.99
21.64
21.05
20.32
19.61
18.98
18.38
17.68
16.70
15.37
13.71
11.88
10.09
8.45
6.98
5.57
4.05
2.33
0.38
-1.71
-3.83
-5.94
-8.10
-10.51
-13.41
-16.98
-21.25
-26.12
-31.34
-36.63
-41.55
-45.63
-48.28
-48.98
-47.40
-43.63
-38.19
-31.93
-25.74
-20.25
-15.74
-12.11
-9.09
-6.43
-3.96
-1.62
0.63
2.81
4.97
7.10
9.18
11.14
12.98
14.72
16.44
18.12
19.62
20.74
21.27
21.22
20.74
20.06
19.40
18.77
18.09
17.24
16.17
14.91
13.50
11.96
10.26
8.34
6.24
4.09
2.01
0.07
-1.79
-3.72
-5.81
-8.03
-10.24
-12.33
-14.34
-16.45
-18.90
-21.85
-25.28
-29.00
-32.76
-36.26
-39.22
-41.30
-42.13
-41.37
-38.87
-34.74
-29.50
-23.87
-18.56
-14.06
-10.49
-7.64
-5.18
-2.83
-0.49
1.73
3.69
5.30
6.61
7.78
8.97
10.26
11.57
12.79
13.82
14.68
15.47
16.34
17.38
18.53
19.60
20.34
20.52
19.99
18.84
17.27
15.60
14.13
13.03
12.28
11.64
10.82
9.58
7.82
5.64
3.20
0.69
-1.81
-4.29
-6.83
-9.43
-12.11
-14.87
-17.75
-20.82
-24.08
-27.35
-30.25
-32.19
-32.55
-30.98
-27.48
-22.53
-16.91
-11.35
-6.40
-2.18
1.40
4.57
7.40
9.76
11.45
12.33
12.53
12.41
12.46
13.04
14.30
16.05
17.91
19.54
20.63
21.08
20.98
20.55
20.03
19.62
19.36
19.16
18.81
18.10
16.96
15.45
13.74
12.00
10.26
8.47
6.46
4.16
1.56
-1.21
-3.98
-6.59
-8.93
-11.06
-13.16
-15.51
-18.38
-21.94
-26.19
-31.00
-36.08
-41.02
-45.26
-48.17
-49.18
-47.94
-44.50
-39.34
-33.24
-27.05
-21.37
-16.47
-12.25
-8.49
-5.00
-1.75
1.22
3.80
5.93
7.68
9.20
10.70
12.30
14.07
15.97
17.83
19.50
20.85
21.85
22.54
22.98
23.27
23.42
23.42
23.23
22.81
22.13
21.19
20.02
18.66
17.19
15.69
14.19
12.64
10.95
9.01
6.74
4.17
1.44
-1.30
-3.92
-6.43
-8.94
-11.63
-14.66
-18.14
-22.10
-26.55
-31.46
-36.68
-41.77
-46.06
-48.67
-48.91
-46.51
-41.80
-35.60
-28.92
-22.58
-16.99
-12.16
-7.86
-3.84
-0.01
3.58
6.79
9.53
11.82
13.77
15.60
17.49
19.56
21.78
24.04
26.20
28.16
29.96
31.63
33.23
34.65
35.65
35.97
35.42
34.06
32.17
30.15
28.31
26.73
25.27
23.66
21.67
19.27
16.61
13.91
11.29
8.75
6.12
3.31
0.36
-2.50
-5.06
-7.23
-9.17
-11.28
-13.99
-17.57
-22.04
-27.16
-32.50
-37.54
-41.72
-44.50
-45.46
-44.36
-41.26
-36.50
-30.69
-24.49
-18.48
-13.02
-8.23
-4.05
-0.40
2.80
5.63
8.11
10.33
12.43
14.54
16.76
19.13
21.55
23.87
25.96
27.76
29.31
30.69
31.93
32.95
33.59
33.66
33.10
31.98
30.53
29.02
27.62
26.34
25.04
23.50
21.59
19.32
16.80
14.23
11.73
9.36
7.13
4.98
2.92
0.92
-1.06
-3.12
-5.37
-7.97
-10.97
-14.42
-18.32
-22.68
-27.52
-32.79
-38.23
-43.30
-47.26
-49.33
-48.97
-46.15
-41.33
-35.33
-29.08
-23.26
-18.17
-13.71
-9.57
-5.46
-1.31
2.74
6.44
9.55
12.06
14.10
15.87
17.54
19.19
20.77
22.26
23.69
25.15
26.72
28.34
29.80
30.81
31.09
30.58
29.42
27.95
26.47
25.22
24.22
23.31
22.26
20.91
19.22
17.29
15.31
13.40
11.59
9.80
7.87
5.72
3.38
0.96
-1.35
-3.51
-5.59
-7.82
-10.54
-13.99
-18.23
-23.12
-28.23
-33.01
-36.77
-38.87
-38.85
-36.51
-32.10
-26.20
-19.58
-13.00
-6.94
-1.54
3.39
8.25
13.42
19.00
24.80
30.33
34.99
38.35
40.29
41.01
40.93
40.48
39.95
39.42
38.85
38.15
37.31
36.33
35.23
33.98
32.50
30.69
28.49
25.92
23.12
20.28
17.59
15.20
13.10
11.13
9.06
6.63
3.68
0.25
-3.44
-7.05
-10.24
-12.89
-15.14
-17.41
-20.25
-24.04
-28.86
-34.34
-39.85
-44.69
-48.28
-50.21
-50.34
-48.68
-45.47
-41.15
-36.35
-31.68
-27.62
-24.26
-21.30
-18.22
-14.45
-9.64
-3.87
2.29
7.90
11.93
13.68
13.20
11.33
9.43
8.80
10.02
12.73
15.84
18.12
18.81
17.87
15.82
13.36
10.91
8.56
6.17
3.58
0.82
-1.89
-4.30
-6.22
-7.69
-8.96
-10.35
-12.17
-14.63
-17.78
-21.49
-25.57
-29.76
-33.76
-37.26
-39.88
-41.24
-41.06
-39.28
-36.17
-32.19
-27.89
-23.66
-19.67
-15.86
-12.17
-8.65
-5.52
-3.07
-1.46
-0.65
-0.34
-0.15
0.15
0.66
1.32
2.04
2.83
3.71
4.73
5.81
6.75
7.23
6.94
5.71
3.58
0.84
-2.08
-4.75
-6.86
-8.41
-9.63
-11.00
-13.00
-15.92
-19.71
-23.88
-27.64
-30.06
-30.40
-28.33
-24.10
-18.40
-12.16
-6.19
-0.97
3.41
7.14
10.38
13.18
15.43
17.01
17.92
18.37
18.69
19.14
19.82
20.59
21.22
21.60
21.71
21.69
21.65
21.56
21.20
20.30
18.67
16.30
13.40
10.25
7.16
4.25
1.52
-1.25
-4.34
-8.05
-12.54
-17.72
-23.28
-28.59
-32.90
-35.44
-35.71
-33.60
-29.45
-24.01
-18.10
-12.42
-7.32
-2.77
1.44
5.50
9.42
12.98
15.93
18.17
19.82
21.14
22.40
23.76
25.15
26.36
27.17
27.45
27.24
26.68
25.97
25.27
24.61
23.89
22.88
21.32
19.03
16.01
12.48
8.82
5.38
2.36
-0.26
-2.70
-5.30
-8.34
-11.98
-16.28
-21.12
-26.16
-30.87
-34.55
-36.45
-36.09
-33.39
-28.80
-23.13
-17.25
-11.80
-7.02
-2.80
1.11
4.91
8.64
12.18
15.39
18.18
20.55
22.52
24.13
25.40
26.34
26.97
27.34
27.53
27.62
27.69
27.78
27.82
27.69
27.20
26.18
24.53
22.32
19.69
16.90
14.14
11.49
8.90
6.27
3.53
0.67
-2.21
-5.10
-8.07
-11.37
-15.31
-20.08
-25.50
-31.07
-35.97
-39.37
-40.71
-39.84
-36.99
-32.71
-27.64
-22.35
-17.22
-12.44
-8.01
-3.81
0.25
4.19
7.86
11.07
13.60
15.43
16.74
17.87
19.15
20.71
22.49
24.18
25.51
26.33
26.67
26.70
26.56
26.26
25.66
24.64
23.13
21.30
19.42
17.73
16.26
14.85
13.23
11.19
8.71
5.90
2.96
0.02
-2.90
-5.80
-8.75
-11.78
-14.99
-18.53
-22.55
-27.06
-31.82
-36.31
-39.79
-41.59
-41.32
-38.98
-34.90
-29.61
-23.63
-17.42
-11.29
-5.47
-0.11
4.75
9.05
12.77
15.85
18.29
20.14
21.59
22.93
24.37
25.97
27.58
28.90
29.70
29.95
29.83
29.62
29.56
29.60
29.53
29.05
27.96
26.26
24.13
21.79
19.49
17.36
15.42
13.65
11.96
10.20
8.23
5.97
3.40
0.65
-2.16
-4.89
-7.53
-10.22
-13.18
-16.62
-20.65
-25.24
-30.22
-35.33
-40.23
-44.45
-47.42
-48.53
-47.37
-43.94
-38.69
-32.36
-25.75
-19.40
-13.48
-7.93
-2.64
2.34
6.80
10.49
13.32
15.47
17.25
18.98
20.78
22.58
24.24
25.60
26.66
27.45
28.05
28.44
28.61
28.51
28.12
27.48
26.57
25.40
23.91
22.09
20.01
17.79
15.59
13.56
11.71
9.96
8.14
6.09
3.75
1.17
-1.50
-4.05
-6.33
-8.35
-10.23
-12.18
-14.48
-17.33
-20.84
-24.98
-29.54
-34.16
-38.34
-41.47
-42.99
-42.56
-40.14
-36.05
-30.85
-25.20
-19.61
-14.37
-9.56
-5.13
-1.02
2.74
6.04
8.79
10.98
12.69
14.09
15.31
16.50
17.70
18.96
20.29
21.66
23.03
24.28
25.35
26.11
26.51
26.49
26.05
25.20
24.00
22.57
21.00
19.37
17.73
16.09
14.45
12.80
11.08
9.23
7.17
4.84
2.25
-0.47
-3.15
-5.60
-7.81
-9.87
-12.02
-14.49
-17.42
-20.90
-24.90
-29.31
-33.87
-38.19
-41.69
-43.71
-43.75
-41.61
-37.59
-32.29
-26.49
-20.76
-15.41
-10.44
-5.78
-1.44
2.41
5.58
7.99
9.76
11.15
12.38
13.62
14.84
15.94
16.88
17.67
18.39
19.06
19.68
20.18
20.55
20.84
21.12
21.41
21.64
21.67
21.35
20.62
19.54
18.20
16.67
14.97
13.10
11.04
8.85
6.62
4.41
2.18
-0.11
-2.56
-5.14
-7.76
-10.25
-12.54
-14.63
-16.67
-18.82
-21.26
-24.11
-27.44
-31.21
-35.25
-39.16
-42.25
-43.74
-43.04
-39.99
-35.02
-29.01
-22.95
-17.55
-13.05
-9.25
-5.74
-2.27
1.13
4.16
6.50
8.05
9.01
9.82
10.88
12.39
14.22
16.06
17.53
18.46
18.91
19.13
19.34
19.67
20.07
20.37
20.43
20.13
19.42
18.32
16.84
15.04
13.02
10.92
8.89
6.99
5.21
3.47
1.64
-0.43
-2.84
-5.61
-8.68
-11.88
-15.01
-17.90
-20.48
-22.81
-25.08
-27.55
-30.52
-34.20
-38.62
-43.55
-48.39
-52.19
-53.88
-52.67
-48.51
-42.22
-35.18
-28.67
-23.23
-18.40
-12.99
-5.77
3.83
15.16
26.38
34.97
38.55
35.78
26.97
14.25
0.91
-9.44
-14.02
-11.56
-2.36
12.02
29.43
47.33
63.00
73.61
76.84
71.67
59.13
42.17
24.63
9.70
-1.39
-9.42
-16.33
-23.58
-31.06
-37.07
-39.35
-36.53
-29.14
-19.65
-11.52
-7.73
-9.66
-16.62
-26.33
-35.88
-42.94
-46.52
-47.06
-45.75
-43.63
-40.92
-37.03
-31.25
-23.62
-15.40
-8.73
-5.50
-6.37
-10.22
-14.76
-17.66
-17.71
-15.20
-11.45
-7.77
-4.73
-2.04
0.83
3.80
5.87
5.53
1.67
-5.46
-14.02
-21.26
-24.82
-23.73
-18.84
-12.08
-5.33
0.48
5.60
10.84
16.78
23.18
29.12
33.60
36.05
36.57
35.56
33.40
30.19
25.96
20.98
15.92
11.68
9.07
8.53
10.03
13.13
16.98
20.29
21.63
19.92
15.21
9.26
5.20
6.35
14.50
28.77
45.69
60.74
70.40
73.57
71.50
66.40
59.80
51.65
40.81
26.65
10.43
-4.43
-13.56
-13.71
-4.59
10.69
26.84
38.53
42.49
38.56
29.09
17.43
6.30
-3.20
-11.42
-19.22
-27.05
-34.45
-40.37
-43.83
-44.56
-43.12
-40.49
-37.60
-34.95
-32.60
-30.42
-28.26
-26.10
-23.97
-21.94
-20.12
-18.67
-17.63
-16.71
-15.10
-11.69
-5.64
2.89
12.53
21.04
26.33
27.48
25.14
21.12
17.34
14.87
13.52
12.32
10.30
7.24
3.68
0.44
-1.99
-3.79
-5.68
-8.35
-11.98
-16.08
-19.69
-21.87
-22.23
-21.03
-19.05
-17.22
-16.18
-16.15
-16.95
-18.18
-19.42
-20.43
-21.15
-21.69
-22.18
-22.72
-23.27
-23.72
-23.92
-23.81
-23.42
-22.88
-22.35
-21.93
-21.65
-21.41
-21.14
-20.81
-20.47
-20.28
-20.45
-21.17
-22.57
-24.73
-27.61
-31.04
-34.72
-38.17
-40.82
-42.09
-41.57
-39.13
-35.00
-29.66
-23.77
-17.90
-12.39
-7.34
-2.72
1.50
5.21
8.22
10.31
11.40
11.58
11.17
10.51
9.91
9.51
9.22
8.82
8.07
6.81
5.07
3.05
1.03
-0.85
-2.66
-4.66
-7.17
-10.41
-14.42
-19.03
-23.98
-29.05
-34.00
-38.52
-42.17
-44.34
-44.53
-42.54
-38.59
-33.30
-27.39
-21.41
-15.59
-9.91
-4.24
1.37
6.70
11.49
15.79
20.25
26.02
34.37
45.95
60.31
75.69
89.55
99.48
104.02
103.17
98.17
90.89
83.06
75.70
68.93
62.11
54.22
44.24
31.57
16.16
-1.26
-19.24
-35.74
-48.36
-54.95
-54.21
-46.32
-33.19
-18.08
-4.64
4.27
7.52
5.79
1.08
-4.36
-8.88
-11.72
-12.72
-11.77
-8.48
-2.32
6.82
18.02
29.21
37.75
41.46
39.76
34.05
27.16
22.00
20.11
20.82
21.69
19.86
13.67
3.57
-8.20
-18.83
-26.36
-30.41
-31.89
-32.03
-31.43
-29.74
-26.16
-20.33
-12.93
-5.73
-0.77
0.68
-1.21
-4.87
-8.10
-9.09
-7.22
-3.08
2.00
6.73
10.42
13.06
14.97
16.42
17.46
17.99
18.13
18.32
19.07
20.59
22.45
23.68
23.28
20.87
17.03
13.14
10.68
10.50
12.49
15.59
18.46
19.95
19.59
17.57
14.51
11.16
8.13
5.76
4.15
3.31
3.15
3.67
4.94
6.98
9.72
12.79
15.68
17.84
18.95
19.09
18.67
18.21
18.04
18.08
18.00
17.34
15.86
13.66
11.14
8.75
6.78
5.26
3.98
2.58
0.79
-1.52
-4.38
-7.73
-11.52
-15.67
-19.98
-24.12
-27.58
-29.81
-30.43
-29.27
-26.55
-22.73
-18.39
-13.96
-9.70
-5.64
-1.74
1.99
5.36
8.07
9.78
10.34
9.86
8.77
7.62
6.92
6.88
7.39
8.06
8.46
8.29
7.50
6.24
4.76
3.15
1.33
-0.86
-3.63
-7.08
-11.14
-15.62
-20.23
-24.65
-28.51
-31.44
-33.07
-33.16
-31.63
-28.63
-24.55
-19.88
-15.13
-10.69
-6.78
-3.44
-0.50
2.24
5.01
7.87
10.72
13.30
15.36
16.77
17.62
18.20
18.85
19.77
20.94
22.09
22.84
22.90
22.18
20.84
19.20
17.48
15.81
14.10
12.18
9.90
7.17
4.00
0.42
-3.54
-7.81
-12.27
-16.58
-20.26
-22.73
-23.54
-22.54
-20.00
-16.48
-12.67
-9.12
-6.02
-3.30
-0.71
1.89
4.47
6.78
8.55
9.64
10.07
9.96
9.46
8.70
7.76
6.77
5.88
5.26
4.98
4.92
4.83
4.34
3.20
1.33
-1.13
-3.84
-6.52
-8.95
-11.12
-13.20
-15.48
-18.25
-21.65
-25.65
-29.95
-34.11
-37.61
-39.95
-40.78
-39.97
-37.58
-33.86
-29.20
-24.01
-18.66
-13.47
-8.65
-4.40
-0.83
2.03
4.27
6.10
7.74
9.32
10.75
11.77
12.09
11.63
10.61
9.56
8.99
9.19
10.10
11.32
12.37
12.76
12.07
9.95
6.19
0.97
-4.99
-10.47
-14.20
-15.39
-14.21
-11.84
-9.99
-10.25
-13.38
-19.06
-26.01
-32.58
-37.30
-39.43
-38.97
-36.54
-32.98
-29.02
-25.08
-21.23
-17.36
-13.31
-9.07
-4.72
-0.37
3.84
7.81
11.41
14.54
17.07
18.94
20.08
20.49
20.20
19.43
18.56
18.05
18.25
19.23
20.71
22.13
22.85
22.40
20.61
17.63
13.92
10.13
7.02
5.23
5.01
6.09
7.50
7.97
6.30
1.87
-5.08
-13.51
-22.00
-29.10
-33.74
-35.42
-34.27
-30.86
-26.00
-20.55
-15.14
-10.08
-5.36
-0.82
3.63
7.81
11.35
13.87
15.23
15.64
15.60
15.59
15.83
16.22
16.33
15.78
14.43
12.52
10.53
8.92
7.90
7.26
6.56
5.36
3.48
1.06
-1.60
-4.28
-7.04
-10.21
-14.21
-19.24
-25.10
-31.16
-36.52
-40.31
-41.88
-40.85
-37.15
-30.96
-22.73
-13.17
-3.13
6.48
14.88
21.55
26.29
29.20
30.60
30.88
30.42
29.54
28.51
27.48
26.59
25.91
25.45
25.16
24.88
24.40
23.48
21.99
19.89
17.25
14.23
10.90
7.25
3.24
-1.15
-5.88
-10.84
-15.92
-21.01
-25.95
-30.45
-34.05
-36.10
-36.00
-33.49
-28.74
-22.39
-15.40
-8.57
-2.39
3.15
8.37
13.58
18.82
23.77
27.86
30.57
31.67
31.33
30.02
28.29
26.56
24.98
23.53
22.10
20.64
19.16
17.67
16.16
14.49
12.46
9.86
6.59
2.57
-2.19
-7.60
-13.56
-19.79
-25.89
-31.26
-35.24
-37.22
-36.81
-34.00
-29.18
-23.06
-16.45
-9.99
-3.99
1.55
6.87
12.13
17.24
21.84
25.47
27.79
28.76
28.66
27.94
27.05
26.23
25.50
24.70
23.64
22.19
20.34
18.17
15.81
13.38
10.94
8.45
5.75
2.62
-1.15
-5.70
-10.99
-16.78
-22.62
-27.91
-31.95
-34.11
-33.96
-31.46
-26.93
-21.00
-14.42
-7.81
-1.55
4.32
9.92
15.38
20.70
25.67
30.00
33.43
35.82
37.25
37.88
37.91
37.45
36.53
35.19
33.52
31.77
30.20
29.03
28.22
27.48
26.37
24.49
21.62
17.85
13.49
8.92
4.48
0.38
-3.35
-6.76
-10.02
-13.35
-17.02
-21.25
-26.18
-31.68
-37.31
-42.39
-46.07
-47.59
-46.51
-42.84
-37.03
-29.89
-22.25
-14.78
-7.87
-1.55
4.28
9.71
14.76
19.29
23.15
26.25
28.56
30.20
31.30
31.97
32.29
32.31
32.09
31.72
31.38
31.22
31.26
31.47
31.61
31.47
30.83
29.60
27.83
25.65
23.24
20.74
18.26
15.83
13.48
11.19
8.91
6.52
3.94
1.12
-1.94
-5.17
-8.48
-11.76
-14.98
-18.11
-21.17
-24.27
-27.59
-31.36
-35.76
-40.78
-46.07
-50.95
-54.55
-56.06
-55.03
-51.48
-45.90
-39.06
-31.72
-24.47
-17.63
-11.32
-5.55
-0.29
4.44
8.63
12.28
15.39
18.01
20.18
21.96
23.37
24.46
25.28
25.90
26.45
27.03
27.70
28.38
28.93
29.13
28.77
27.75
26.10
23.94
21.45
18.82
16.18
13.67
11.40
9.42
7.64
5.91
4.05
1.93
-0.45
-2.97
-5.42
-7.65
-9.63
-11.48
-13.48
-15.95
-19.14
-23.19
-27.95
-33.06
-37.91
-41.76
-43.89
-43.84
-41.54
-37.30
-31.73
-25.51
-19.21
-13.23
-7.75
-2.84
1.44
5.01
7.82
9.88
11.36
12.56
13.78
15.22
16.88
18.61
20.20
21.47
22.37
22.96
23.34
23.54
23.59
23.38
22.79
21.76
20.27
18.40
16.32
14.22
12.26
10.55
9.06
7.68
6.23
4.52
2.44
-0.01
-2.67
-5.33
-7.74
-9.81
-11.60
-13.33
-15.32
-17.83
-20.99
-24.78
-28.97
-33.18
-36.87
-39.46
-40.40
-39.32
-36.24
-31.52
-25.83
-19.89
-14.22
-9.05
-4.39
-0.15
3.66
6.91
9.43
11.13
12.10
12.59
12.92
13.30
13.85
14.50
15.17
15.80
16.38
17.01
17.72
18.44
18.94
18.88
17.93
15.90
12.86
9.11
5.13
1.39
-1.79
-4.29
-6.26
-8.01
-9.91
-12.25
-15.08
-18.18
-21.16
-23.56
-25.13
-25.94
-26.37
-26.93
-28.08
-30.03
-32.72
-35.85
-38.95
-41.46
-42.81
-42.43
-39.97
-35.39
-29.05
-21.66
-14.14
-7.29
-1.66
2.57
5.54
7.57
8.99
10.08
11.06
12.05
13.15
14.43
15.91
17.54
19.17
20.60
21.61
22.11
22.08
21.60
20.83
19.85
18.75
17.56
16.30
15.03
13.75
12.41
10.92
9.14
7.02
4.63
2.11
-0.39
-2.77
-5.09
-7.47
-10.10
-13.11
-16.57
-20.42
-24.47
-28.34
-31.50
-33.35
-33.38
-31.36
-27.45
-22.16
-16.25
-10.52
-5.52
-1.56
1.40
3.58
5.27
6.72
8.08
9.37
10.54
11.57
12.50
13.40
14.36
15.36
16.28
16.93
17.15
16.89
16.22
15.30
14.29
13.29
12.28
11.18
9.92
8.41
6.64
4.65
2.49
0.24
-2.01
-4.20
-6.25
-8.12
-9.84
-11.49
-13.25
-15.31
-17.83
-20.84
-24.19
-27.47
-30.14
-31.58
-31.32
-29.18
-25.34
-20.32
-14.79
-9.41
-4.63
-0.67
2.50
4.98
6.89
8.27
9.20
9.76
10.09
10.40
10.82
11.40
12.11
12.85
13.54
14.10
14.46
14.53
14.25
13.61
12.66
11.52
10.30
9.08
7.87
6.63
5.32
3.88
2.29
0.51
-1.48
-3.65
-5.91
-8.12
-10.22
-12.23
-14.32
-16.75
-19.70
-23.12
-26.71
-29.93
-32.18
-32.98
-32.06
-29.50
-25.64
-20.95
-15.92
-10.93
-6.23
-1.94
1.85
5.01
7.42
8.99
9.73
9.85
9.63
9.40
9.44
9.92
10.81
11.92
12.94
13.55
13.53
12.85
11.72
10.42
9.27
8.45
7.98
7.74
7.44
6.78
5.42
3.15
-0.05
-3.92
-8.00
-11.79
-15.00
-17.66
-20.05
-22.53
-25.35
-28.56
-32.05
-35.68
-39.29
-42.71
-45.64
-47.54
-47.83
-46.01
-41.92
-35.85
-28.56
-21.06
-14.21
-8.54
-3.99
-0.10
3.78
8.01
12.51
16.79
20.25
22.52
23.74
24.46
25.41
27.20
30.15
34.31
39.57
45.78
52.75
60.16
67.59
74.49
80.34
84.79
87.67
88.97
88.70
86.93
83.66
78.93
72.84
65.57
57.39
48.55
39.25
29.57
19.46
8.81
-2.43
-14.11
-25.81
-36.90
-46.59
-54.18
-59.15
-61.30
-60.75
-57.87
-53.21
-47.39
-41.01
-34.61
-28.54
-23.04
-18.17
-13.90
-10.15
-6.87
-3.97
-1.38
0.96
3.06
4.85
6.19
6.93
6.99
6.35
5.06
3.26
1.09
-1.31
-3.88
-6.62
-9.62
-12.97
-16.67
-20.62
-24.54
-28.07
-30.92
-32.94
-34.13
-34.63
-34.60
-34.19
-33.57
-32.94
-32.57
-32.73
-33.55
-34.86
-36.14
-36.63
-35.56
-32.48
-27.41
-20.89
-13.73
-6.76
-0.52
4.72
8.96
12.17
14.26
15.05
14.49
12.74
10.30
7.77
5.68
4.25
3.38
2.74
1.96
0.86
-0.54
-2.06
-3.46
-4.58
-5.41
-6.06
-6.73
-7.64
-8.91
-10.48
-12.19
-13.75
-14.94
-15.71
-16.19
-16.70
-17.59
-19.19
-21.62
-24.76
-28.29
-31.68
-34.31
-35.65
-35.31
-33.23
-29.64
-25.08
-20.13
-15.30
-10.82
-6.74
-2.99
0.40
3.31
5.52
6.92
7.62
7.96
8.38
9.20
10.52
12.20
13.97
15.64
17.12
18.47
19.77
21.03
22.14
22.85
22.83
21.83
19.73
16.64
12.91
8.98
5.31
2.15
-0.52
-2.93
-5.43
-8.28
-11.60
-15.38
-19.53
-23.93
-28.38
-32.51
-35.77
-37.54
-37.35
-35.02
-30.80
-25.23
-18.97
-12.62
-6.61
-1.19
3.50
7.37
10.38
12.55
13.95
14.75
15.15
15.37
15.61
15.97
16.50
17.14
17.77
18.31
18.71
18.96
19.03
18.85
18.28
17.20
15.61
13.69
11.68
9.88
8.50
7.64
7.26
7.17
7.19
7.15
6.99
6.82
6.85
7.20
7.84
8.48
8.75
8.50
7.98
7.99
9.57
13.69
20.73
30.27
41.13
51.71
60.47
66.31
68.81
68.17
65.03
60.19
54.54
48.87
43.86
40.02
37.63
36.68
36.76
37.28
37.72
37.97
38.38
39.52
41.68
44.50
46.98
47.87
46.29
42.15
36.14
29.30
22.40
15.65
8.74
1.23
-7.03
-15.69
-24.13
-31.82
-38.65
-44.97
-51.31
-58.17
-65.56
-72.99
-79.54
-84.17
-86.17
-85.33
-82.03
-77.01
-71.12
-65.00
-59.03
-53.33
-47.84
-42.50
-37.26
-32.12
-27.18
-22.54
-18.24
-14.28
-10.52
-6.78
-2.96
0.89
4.53
7.62
9.90
11.29
11.96
12.12
11.94
11.37
10.16
7.96
4.46
-0.52
-7.02
-14.92
-23.97
-33.67
-43.29
-51.97
-59.04
-64.39
-68.66
-73.17
-79.34
-88.06
-99.25
-111.88
-124.41
-135.57
-144.72
-152.01
-158.04
-163.43
-168.56
-173.69
-179.18
-185.58
-193.61
-203.73
-215.89
-229.31
-242.72
-254.65
-263.79
-269.29
-270.80
-268.41
-262.47
-253.46
-241.69
-227.16
-209.44
-187.73
-161.11
-128.96
-91.43
-49.73
-6.28
35.79
73.28
103.80
126.48
142.13
152.93
161.58
170.31
180.25
191.23
202.33
212.47
221.15
228.46
234.81
240.44
245.03
247.70
247.48
243.78
236.77
227.27
216.49
205.57
195.21
185.60
176.46
167.36
157.98
148.46
139.43
131.77
126.06
122.10
118.72
114.07
106.54
95.58
82.05
67.87
54.99
44.37
35.62
27.35
18.15
7.56
-3.75
-14.36
-23.00
-29.33
-34.05
-38.37
-43.19
-48.48
-53.20
-55.93
-55.64
-52.20
-46.46
-39.72
-33.01
-26.59
-20.00
-12.50
-3.70
6.07
15.85
24.53
31.43
36.73
41.31
46.26
52.26
59.15
65.99
71.55
74.91
75.91
75.31
74.28
73.95
74.80
76.53
78.29
79.19
78.75
77.19
75.24
73.80
73.40
73.91
74.55
74.28
72.31
68.47
63.40
58.32
54.61
53.39
55.29
60.34
68.13
77.96
88.97
100.14
110.53
119.36
126.30
131.48
135.33
138.10
139.44
138.23
132.80
121.61
103.89
80.15
52.18
22.58
-5.99
-31.49
-52.88
-70.14
-83.79
-94.46
-102.49
-107.81
-110.24
-109.76
-106.85
-102.47
-97.80
-93.74
-90.64
-88.22
-85.78
-82.73
-78.82
-74.32
-69.73
-65.44
-61.33
-56.80
-51.01
-43.24
-33.36
-21.80
-9.43
2.92
14.76
26.15
37.48
49.17
61.44
74.19
87.10
99.74
111.49
121.41
128.06
129.59
124.18
110.68
89.21
61.31
29.72
-2.35
-31.97
-57.05
-76.55
-90.45
-99.44
-104.66
-107.39
-108.76
-109.59
-110.28
-110.82
-111.01
-110.63
-109.52
-107.64
-105.10
-102.05
-98.80
-95.67
-92.93
-90.62
-88.41
-85.71
-81.76
-76.02
-68.36
-59.13
-49.03
-38.85
-29.20
-20.41
-12.60
-5.78
0.05
4.86
8.64
11.52
13.72
15.56
17.27
18.90
20.33
21.32
21.69
21.44
20.80
20.08
19.44
18.83
17.90
16.18
13.32
9.26
4.30
-1.04
-6.12
-10.41
-13.54
-15.33
-15.78
-15.05
-13.49
-11.61
-9.99
-9.05
-8.92
-9.33
-9.79
-9.79
-8.98
-7.35
-5.08
-2.48
0.21
2.88
5.52
8.15
10.77
13.35
15.86
18.31
20.70
23.01
25.15
27.04
28.60
29.86
30.89
31.85
32.89
34.05
35.31
36.58
37.76
38.82
39.77
40.71
41.72
42.93
44.39
46.17
48.16
50.11
51.59
52.11
51.21
48.70
44.71
39.67
34.19
28.75
23.64
18.84
14.15
9.32
4.28
-0.76
-5.34
-8.90
-11.00
-11.45
-10.41
-8.29
-5.54
-2.56
0.34
2.87
4.63
5.23
4.36
2.03
-1.35
-5.10
-8.53
-11.28
-13.41
-15.31
-17.34
-19.63
-21.92
-23.76
-24.75
-24.82
-24.15
-23.12
-22.05
-21.17
-20.67
-20.79
-21.85
-24.11
-27.57
-31.80
-35.99
-39.21
-40.63
-39.89
-37.11
-32.84
-27.91
-23.14
-19.19
-16.37
-14.64
-13.67
-13.02
-12.32
-11.41
-10.34
-9.28
-8.35
-7.55
-6.78
-5.90
-4.87
-3.78
-2.85
-2.31
-2.32
-2.90
-4.01
-5.52
-7.29
-9.27
-11.41
-13.71
-16.15
-18.62
-20.93
-22.79
-23.94
-24.25
-23.76
-22.72
-21.44
-20.16
-18.95
-17.65
-16.05
-13.94
-11.31
-8.30
-5.20
-2.40
-0.26
0.93
1.09
0.35
-0.85
-1.94
-2.32
-1.56
0.49
3.73
7.92
12.74
17.96
23.32
28.57
33.39
37.49
40.74
43.24
45.38
47.70
50.65
54.39
58.70
63.05
66.89
69.86
72.05
73.98
76.40
80.02
85.18
91.68
98.82
105.53
110.58
112.86
111.47
106.03
96.70
84.32
70.20
55.80
42.10
29.18
16.11
1.51
-15.52
-34.63
-53.99
-70.87
-82.82
-88.80
-89.52
-87.07
-83.85
-81.56
-80.69
-80.65
-80.44
-79.24
-76.75
-73.05
-68.38
-62.88
-56.57
-49.44
-41.58
-33.22
-24.68
-16.28
-8.17
-0.37
7.20
14.64
21.99
29.31
36.68
44.20
51.90
59.57
66.59
72.03
74.84
74.29
70.30
63.49
55.04
46.38
38.91
33.80
31.72
32.56
35.25
37.73
37.49
32.29
21.20
5.11
-13.37
-30.86
-44.49
-53.00
-57.10
-58.91
-60.90
-64.78
-71.02
-78.89
-87.15
-94.58
-100.43
-104.26
-105.74
-104.46
-99.99
-92.27
-81.88
-70.05
-58.32
-47.98
-39.67
-33.28
-28.19
-23.65
-19.17
-14.68
-10.46
-6.96
-4.56
-3.38
-3.23
-3.73
-4.38
-4.83
-4.93
-4.79
-4.74
-5.16
-6.38
-8.46
-11.13
-13.85
-15.93
-16.75
-16.00
-13.68
-10.17
-6.03
-1.77
2.23
5.77
8.82
11.46
13.79
15.89
17.82
19.49
20.77
21.47
21.45
20.78
19.69
18.52
17.59
17.06
16.96
17.21
17.73
18.48
19.40
20.33
20.99
20.98
19.92
17.61
14.15
9.87
5.30
0.91
-2.97
-6.33
-9.37
-12.43
-15.78
-19.47
-23.30
-26.91
-29.92
-32.06
-33.21
-33.35
-32.55
-30.86
-28.29
-24.76
-20.10
-14.12
-6.69
2.10
11.87
22.00
31.77
40.52
47.65
52.72
55.26
54.93
51.65
45.78
38.11
29.54
20.67
11.42
1.17
-10.63
-23.74
-36.65
-46.99
-52.48
-52.16
-47.00
-39.64
-33.36
-30.62
-32.28
-37.52
-44.57
-51.65
-57.74
-62.58
-66.41
-69.40
-71.44
-72.23
-71.57
-69.67
-67.17
-64.89
-63.41
-62.79
-62.42
-61.24
-58.17
-52.53
-44.34
-34.32
-23.63
-13.39
-4.33
3.40
10.09
16.28
22.40
28.54
34.47
39.75
43.96
46.85
48.50
49.37
50.10
51.35
53.52
56.63
60.22
63.54
65.74
66.19
64.60
61.09
56.04
50.00
43.42
36.60
29.53
21.98
13.55
3.89
-7.06
-18.88
-30.70
-41.28
-49.39
-54.13
-55.23
-53.16
-49.00
-44.08
-39.56
-36.04
-33.50
-31.45
-29.28
-26.62
-23.39
-19.85
-16.28
-12.73
-9.11
-5.25
-1.13
3.01
6.71
9.58
11.42
12.42
13.00
13.68
14.82
16.47
18.42
20.21
21.45
21.89
21.57
20.75
19.78
18.89
18.13
17.35
16.26
14.62
12.33
9.51
6.43
3.44
0.85
-1.16
-2.66
-3.83
-4.94
-6.24
-7.86
-9.79
-11.93
-14.15
-16.30
-18.19
-19.51
-19.94
-19.14
-16.91
-13.22
-8.33
-2.70
3.11
8.61
13.43
17.43
20.73
23.61
26.42
29.47
32.90
36.71
40.70
44.50
47.58
49.36
49.27
47.02
42.72
36.92
30.46
24.18
18.63
13.93
9.84
5.91
1.82
-2.55
-7.05
-11.36
-15.21
-18.50
-21.32
-23.88
-26.39
-28.88
-31.24
-33.24
-34.69
-35.44
-35.47
-34.78
-33.49
-31.87
-30.34
-29.46
-29.65
-30.94
-32.87
-34.54
-35.01
-33.68
-30.57
-26.19
-21.28
-16.46
-12.01
-7.96
-4.23
-0.85
2.11
4.57
6.64
8.59
10.78
13.46
16.67
20.15
23.52
26.39
28.53
29.91
30.62
30.84
30.77
30.57
30.35
30.20
30.14
30.07
29.89
29.55
29.11
28.75
28.68
28.96
29.39
29.47
28.57
26.09
21.71
15.49
7.83
-0.63
-9.15
-17.03
-23.76
-29.07
-32.90
-35.42
-36.85
-37.39
-37.13
-36.09
-34.23
-31.54
-28.00
-23.63
-18.48
-12.57
-6.04
0.82
7.48
13.23
17.26
18.92
17.91
14.40
9.01
2.62
-3.81
-9.51
-14.02
-17.19
-19.08
-19.89
-19.89
-19.35
-18.59
-17.89
-17.47
-17.44
-17.82
-18.48
-19.29
-20.16
-21.18
-22.53
-24.42
-26.91
-29.81
-32.53
-34.29
-34.24
-31.85
-27.05
-20.30
-12.47
-4.55
2.64
8.58
13.14
16.43
18.65
19.98
20.57
20.54
20.12
19.59
19.20
19.13
19.38
19.82
20.23
20.45
20.41
20.13
19.73
19.35
19.08
18.89
18.63
18.07
16.97
15.20
12.85
10.19
7.57
5.28
3.44
1.97
0.65
-0.81
-2.71
-5.28
-8.68
-12.86
-17.46
-21.86
-25.23
-26.80
-26.04
-22.88
-17.71
-11.37
-4.91
0.60
4.28
5.64
4.65
1.68
-2.63
-7.57
-12.54
-17.08
-20.85
-23.57
-24.99
-24.91
-23.18
-19.84
-15.11
-9.34
-3.02
3.37
9.35
14.43
18.12
19.92
19.47
16.68
11.83
5.55
-1.36
-8.23
-14.70
-20.75
-26.53
-32.10
-37.36
-42.06
-45.98
-49.00
-51.05
-52.02
-51.56
-49.26
-44.73
-37.89
-29.11
-19.14
-8.86
0.95
9.81
17.58
24.34
30.19
35.14
39.07
41.79
43.29
43.77
43.66
43.52
43.74
44.42
45.37
46.20
46.56
46.32
45.63
44.74
43.88
43.02
41.78
39.47
35.21
28.19
17.96
4.75
-10.43
-25.94
-39.85
-50.55
-57.23
-60.17
-60.55
-59.97
-59.82
-60.80
-62.75
-64.87
-66.12
-65.59
-62.80
-57.72
-50.73
-42.41
-33.39
-24.24
-15.48
-7.48
-0.50
5.33
10.06
13.88
17.06
19.86
22.48
25.03
27.58
30.24
33.14
36.43
40.10
43.95
47.54
50.38
52.12
52.76
52.75
52.84
53.78
55.94
59.02
62.01
63.53
62.28
57.58
49.64
39.52
28.67
18.61
10.47
4.73
1.03
-1.89
-5.88
-12.78
-23.59
-37.79
-53.23
-66.81
-75.73
-78.64
-76.15
-70.41
-63.99
-58.72
-55.19
-52.85
-50.80
-48.48
-45.88
-43.44
-41.55
-40.27
-39.28
-38.05
-36.20
-33.67
-30.74
-27.83
-25.25
-23.04
-20.98
-18.62
-15.58
-11.59
-6.68
-1.12
4.66
10.17
14.92
18.55
20.84
21.69
21.24
19.86
18.18
16.97
17.00
18.78
22.42
27.53
33.35
38.95
43.54
46.57
47.81
47.28
45.11
41.53
36.90
31.69
26.50
21.85
18.04
15.05
12.56
10.12
7.40
4.33
1.01
-2.29
-5.36
-8.13
-10.67
-13.11
-15.64
-18.44
-21.63
-25.28
-29.34
-33.68
-37.99
-41.92
-45.05
-46.96
-47.25
-45.55
-41.63
-35.36
-26.89
-16.61
-5.19
6.52
17.64
27.43
35.47
41.74
46.48
50.08
52.86
54.98
56.39
56.94
56.48
54.91
52.24
48.51
43.78
38.12
31.70
24.80
17.85
11.27
5.31
-0.10
-5.30
-10.82
-17.04
-23.99
-31.33
-38.48
-44.96
-50.52
-55.18
-58.98
-61.73
-62.87
-61.65
-57.53
-50.50
-41.28
-31.05
-21.04
-12.06
-4.27
2.70
9.42
16.21
22.97
29.22
34.44
38.34
41.04
43.01
44.81
46.77
48.91
50.94
52.45
53.13
52.91
51.99
50.85
50.03
50.10
51.32
53.57
56.34
58.86
60.44
60.77
60.11
59.30
59.51
61.89
67.12
74.88
83.49
90.03
91.06
83.87
67.86
45.07
19.67
-3.46
-20.42
-29.44
-31.07
-27.57
-22.01
-17.41
-16.16
-19.56
-27.50
-38.34
-49.38
-57.66
-61.14
-59.34
-53.34
-45.08
-36.40
-28.49
-21.90
-16.84
-13.52
-12.17
-12.76
-14.83
-17.50
-19.78
-20.98
-21.03
-20.43
-20.02
-20.64
-22.76
-26.41
-31.18
-36.40
-41.28
-45.09
-47.27
-47.45
-45.52
-41.61
-35.97
-28.93
-20.76
-11.74
-2.19
7.38
16.23
23.42
27.98
29.17
26.68
20.72
11.92
1.16
-10.58
-22.25
-32.73
-40.91
-45.82
-46.92
-44.33
-38.83
-31.68
-24.23
-17.52
-12.05
-7.79
-4.40
-1.48
1.23
3.81
6.22
8.36
10.11
11.23
11.43
10.33
7.66
3.44
-1.77
-6.95
-10.77
-12.02
-10.04
-4.99
2.25
10.36
18.12
24.74
30.07
34.45
38.39
42.29
46.23
49.98
53.17
55.57
57.26
58.66
60.37
63.02
67.08
72.70
79.71
87.51
95.11
101.15
104.11
102.80
96.80
86.61
73.65
59.70
46.40
34.69
24.65
15.64
6.61
-3.34
-14.68
-27.18
-40.05
-52.09
-62.11
-69.15
-72.70
-72.70
-69.43
-63.42
-55.37
-46.15
-36.69
-27.87
-20.33
-14.31
-9.71
-6.24
-3.67
-1.84
-0.66
-0.04
0.29
0.72
1.65
3.32
5.74
8.69
11.82
14.76
17.21
18.99
20.01
20.16
19.32
17.43
14.51
10.82
6.77
2.86
-0.53
-3.23
-5.37
-7.31
-9.50
-12.28
-15.91
-20.45
-25.87
-31.90
-38.01
-43.36
-46.88
-47.57
-44.81
-38.59
-29.58
-18.88
-7.73
2.87
12.29
20.32
27.02
32.61
37.33
41.47
45.35
49.32
53.74
58.84
64.70
71.19
77.97
84.63
90.75
95.91
99.66
101.51
100.90
97.35
90.73
81.37
70.12
58.17
46.71
36.63
28.34
21.76
16.54
12.18
8.18
4.04
-0.66
-6.31
-13.06
-20.73
-28.71
-36.06
-41.73
-44.97
-45.58
-43.97
-40.97
-37.44
-34.03
-31.02
-28.41
-26.09
-24.00
-22.18
-20.70
-19.59
-18.77
-18.10
-17.44
-16.66
-15.69
-14.48
-13.06
-11.51
-9.95
-8.60
-7.60
-7.14
-7.31
-8.18
-9.77
-12.00
-14.69
-17.58
-20.33
-22.68
-24.54
-26.08
-27.65
-29.70
-32.55
-36.25
-40.56
-44.93
-48.71
-51.18
-51.78
-50.18
-46.31
-40.47
-33.24
-25.43
-17.89
-11.34
-6.22
-2.64
-0.43
0.72
1.23
1.49
1.82
2.44
3.43
4.70
6.05
7.23
8.08
8.57
8.79
8.83
8.67
8.16
7.09
5.37
3.08
0.47
-2.14
-4.50
-6.51
-8.30
-10.11
-12.20
-14.72
-17.69
-20.92
-24.05
-26.57
-27.92
-27.60
-25.35
-21.25
-15.71
-9.37
-2.86
3.33
8.92
13.84
18.01
21.32
23.55
24.49
24.06
22.44
20.04
17.46
15.24
13.78
13.25
13.60
14.66
16.19
17.98
19.81
21.52
22.92
23.85
24.13
23.55
21.95
19.16
15.10
9.80
3.42
-3.77
