1520863179.00
64.000000
-0.00
-0.00
-0.00
-0.00
-0.00
-0.00
-0.00
-0.00
-0.00
-0.00
0.00
0.01
0.01
-0.00
-0.03
-0.05
-0.05
0.00
0.13
0.36
0.66
1.01
1.37
1.72
2.06
2.40
2.79
3.24
3.80
4.42
5.06
5.66
6.20
6.68
7.15
7.68
8.31
9.14
10.09
11.04
11.88
12.56
13.14
13.76
14.65
15.96
17.91
20.32
22.90
25.38
27.58
29.57
31.68
34.32
37.81
42.54
48.15
54.10
59.83
64.97
69.58
74.14
79.34
85.71
93.76
103.00
112.62
121.73
129.77
136.75
143.30
150.75
157.77
166.64
177.95
191.79
206.97
220.57
228.25
225.36
208.53
176.87
132.76
80.05
23.07
-34.94
-92.44
-149.16
-205.23
-260.37
-313.74
-363.87
-409.83
-450.91
-486.50
-515.74
-537.23
-549.22
-549.96
-538.37
-514.21
-478.67
-433.88
-382.45
-327.02
-269.84
-212.63
-156.66
-102.95
-52.37
-5.90
35.58
71.43
101.35
125.50
144.38
158.69
169.15
176.37
180.75
182.57
182.07
179.51
175.23
169.65
163.18
156.15
148.81
141.30
133.69
126.02
118.33
110.69
103.16
95.80
88.68
81.83
75.25
68.95
62.95
57.25
51.86
46.78
42.03
37.59
33.45
29.61
26.07
22.81
19.83
17.11
14.67
12.48
10.54
8.83
7.35
6.07
4.97
4.05
3.27
2.62
2.09
1.65
1.30
1.01
0.79
0.61
0.48
0.38
0.30
0.25
0.22
0.20
0.20
0.21
0.23
0.26
0.29
0.32
0.36
0.41
0.45
0.50
0.54
0.60
0.65
0.70
0.76
0.83
0.90
0.97
1.06
1.15
1.25
1.37
1.50
1.65
1.82
2.00
2.21
2.43
2.68
2.96
3.27
3.61
3.98
4.38
4.82
5.30
5.81
6.36
6.95
7.59
8.26
8.99
9.75
10.56
11.42
12.33
13.28
14.28
15.35
16.48
17.67
18.93
20.21
21.50
22.73
23.81
24.65
25.11
25.09
24.45
23.12
21.05
18.27
14.84
10.86
6.49
1.91
-2.69
-7.09
-11.12
-14.59
-17.37
-19.37
-20.58
-21.03
-20.86
-20.24
-19.31
-18.21
-17.01
-15.75
-14.41
-13.00
-11.50
-10.01
-8.62
-7.39
-6.34
-5.41
-4.48
-3.42
-2.14
-0.61
0.93
2.24
3.16
3.64
3.84
4.06
4.65
5.81
7.61
9.55
11.07
11.77
11.50
10.51
9.34
8.59
8.72
9.87
11.24
11.94
11.25
8.87
5.09
0.62
-3.67
-7.07
-9.24
-11.07
-13.73
-18.63
-27.21
-40.59
-59.16
-82.24
-108.57
-131.47
-146.51
-151.23
-145.90
-133.41
-118.15
-104.21
-93.93
-87.38
-82.70
-78.01
-71.46
-61.91
-48.95
-32.76
-13.95
6.49
27.29
47.13
64.35
77.79
86.95
91.89
93.12
91.56
88.33
84.60
81.44
79.16
77.67
76.52
75.08
72.84
69.62
65.64
61.35
57.26
53.50
49.95
46.21
41.80
36.30
29.57
21.78
13.38
4.98
-2.93
-10.07
-16.41
-22.27
-28.20
-34.79
-42.56
-51.63
-61.62
-71.48
-79.68
-84.42
-84.17
-78.08
-66.27
-49.82
-30.52
-10.32
8.98
26.08
40.25
51.20
58.95
63.71
65.81
65.74
64.16
61.81
59.36
57.27
55.64
54.29
52.84
50.91
48.34
45.21
41.86
38.73
36.17
34.38
33.27
32.48
31.51
29.85
27.26
23.82
19.97
16.28
13.19
10.68
8.27
5.18
0.70
-5.58
-13.48
-22.27
-30.74
-37.35
-40.41
-38.45
-30.65
-17.33
-0.11
18.35
35.09
47.86
55.72
59.22
59.76
58.76
56.99
54.40
50.56
45.26
38.92
32.51
27.14
23.48
21.51
20.60
19.94
18.84
17.00
14.40
11.14
7.31
2.98
-1.77
-6.81
-11.93
-16.89
-21.51
-25.71
-29.42
-32.67
-35.45
-37.84
-39.87
-41.62
-43.16
-44.56
-45.95
-47.55
-49.55
-52.10
-55.10
-58.12
-60.29
-60.48
-57.60
-51.01
-40.82
-27.96
-14.00
-0.65
10.70
19.31
25.12
28.53
30.16
30.57
30.16
29.24
28.05
26.78
25.63
24.73
24.19
24.05
24.27
24.68
25.03
25.01
24.42
23.14
21.20
18.67
15.57
11.82
7.30
1.95
-4.11
-10.52
-16.76
-22.35
-26.99
-30.74
-33.88
-36.87
-40.09
-43.79
-48.10
-53.04
-58.61
-64.66
-70.85
-76.46
-80.54
-82.08
-80.37
-75.31
-67.55
-58.32
-49.06
-41.06
-35.15
-31.62
-30.37
-31.08
-33.37
-36.83
-40.96
-45.11
-48.57
-50.66
-50.99
-49.58
-46.85
-43.40
-39.71
-35.97
-32.02
-27.66
-22.85
-17.88
-13.32
-9.81
-7.77
-7.27
-8.05
-9.68
-11.78
-14.03
-16.23
-18.23
-19.98
-21.63
-23.55
-26.30
-30.40
-36.08
-43.05
-50.53
-57.33
-62.09
-63.60
-61.05
-54.23
-43.57
-30.06
-15.03
0.17
14.43
26.95
37.27
45.14
50.43
53.14
53.48
52.00
49.45
46.69
44.41
42.98
42.37
42.32
42.46
42.54
42.41
42.04
41.43
40.46
38.93
36.56
33.12
28.51
22.84
16.49
9.92
3.62
-2.11
-7.29
-12.22
-17.45
-23.57
-30.92
-39.43
-48.42
-56.61
-62.35
-63.99
-60.37
-51.20
-37.20
-19.92
-1.33
16.66
32.65
45.79
55.76
62.61
66.54
67.89
67.16
65.02
62.22
59.55
57.62
56.82
57.21
58.63
60.73
63.00
64.89
65.82
65.26
62.89
58.63
52.73
45.68
38.08
30.40
22.92
15.64
8.42
1.07
-6.54
-14.57
-23.23
-32.76
-43.40
-55.07
-67.14
-78.40
-87.24
-92.03
-91.69
-85.99
-75.63
-62.08
-47.14
-32.65
-20.08
-10.36
-3.74
0.20
2.51
4.54
7.60
12.45
19.04
26.35
32.63
35.97
34.95
29.16
19.34
7.12
-5.57
-17.11
-26.50
-33.39
-37.94
-40.47
-41.51
-41.70
-41.80
-42.57
-44.49
-47.50
-50.97
-53.97
-55.71
-55.96
-55.32
-54.99
-56.49
-61.03
-69.11
-80.17
-92.63
-104.16
-112.18
-114.50
-109.82
-98.13
-80.68
-59.65
-37.64
-16.97
0.73
14.72
25.02
32.08
36.51
38.87
39.65
39.33
38.38
37.15
35.82
34.32
32.46
30.14
27.60
25.50
24.75
26.16
30.08
36.19
43.46
50.61
56.44
60.32
62.28
62.96
63.14
63.49
64.29
65.45
66.68
67.53
67.44
65.67
61.53
54.59
45.08
34.06
23.30
14.73
9.86
9.34
12.89
19.66
28.60
38.81
49.55
60.16
69.94
78.19
84.37
88.28
90.17
90.61
90.29
89.91
89.90
90.35
90.96
91.10
89.96
86.94
81.89
75.28
68.03
61.16
55.28
50.30
45.49
39.88
32.80
24.17
14.59
4.90
-4.18
-12.40
-19.96
-27.33
-34.95
-43.05
-51.72
-60.90
-70.45
-80.03
-88.87
-95.76
-99.20
-97.90
-91.26
-79.75
-64.81
-48.42
-32.47
-18.29
-6.52
2.78
9.77
14.60
17.49
18.70
18.80
18.53
18.65
19.68
21.68
24.31
27.02
29.31
30.97
32.07
32.80
33.32
33.53
33.05
31.30
27.82
22.41
15.31
7.15
-1.25
-9.19
-16.36
-22.86
-29.18
-35.93
-43.70
-52.76
-62.93
-73.47
-83.15
-90.33
-93.43
-91.30
-83.59
-70.90
-54.63
-36.58
-18.52
-1.82
12.55
24.07
32.48
37.78
40.21
40.35
39.02
37.16
35.57
34.72
34.66
35.14
35.74
36.13
36.16
35.85
35.22
34.15
32.37
29.59
25.62
20.53
14.69
8.53
2.43
-3.52
-9.46
-15.78
-22.86
-30.98
-40.21
-50.34
-60.81
-70.57
-78.25
-82.28
-81.39
-75.01
-63.55
-48.36
-31.38
-14.61
0.34
12.53
21.71
28.09
32.12
34.27
34.97
34.69
33.92
33.14
32.79
33.07
33.94
35.12
36.21
36.85
36.90
36.33
35.17
33.41
30.86
27.31
22.59
16.77
10.20
3.32
-3.47
-10.04
-16.63
-23.75
-31.95
-41.61
-52.57
-64.17
-75.16
-83.98
-89.05
-89.12
-83.71
-73.21
-58.86
-42.48
-25.99
-10.96
1.69
11.68
19.21
24.64
28.34
30.60
31.74
32.12
32.15
32.19
32.46
32.96
33.58
34.21
34.79
35.33
35.78
35.91
35.39
33.79
30.80
26.36
20.61
13.91
6.72
-0.53
-7.54
-14.23
-20.85
-27.88
-35.97
-45.61
-56.79
-68.77
-80.04
-88.61
-92.53
-90.49
-82.17
-68.42
-51.02
-32.15
-13.90
2.26
15.58
26.01
33.85
39.52
43.32
45.49
46.33
46.30
46.00
46.07
46.92
48.49
50.34
51.81
52.36
51.80
50.34
48.40
46.31
44.06
41.28
37.40
32.01
25.13
17.28
9.24
1.73
-4.96
-11.03
-17.08
-23.83
-31.81
-41.26
-52.00
-63.43
-74.48
-83.67
-89.35
-90.02
-84.87
-74.03
-58.69
-40.69
-22.05
-4.44
11.01
23.77
33.71
40.86
45.44
47.75
48.30
47.76
46.89
46.34
46.57
47.69
49.46
51.44
53.06
53.89
53.69
52.49
50.49
47.96
45.06
41.77
37.85
33.00
26.96
19.75
11.69
3.34
-4.71
-12.07
-18.69
-24.86
-31.10
-37.99
-45.99
-55.34
-65.86
-76.90
-87.22
-95.23
-99.22
-97.88
-90.73
-78.34
-62.19
-44.25
-26.44
-10.23
3.52
14.53
22.82
28.56
31.99
33.48
33.56
32.96
32.44
32.64
33.80
35.79
38.10
40.12
41.37
41.62
40.96
39.62
37.82
35.59
32.73
28.91
23.87
17.57
10.33
2.74
-4.55
-11.07
-16.69
-21.68
-26.66
-32.33
-39.24
-47.62
-57.16
-67.00
-75.73
-81.66
-83.18
-79.28
-69.83
-55.75
-38.76
-20.95
-4.17
10.30
21.84
30.43
36.32
39.87
41.49
41.63
40.85
39.75
38.91
38.74
39.35
40.64
42.23
43.72
44.68
44.89
44.23
42.79
40.75
38.23
35.23
31.55
26.92
21.09
14.07
6.18
-2.04
-9.96
-17.10
-23.35
-29.03
-34.74
-41.25
-49.16
-58.69
-69.43
-80.23
-89.35
-94.84
-95.04
-89.13
-77.45
-61.48
-43.28
-25.02
-8.38
5.76
17.17
26.03
32.67
37.32
40.15
41.43
41.56
41.17
40.92
41.34
42.65
44.69
46.97
48.93
50.06
50.12
49.20
47.61
45.73
43.76
41.65
39.03
35.42
30.42
23.94
16.27
8.04
-0.09
-7.62
-14.40
-20.56
-26.48
-32.57
-39.28
-46.99
-55.90
-65.84
-75.98
-84.84
-90.49
-91.11
-85.62
-74.12
-57.96
-39.25
-20.29
-2.93
11.72
23.26
31.78
37.59
41.08
42.68
42.98
42.61
42.22
42.34
43.25
44.97
47.23
49.59
51.61
52.93
53.35
52.89
51.76
50.17
48.25
45.94
43.00
39.17
34.28
28.39
21.79
14.86
7.91
1.17
-5.27
-11.40
-17.26
-23.07
-29.17
-36.06
-44.17
-53.59
-63.79
-73.49
-80.91
-84.23
-82.14
-74.29
-61.40
-45.04
-27.21
-9.78
5.85
18.89
29.07
36.47
41.28
43.77
44.31
43.42
41.81
40.30
39.60
40.11
41.75
44.02
46.21
47.66
48.05
47.38
45.91
43.94
41.62
38.91
35.62
31.57
26.68
20.99
14.65
7.92
1.07
-5.60
-11.86
-17.59
-22.87
-28.01
-33.49
-39.85
-47.47
-56.38
-66.08
-75.51
-83.09
-87.13
-86.24
-79.79
-68.22
-52.90
-35.83
-19.06
-4.18
7.88
16.81
22.73
25.93
26.80
25.81
23.56
20.80
18.28
16.62
16.05
16.51
17.65
19.10
20.59
21.99
23.26
24.32
24.92
24.64
23.03
19.77
14.84
8.58
1.61
-5.39
-11.94
-17.89
-23.47
-29.15
-35.43
-42.66
-50.83
-59.46
-67.57
-73.80
-76.68
-75.04
-68.36
-57.07
-42.46
-26.31
-10.41
3.86
15.75
25.04
31.78
36.03
37.93
37.68
35.84
33.20
30.68
29.02
28.51
29.02
30.08
31.21
32.08
32.56
32.65
32.35
31.60
30.19
27.89
24.49
19.88
14.13
7.52
0.46
-6.54
-13.11
-19.09
-24.66
-30.27
-36.46
-43.70
-52.18
-61.67
-71.51
-80.52
-87.19
-89.95
-87.58
-79.62
-66.61
-50.03
-31.93
-14.33
1.23
13.97
23.74
30.81
35.48
38.01
38.66
37.83
36.17
34.51
33.60
33.85
35.22
37.26
39.34
40.91
41.66
41.57
40.80
39.54
37.81
35.45
32.14
27.58
21.62
14.44
6.53
-1.43
-8.83
-15.36
-21.13
-26.62
-32.53
-39.45
-47.70
-57.10
-66.97
-76.12
-83.05
-86.21
-84.40
-77.11
-64.82
-48.87
-31.22
-13.85
1.68
14.54
24.53
31.83
36.73
39.48
40.33
39.71
38.27
36.84
36.14
36.61
38.22
40.52
42.87
44.67
45.57
45.55
44.77
43.47
41.75
39.59
36.84
33.30
28.89
23.61
17.63
11.23
4.74
-1.58
-7.55
-13.22
-18.80
-24.67
-31.27
-38.98
-47.94
-57.82
-67.77
-76.31
-81.71
-82.35
-77.36
-66.90
-52.24
-35.37
-18.37
-2.88
10.18
20.54
28.34
33.84
37.26
38.85
38.94
38.06
36.89
36.07
36.07
37.04
38.79
40.91
42.84
44.13
44.49
43.89
42.49
40.49
38.04
35.12
31.59
27.26
22.05
16.02
9.45
2.75
-3.72
-9.74
-15.29
-20.57
-25.88
-31.65
-38.28
-46.06
-54.98
-64.50
-73.49
-80.37
-83.46
-81.54
-74.27
-62.35
-47.35
-31.17
-15.54
-1.70
9.70
18.44
24.51
28.02
29.20
28.56
26.84
24.95
23.76
23.76
24.93
26.80
28.70
30.05
30.62
30.53
30.09
29.60
29.13
28.48
27.24
24.98
21.41
16.49
10.48
3.87
-2.75
-8.92
-14.38
-19.28
-24.05
-29.34
-35.74
-43.57
-52.63
-62.05
-70.47
-76.21
-77.77
-74.25
-65.64
-52.85
-37.51
-21.46
-6.37
6.58
16.87
24.43
29.51
32.46
33.66
33.52
32.51
31.22
30.23
30.02
30.76
32.28
34.12
35.72
36.65
36.78
36.23
35.29
34.20
32.95
31.26
28.70
24.85
19.57
13.09
5.91
-1.33
-8.11
-14.19
-19.62
-24.72
-29.98
-35.90
-42.97
-51.40
-60.91
-70.63
-79.04
-84.29
-84.75
-79.50
-68.76
-53.81
-36.62
-19.27
-3.37
10.11
20.87
28.97
34.61
38.06
39.62
39.75
39.10
38.36
38.10
38.60
39.75
41.18
42.44
43.17
43.20
42.57
41.49
40.24
39.04
37.89
36.52
34.39
30.96
25.90
19.39
12.04
4.72
-1.89
-7.54
-12.50
-17.38
-22.82
-29.30
-37.00
-45.86
-55.53
-65.23
-73.77
-79.56
-81.05
-77.24
-68.06
-54.55
-38.53
-21.99
-6.60
6.62
17.28
25.42
31.26
35.05
37.10
37.80
37.66
37.20
36.89
37.02
37.68
38.72
39.90
40.91
41.45
41.34
40.53
39.12
37.32
35.32
33.17
30.69
27.56
23.43
18.14
11.86
4.97
-2.03
-8.77
-15.07
-20.98
-26.65
-32.29
-38.19
-44.67
-52.05
-60.44
-69.48
-78.17
-84.98
-88.20
-86.49
-79.36
-67.42
-52.20
-35.74
-19.99
-6.33
4.58
12.76
18.58
22.48
24.83
25.96
26.26
26.21
26.37
27.16
28.78
31.16
34.08
37.27
40.47
43.43
45.88
47.53
48.12
47.58
46.03
43.73
40.95
37.82
34.27
30.16
25.35
19.86
13.87
7.69
1.60
-4.20
-9.62
-14.68
-19.55
-24.52
-30.05
-36.65
-44.70
-54.16
-64.28
-73.58
-80.11
-82.03
-78.19
-68.55
-54.31
-37.48
-20.24
-4.40
8.95
19.45
27.22
32.54
35.76
37.26
37.51
37.16
36.83
37.02
37.93
39.42
41.17
42.79
44.03
44.85
45.29
45.41
45.15
44.34
42.77
40.31
37.01
33.08
28.82
24.43
19.88
15.02
9.66
3.77
-2.43
-8.57
-14.28
-19.38
-23.89
-28.08
-32.33
-37.10
-42.81
-49.72
-57.69
-66.01
-73.38
-78.12
-78.68
-74.12
-64.53
-50.98
-35.27
-19.31
-4.69
7.59
17.21
24.28
29.11
32.07
33.47
33.65
33.07
32.23
31.67
31.79
32.71
34.28
36.16
37.94
39.28
39.99
40.00
39.30
37.89
35.80
33.06
29.72
25.85
21.51
16.81
11.88
6.84
1.78
-3.28
-8.41
-13.63
-18.86
-23.95
-28.72
-33.16
-37.56
-42.43
-48.29
-55.31
-63.06
-70.39
-75.73
-77.49
-74.63
-67.00
-55.38
-41.26
-26.34
-12.11
0.43
10.77
18.77
24.40
27.73
28.87
28.20
26.38
24.27
22.70
22.27
23.18
25.22
27.91
30.63
32.81
34.07
34.25
33.46
31.95
30.02
27.81
25.30
22.27
18.45
13.74
8.25
2.30
-3.71
-9.49
-14.96
-20.20
-25.39
-30.72
-36.37
-42.48
-49.16
-56.37
-63.67
-70.09
-74.26
-74.66
-70.25
-60.91
-47.58
-31.99
-16.08
-1.44
10.99
20.90
28.32
33.42
36.36
37.38
36.85
35.35
33.60
32.26
31.79
32.40
33.95
36.14
38.52
40.63
42.09
42.65
42.22
40.76
38.35
35.14
31.34
27.20
22.91
18.44
13.62
8.23
2.14
-4.48
-11.21
-17.60
-23.36
-28.59
-33.68
-39.20
-45.61
-53.06
-61.33
-69.77
-77.41
-82.97
-85.15
-82.89
-75.71
-63.99
-48.89
-32.13
-15.52
-0.55
11.87
21.39
28.16
32.61
35.23
36.56
37.05
37.07
36.91
36.83
37.02
37.64
38.74
40.24
41.91
43.45
44.55
44.95
44.52
43.24
41.19
38.47
35.18
31.43
27.31
22.85
18.09
13.01
7.59
1.83
-4.19
-10.29
-16.22
-21.77
-26.89
-31.73
-36.67
-42.26
-48.90
-56.65
-65.00
-72.82
-78.54
-80.55
-77.72
-69.72
-57.26
-41.88
-25.52
-9.94
3.62
14.61
23.03
29.12
33.14
35.37
36.12
35.87
35.24
34.85
35.10
36.13
37.68
39.38
40.84
41.86
42.46
42.72
42.73
42.45
41.70
40.22
37.81
34.41
30.16
25.33
20.27
15.17
10.09
4.90
-0.53
-6.22
-12.00
-17.55
-22.56
-26.94
-30.91
-34.92
-39.56
-45.28
-52.19
-59.93
-67.60
-73.88
-77.26
-76.43
-70.68
-60.21
-46.13
-30.18
-14.20
0.34
12.61
22.34
29.56
34.37
36.89
37.36
36.32
34.57
32.95
32.10
32.22
33.15
34.53
36.08
37.63
39.09
40.33
41.11
41.11
40.13
38.14
35.30
31.85
28.04
23.99
19.78
15.39
10.81
6.07
1.20
-3.75
-8.73
-13.60
-18.29
-22.77
-27.13
-31.59
-36.46
-41.98
-48.19
-54.71
-60.75
-65.19
-66.86
-64.88
-58.93
-49.38
-37.20
-23.64
-10.01
2.61
13.44
22.00
28.07
31.67
32.98
32.45
30.64
28.27
25.98
24.29
23.51
23.64
24.48
25.67
26.79
27.53
27.68
27.18
26.09
24.46
22.36
19.75
16.55
12.71
8.31
3.51
-1.44
-6.25
-10.72
-14.76
-18.42
-21.88
-25.38
-29.11
-33.29
-38.03
-43.34
-49.04
-54.64
-59.37
-62.31
-62.56
-59.54
-53.18
-43.98
-32.83
-20.84
-9.03
1.77
10.95
18.13
23.01
25.51
25.81
24.38
21.94
19.35
17.38
16.46
16.67
17.71
19.12
20.43
21.39
21.94
22.17
22.15
21.79
20.86
19.08
16.25
12.36
7.66
2.52
-2.68
-7.62
-12.16
-16.33
-20.33
-24.50
-29.31
-35.09
-41.88
-49.22
-56.11
-61.25
-63.37
-61.63
-55.86
-46.62
-34.98
-22.22
-9.61
1.87
11.49
18.87
23.89
26.70
27.62
27.10
25.68
23.85
22.10
20.82
20.26
20.51
21.43
22.74
24.05
25.04
25.57
25.62
25.24
24.44
23.04
20.69
17.11
12.16
6.11
-0.48
-6.88
-12.53
-17.19
-21.09
-24.81
-29.03
-34.31
-40.87
-48.56
-56.82
-64.79
-71.32
-75.17
-75.24
-70.87
-62.07
-49.68
-35.11
-20.07
-6.05
5.92
15.37
22.35
27.16
30.18
31.80
32.38
32.27
31.85
31.46
31.41
31.87
32.83
34.10
35.37
36.29
36.69
36.54
35.98
35.15
34.03
32.36
29.73
25.76
20.36
13.85
6.84
0.05
-5.97
-11.07
-15.50
-19.82
-24.66
-30.54
-37.67
-45.90
-54.67
-63.04
-69.84
-73.76
-73.70
-69.04
-59.92
-47.25
-32.58
-17.63
-3.88
7.75
16.98
23.95
29.01
32.47
34.57
35.55
35.76
35.62
35.57
35.93
36.83
38.21
39.93
41.74
43.34
44.38
44.51
43.50
41.36
38.34
34.85
31.24
27.66
23.96
19.83
14.98
9.31
3.05
-3.37
-9.50
-15.04
-20.00
-24.69
-29.66
-35.44
-42.37
-50.43
-59.15
-67.58
-74.42
-78.20
-77.70
-72.25
-62.04
-48.17
-32.39
-16.62
-2.42
9.32
18.44
25.26
30.26
33.81
36.11
37.34
37.78
37.83
37.96
38.54
39.67
41.25
42.98
44.56
45.77
46.47
46.59
46.02
44.64
42.33
39.08
34.98
30.23
25.11
19.79
14.36
8.83
3.19
-2.45
-7.91
-12.98
-17.61
-21.93
-26.32
-31.26
-37.17
-44.18
-52.11
-60.33
-67.85
-73.41
-75.72
-73.81
-67.31
-56.63
-42.93
-27.77
-12.75
0.88
12.36
21.42
28.12
32.69
35.43
36.69
36.91
36.58
36.18
36.14
36.68
37.78
39.24
40.71
41.86
42.45
42.41
41.72
40.44
38.59
36.16
33.18
29.62
25.53
20.94
15.86
10.33
4.46
-1.62
-7.72
-13.62
-19.11
-24.07
-28.51
-32.67
-36.98
-42.05
-48.35
-55.98
-64.38
-72.30
-78.04
-79.95
-76.97
-68.96
-56.81
-42.08
-26.55
-11.81
1.07
11.52
19.43
24.90
28.23
29.83
30.18
29.84
29.30
29.00
29.18
29.90
31.05
32.42
33.74
34.76
35.26
35.09
34.20
32.63
30.46
27.76
24.54
20.75
16.30
11.15
5.41
-0.67
-6.73
-12.40
-17.46
-21.88
-25.85
-29.71
-33.90
-38.80
-44.73
-51.75
-59.54
-67.29
-73.72
-77.24
-76.40
-70.35
-59.18
-43.93
-26.40
-8.56
7.87
21.78
32.67
40.53
45.57
48.18
48.82
48.08
46.70
45.44
44.88
45.29
46.52
48.12
49.55
50.42
50.55
50.05
49.10
47.84
46.27
44.21
41.46
37.85
33.39
28.29
22.90
17.52
12.30
7.18
1.97
-3.54
-9.38
-15.37
-21.18
-26.54
-31.42
-36.08
-41.03
-46.79
-53.59
-61.17
-68.63
-74.62
-77.62
-76.40
-70.35
-59.77
-45.76
-29.94
-13.96
0.80
13.49
23.74
31.53
37.04
40.53
42.33
42.82
42.51
41.90
41.47
41.56
42.22
43.31
44.51
45.52
46.13
46.29
45.98
45.14
43.61
41.17
37.68
33.23
28.14
22.80
17.55
12.44
7.27
1.78
-4.15
-10.36
-16.52
-22.25
-27.38
-32.01
-36.49
-41.27
-46.76
-53.14
-60.31
-67.78
-74.57
-79.44
-81.05
-78.40
-71.17
-59.89
-45.79
-30.54
-15.75
-2.59
8.28
16.73
22.94
27.26
30.03
31.53
32.05
31.86
31.33
30.81
30.64
30.89
31.46
32.08
32.45
32.41
31.98
31.27
30.30
28.95
26.87
23.69
19.17
13.36
6.62
-0.50
-7.41
-13.65
-19.06
-23.81
-28.34
-33.29
-39.21
-46.37
-54.52
-62.82
-70.04
-74.80
-75.92
-72.78
-65.42
-54.62
-41.53
-27.50
-13.70
-0.96
10.17
19.40
26.54
31.50
34.34
35.36
35.08
34.19
33.27
32.73
32.68
33.00
33.47
33.93
34.25
34.41
34.41
34.21
33.67
32.49
30.32
26.88
22.11
16.28
9.90
3.56
-2.33
-7.66
-12.67
-17.78
-23.44
-30.09
-37.87
-46.62
-55.74
-64.12
-70.31
-72.87
-70.79
-63.84
-52.78
-39.02
-24.24
-9.96
2.78
13.41
21.72
27.70
31.41
33.08
33.11
32.11
30.80
29.79
29.43
29.68
30.25
30.76
30.99
30.91
30.66
30.41
30.18
29.79
28.90
27.14
24.23
20.11
14.94
9.01
2.70
-3.63
-9.73
-15.51
-21.08
-26.80
-33.07
-40.19
-48.13
-56.33
-63.71
-68.87
-70.42
-67.47
-59.86
-48.31
-34.19
-19.12
-4.62
8.21
18.74
26.72
32.19
35.36
36.62
36.52
35.72
34.88
34.49
34.76
35.57
36.58
37.37
37.65
37.26
36.31
34.99
33.44
31.71
29.59
26.73
22.78
17.58
11.26
4.33
-2.64
-9.11
-14.86
-20.06
-25.23
-30.97
-37.80
-45.87
-54.80
-63.60
-70.89
-75.16
-75.19
-70.48
-61.40
-49.08
-35.07
-20.85
-7.57
4.12
13.87
21.49
26.81
29.84
30.76
30.12
28.72
27.41
26.85
27.30
28.64
30.42
32.14
33.40
33.99
33.90
33.22
32.03
30.31
27.91
24.57
20.16
14.71
8.51
2.03
-4.31
-10.21
-15.66
-20.91
-26.31
-32.27
-39.05
-46.65
-54.71
-62.40
-68.51
-71.68
-70.74
-65.19
-55.35
-42.34
-27.77
-13.22
0.08
11.34
20.20
26.53
30.38
31.96
31.67
30.13
28.08
26.24
25.10
24.89
25.52
26.74
28.20
29.61
30.78
31.56
31.78
31.22
29.57
26.60
22.18
16.45
9.79
2.80
-4.00
-10.23
-15.83
-21.08
-26.51
-32.69
-40.02
-48.46
-57.39
-65.59
-71.47
-73.47
-70.56
-62.57
-50.38
-35.58
-20.06
-5.46
7.19
17.48
25.51
31.47
35.57
37.91
38.67
38.20
37.08
36.00
35.55
35.99
37.20
38.70
39.93
40.45
40.12
39.10
37.70
36.18
34.55
32.52
29.69
25.74
20.59
14.53
8.05
1.68
-4.20
-9.49
-14.35
-19.12
-24.25
-30.20
-37.32
-45.64
-54.71
-63.46
-70.36
-73.71
-72.21
-65.42
-53.97
-39.43
-23.80
-8.89
4.13
14.75
23.00
29.11
33.30
35.73
36.65
36.47
35.80
35.28
35.38
36.29
37.84
39.66
41.31
42.45
42.87
42.54
41.53
39.97
38.02
35.74
33.08
29.89
25.91
20.99
15.14
8.59
1.79
-4.75
-10.67
-15.89
-20.69
-25.60
-31.24
-38.04
-46.01
-54.66
-62.95
-69.50
-72.89
-71.99
-66.29
-56.09
-42.46
-27.02
-11.53
2.49
14.08
22.91
29.18
33.37
35.96
37.32
37.67
37.23
36.24
35.08
34.20
33.89
34.21
34.96
35.75
36.19
36.05
35.31
34.07
32.44
30.39
27.80
24.46
20.25
15.21
9.51
3.46
-2.66
-8.61
-14.29
-19.69
-24.94
-30.24
-35.87
-42.10
-49.04
-56.54
-64.06
-70.64
-75.08
-76.15
-73.01
-65.45
-54.05
-40.11
-25.28
-11.14
1.14
11.00
18.39
23.55
26.78
28.34
28.48
27.65
26.45
25.57
25.53
26.45
28.01
29.64
30.84
31.36
31.34
31.04
30.66
30.12
29.06
27.03
23.70
19.04
13.37
7.23
1.19
-4.38
-9.39
-14.09
-18.98
-24.55
-31.18
-38.87
-47.14
-55.00
-61.18
-64.32
-63.37
-57.91
-48.28
-35.61
-21.46
-7.52
4.89
14.99
22.56
27.72
30.78
32.03
31.81
30.55
28.87
27.42
26.73
26.99
27.99
29.25
30.25
30.70
30.58
30.06
29.29
28.25
26.71
24.33
20.83
16.14
10.44
4.13
-2.35
-8.63
-14.52
-20.03
-25.32
-30.75
-36.74
-43.72
-51.83
-60.75
-69.50
-76.60
-80.37
-79.49
-73.45
-62.74
-48.70
-33.08
-17.60
-3.56
8.29
17.66
24.58
29.22
31.85
32.81
32.58
31.75
30.99
30.89
31.75
33.55
35.83
37.93
39.22
39.34
38.36
36.63
34.66
32.69
30.68
28.24
24.92
20.40
14.72
8.21
1.45
-5.01
-10.87
-16.07
-20.90
-25.80
-31.34
-37.96
-45.82
-54.68
-63.75
-71.80
-77.37
-79.11
-76.17
-68.46
-56.69
-42.26
-26.82
-11.96
1.16
11.91
20.15
26.06
29.92
32.00
32.65
32.24
31.33
30.57
30.53
31.59
33.72
36.56
39.48
41.83
43.12
43.21
42.20
40.42
38.14
35.53
32.60
29.20
25.21
20.59
15.39
9.82
4.11
-1.48
-6.79
-11.76
-16.48
-21.22
-26.35
-32.32
-39.46
-47.77
-56.72
-65.23
-71.78
-74.80
-73.15
-66.46
-55.32
-41.07
-25.47
-10.18
3.54
14.96
23.82
30.19
34.32
36.52
37.24
36.94
36.16
35.41
35.14
35.64
36.97
38.92
41.08
42.95
44.06
44.18
43.27
41.52
39.16
36.40
33.37
30.05
26.38
22.26
17.58
12.33
6.52
0.31
-6.06
-12.30
-18.20
-23.65
-28.76
-33.88
-39.45
-45.90
-53.39
-61.60
-69.61
-76.01
-79.21
-77.91
-71.54
-60.52
-46.13
-30.19
-14.55
-0.64
10.72
19.35
25.44
29.40
31.70
32.78
33.10
33.11
33.25
33.85
35.05
36.80
38.86
40.89
42.55
43.59
43.87
43.41
42.33
40.79
38.90
36.61
33.78
30.19
25.72
20.41
14.48
8.25
2.03
-3.94
-9.53
-14.69
-19.46
-23.99
-28.57
-33.67
-39.74
-47.06
-55.40
-63.98
-71.46
-76.25
-76.98
-72.88
-64.02
-51.32
-36.34
-20.80
-6.23
6.30
16.29
23.69
28.74
31.79
33.25
33.59
33.27
32.78
32.51
32.73
33.55
34.96
36.83
38.98
41.19
43.16
44.55
45.06
44.50
42.89
40.40
37.31
33.88
30.21
26.28
21.96
17.15
11.92
6.43
0.98
-4.17
-8.84
-13.04
-16.93
-20.81
-25.08
-30.13
-36.20
-43.19
-50.49
-56.98
-61.25
-61.92
-58.14
-49.90
-38.07
-24.19
-9.98
3.08
14.03
22.47
28.43
32.12
33.84
33.87
32.57
30.43
28.02
25.96
24.71
24.45
25.08
26.21
27.36
28.09
28.18
27.61
26.50
25.01
23.20
21.04
18.37
15.08
11.10
6.48
1.35
-4.07
-9.55
-14.84
-19.76
-24.26
-28.45
-32.69
-37.44
-43.09
-49.71
-56.93
-63.86
-69.36
-72.20
-71.39
-66.49
-57.63
-45.63
-31.77
-17.57
-4.46
6.52
14.84
20.47
23.70
24.97
24.76
23.54
21.81
20.08
18.77
18.16
18.25
18.83
19.59
20.27
20.74
20.96
20.91
20.45
19.35
17.36
14.32
10.25
5.38
0.08
-5.33
-10.60
-15.72
-20.80
-26.08
-31.81
-38.13
-44.98
-52.00
-58.39
-63.07
-64.86
-62.85
-56.69
-46.81
-34.25
-20.46
-6.84
5.45
15.70
23.57
28.95
31.90
32.65
31.62
29.49
27.03
24.95
23.69
23.33
23.61
24.21
24.83
25.31
25.58
25.56
25.01
23.60
21.04
17.25
12.41
6.92
1.24
-4.29
-9.54
-14.62
-19.79
-25.33
-31.59
-38.79
-46.92
-55.53
-63.71
-70.09
-73.23
-72.00
-66.01
-55.78
-42.59
-28.12
-13.93
-1.19
9.46
17.80
23.86
27.77
29.77
30.19
29.55
28.44
27.39
26.81
26.81
27.29
28.01
28.79
29.53
30.21
30.77
31.07
30.82
29.67
27.31
23.59
18.56
12.53
5.92
-0.76
-7.12
-12.97
-18.45
-23.96
-30.05
-37.15
-45.28
-53.86
-61.64
-67.04
-68.62
-65.52
-57.83
-46.54
-33.20
-19.49
-6.73
4.27
13.18
19.98
24.72
27.48
28.42
27.88
26.39
24.65
23.31
22.83
23.31
24.57
26.24
27.99
29.61
31.10
32.48
33.68
34.44
34.34
32.93
29.91
25.27
19.33
12.67
5.93
-0.36
-5.96
-10.91
-15.56
-20.41
-25.98
-32.63
-40.35
-48.70
-56.68
-62.95
-66.09
-64.95
-59.05
-48.83
-35.54
-20.90
-6.62
6.02
16.43
24.54
30.62
34.99
37.86
39.36
39.70
39.25
38.56
38.16
38.41
39.35
40.72
42.07
42.98
43.15
42.44
40.90
38.71
36.03
33.04
29.80
26.28
22.31
17.73
12.44
6.53
0.27
-5.88
-11.55
-16.49
-20.77
-24.72
-28.87
-33.79
-39.95
-47.44
-55.90
-64.39
-71.51
-75.70
-75.71
-70.89
-61.54
-48.71
-34.01
-19.10
-5.36
6.32
15.57
22.38
27.02
29.85
31.30
31.80
31.79
31.66
31.76
32.32
33.47
35.10
37.01
38.87
40.35
41.22
41.31
40.61
39.16
37.04
34.32
31.08
27.41
23.43
19.25
14.99
10.66
6.21
1.53
-3.44
-8.68
-14.02
-19.25
-24.14
-28.67
-33.05
-37.70
-43.13
-49.68
-57.29
-65.30
-72.51
-77.38
-78.41
-74.67
-66.01
-53.30
-38.13
-22.39
-7.78
4.56
14.21
21.28
26.19
29.33
31.07
31.70
31.61
31.27
31.17
31.67
32.89
34.66
36.69
38.66
40.35
41.59
42.28
42.33
41.63
40.15
37.92
35.03
31.54
27.51
22.97
17.97
12.65
7.24
1.99
-2.90
-7.44
-11.71
-15.88
-20.11
-24.50
-29.15
-34.24
-39.96
-46.40
-53.31
-59.90
-64.93
-66.95
-64.80
-58.05
-47.22
-33.65
-19.12
-5.27
6.70
16.25
23.36
28.26
31.28
32.69
32.78
31.95
30.76
29.81
29.56
30.25
31.74
33.63
35.49
36.94
37.79
37.97
37.45
36.18
34.12
31.31
27.94
24.26
20.48
16.66
12.63
8.19
3.20
-2.26
-7.84
-13.14
-17.84
-21.93
-25.65
-29.41
-33.66
-38.78
-44.95
-52.09
-59.73
-67.00
-72.67
-75.39
-74.09
-68.32
-58.41
-45.41
-30.83
-16.21
-2.81
8.54
17.47
23.95
28.14
30.38
31.11
30.82
30.09
29.46
29.37
30.03
31.41
33.26
35.21
36.94
38.21
38.92
39.08
38.71
37.79
36.25
33.98
30.96
27.22
22.99
18.52
14.12
9.95
6.01
2.14
-1.92
-6.33
-11.09
-15.97
-20.65
-24.88
-28.67
-32.27
-36.14
-40.80
-46.58
-53.41
-60.72
-67.44
-72.14
-73.43
-70.33
-62.66
-51.11
-37.06
-22.25
-8.23
3.88
13.58
20.80
25.78
28.84
30.41
30.98
31.09
31.27
31.94
33.27
35.18
37.38
39.47
41.11
42.15
42.61
42.65
42.46
42.12
41.52
40.35
38.24
34.99
30.67
25.68
20.59
15.93
11.96
8.55
5.31
1.80
-2.29
-6.97
-11.94
-16.77
-21.11
-24.87
-28.22
-31.59
-35.49
-40.33
-46.23
-52.86
-59.49
-65.04
-68.33
-68.37
-64.62
-57.12
-46.53
-33.97
-20.70
-7.94
3.39
12.69
19.68
24.36
26.97
27.94
27.79
27.10
26.38
26.00
26.18
26.92
28.09
29.45
30.81
32.04
33.12
34.02
34.68
34.88
34.36
32.85
30.26
26.74
22.70
18.58
14.74
11.29
8.09
4.88
1.41
-2.39
-6.44
-10.47
-14.19
-17.39
-20.07
-22.49
-25.10
-28.45
-33.00
-38.85
-45.62
-52.47
-58.17
-61.43
-61.19
-56.98
-48.97
-38.05
-25.52
-12.80
-1.13
8.71
16.33
21.77
25.22
27.01
27.45
26.92
25.84
24.65
23.81
23.63
24.22
25.48
27.12
28.80
30.26
31.38
32.14
32.54
32.48
31.75
30.11
27.41
23.80
19.65
15.49
11.69
8.33
5.20
1.94
-1.77
-5.92
-10.29
-14.49
-18.21
-21.34
-24.06
-26.74
-29.87
-33.88
-39.04
-45.29
-52.14
-58.68
-63.69
-65.96
-64.57
-59.21
-50.27
-38.72
-25.88
-13.07
-1.39
8.43
16.03
21.37
24.62
26.14
26.39
25.92
25.25
24.80
24.82
25.30
26.13
27.14
28.20
29.27
30.35
31.39
32.21
32.54
32.13
30.83
28.71
25.92
22.69
19.16
15.43
11.51
7.46
3.35
-0.75
-4.80
-8.82
-12.86
-16.89
-20.81
-24.48
-27.85
-31.05
-34.41
-38.33
-43.06
-48.51
-54.06
-58.65
-61.05
-60.21
-55.56
-47.31
-36.32
-23.95
-11.57
-0.34
9.08
16.47
21.92
25.63
27.81
28.63
28.35
27.37
26.21
25.40
25.30
26.00
27.32
28.92
30.45
31.71
32.59
33.08
33.14
32.65
31.49
29.58
26.98
23.89
20.56
17.17
13.84
10.55
7.25
3.89
0.42
-3.19
-6.99
-10.95
-15.00
-19.01
-22.86
-26.55
-30.20
-34.11
-38.53
-43.53
-48.82
-53.74
-57.33
-58.62
-56.89
-51.85
-43.83
-33.65
-22.40
-11.21
-0.96
7.81
14.82
20.03
23.49
25.30
25.71
25.08
23.92
22.78
22.14
22.26
23.13
24.50
25.99
27.28
28.14
28.56
28.60
28.27
27.54
26.27
24.35
21.73
18.55
15.06
11.48
7.99
4.61
1.26
-2.11
-5.55
-8.99
-12.33
-15.46
-18.33
-20.95
-23.38
-25.84
-28.59
-31.94
-36.13
-41.09
-46.43
-51.38
-54.94
-56.09
-54.11
-48.76
-40.44
-29.99
-18.59
-7.37
2.71
11.02
17.26
21.38
23.53
24.01
23.29
21.93
20.50
19.49
19.16
19.54
20.49
21.78
23.19
24.59
25.87
26.92
27.64
27.89
27.52
26.48
24.74
22.39
19.60
16.56
13.40
10.15
6.78
3.22
-0.55
-4.41
-8.20
-11.73
-14.93
-17.87
-20.69
-23.63
-26.93
-30.76
-35.21
-40.18
-45.31
-49.89
-52.97
-53.60
-51.08
-45.22
-36.47
-25.81
-14.44
-3.54
6.03
13.87
19.89
24.23
27.04
28.44
28.61
27.85
26.61
25.44
24.77
24.83
25.56
26.70
27.94
29.00
29.70
29.94
29.64
28.74
27.19
24.96
22.04
18.56
14.67
10.72
7.04
3.88
1.25
-1.15
-3.75
-6.94
-10.75
-14.87
-18.77
-22.03
-24.54
-26.62
-28.81
-31.63
-35.35
-39.84
-44.64
-49.03
-52.20
-53.30
-51.68
-47.01
-39.46
-29.68
-18.72
-7.72
2.29
10.65
17.07
21.61
24.44
25.82
26.02
25.32
24.07
22.69
21.59
21.10
21.36
22.28
23.56
24.86
25.93
26.67
27.08
27.15
26.78
25.77
23.89
21.13
17.72
14.11
10.78
8.00
5.69
3.49
0.93
-2.31
-6.21
-10.47
-14.60
-18.17
-20.97
-23.09
-24.96
-27.14
-30.19
-34.43
-39.74
-45.51
-50.72
-54.15
-54.73
-51.89
-45.71
-36.88
-26.49
-15.69
-5.44
3.64
11.23
17.19
21.48
24.09
25.13
24.91
23.93
22.84
22.19
22.32
23.28
24.78
26.45
27.93
29.05
29.79
30.19
30.27
29.92
28.93
27.12
24.43
20.97
17.00
12.91
9.00
5.45
2.24
-0.78
-3.83
-7.09
-10.58
-14.12
-17.47
-20.39
-22.77
-24.81
-26.87
-29.45
-32.88
-37.21
-42.08
-46.81
-50.48
-52.16
-51.12
-46.96
-39.82
-30.27
-19.30
-8.01
2.53
11.56
18.65
23.71
26.87
28.34
28.46
27.62
26.32
25.00
23.99
23.47
23.37
23.58
23.95
24.37
24.81
25.24
25.56
25.63
25.28
24.28
22.50
19.89
16.54
12.60
8.29
3.83
-0.60
-4.84
-8.82
-12.48
-15.87
-19.06
-22.14
-25.19
-28.24
-31.33
-34.54
-37.95
-41.62
-45.40
-48.83
-51.14
-51.47
-49.17
-44.05
-36.48
-27.28
-17.46
-7.96
0.53
7.53
12.80
16.26
17.96
18.10
17.04
15.29
13.46
12.13
11.71
12.28
13.65
15.41
17.08
18.32
18.97
19.07
18.73
18.06
17.00
15.39
13.04
9.81
5.71
0.90
-4.30
-9.57
-14.64
-19.39
-23.87
-28.27
-32.84
-37.80
-43.24
-49.05
-54.86
-60.00
-63.66
-65.03
-63.57
-59.17
-52.17
-43.32
-33.50
-23.54
-14.06
-5.48
2.01
8.37
13.66
18.01
21.59
24.57
27.13
29.45
31.74
34.17
36.86
39.79
42.70
45.25
47.06
47.86
47.63
46.60
45.10
43.46
41.93
40.58
39.30
37.90
36.14
33.82
30.86
27.30
23.34
19.20
15.09
10.94
6.48
1.24
-5.20
-12.94
-21.58
-30.11
-37.20
-41.49
-42.06
-38.66
-31.79
-22.46
-11.95
-1.41
8.27
16.44
22.71
26.84
28.74
28.66
27.09
24.79
22.50
20.79
19.86
19.63
19.86
20.28
20.73
21.12
21.41
21.57
21.53
21.26
20.69
19.75
18.35
16.43
13.97
11.05
7.77
4.33
0.88
-2.44
-5.54
-8.40
-11.07
-13.74
-16.67
-20.21
-24.66
-30.14
-36.39
-42.70
-48.01
-51.11
-51.03
-47.32
-40.28
-30.81
-20.10
-9.32
0.64
9.17
15.88
20.48
22.81
22.91
21.15
18.21
14.94
12.09
10.11
9.04
8.69
8.78
9.18
9.94
11.19
12.96
15.05
17.05
18.42
18.74
17.75
15.48
12.06
7.71
2.67
-2.79
-8.37
-13.81
-18.95
-23.85
-28.76
-34.01
-39.83
-46.11
-52.39
-57.83
-61.46
-62.45
-60.36
-55.21
-47.51
-38.06
-27.78
-17.54
-8.09
-0.02
6.26
10.47
12.52
12.54
10.88
8.05
4.63
1.13
-2.15
-5.16
-8.08
-11.15
-14.59
-18.40
-22.44
-26.50
-30.45
-34.36
-38.52
-43.32
-49.09
-55.95
-63.72
-71.90
-79.82
-86.77
-92.28
-96.27
-99.15
-101.72
-104.84
-109.14
-114.64
-120.56
-125.44
-127.38
-124.47
-115.34
-99.55
-77.79
-51.77
-23.93
3.13
27.15
46.60
60.88
70.20
75.41
77.67
78.23
78.16
78.34
79.32
81.40
84.60
88.67
93.21
97.72
101.80
105.20
107.86
109.73
110.74
110.59
108.94
105.50
100.24
93.45
85.57
77.05
68.06
58.52
48.18
36.81
24.40
11.24
-2.02
-14.40
-24.64
-31.43
-33.64
-30.73
-22.99
-11.61
1.58
14.61
25.85
34.41
40.12
43.40
44.83
44.86
43.77
41.65
38.65
35.02
31.11
27.28
23.80
20.80
18.28
16.20
14.52
13.15
11.93
10.55
8.59
5.68
1.57
-3.66
-9.69
-16.02
-22.26
-28.24
-34.18
-40.58
-47.99
-56.66
-66.21
-75.56
-83.09
-87.04
-86.05
-79.64
-68.34
-53.59
-37.27
-21.28
-7.02
4.69
13.61
19.90
23.93
26.16
27.01
26.90
26.17
25.06
23.73
22.33
21.02
19.94
19.15
18.52
17.72
16.27
13.77
10.03
5.16
-0.45
-6.35
-12.20
-17.90
-23.56
-29.44
-35.96
-43.49
-52.29
-62.19
-72.44
-81.57
-87.67
-88.89
-84.06
-73.15
-57.38
-38.80
-19.72
-2.02
13.17
25.51
35.21
42.65
48.13
51.82
53.83
54.38
53.83
52.65
51.24
49.90
48.70
47.54
46.23
44.59
42.45
39.71
36.32
32.26
27.56
22.19
16.17
9.50
2.16
-5.93
-14.87
-24.74
-35.52
-46.85
-58.00
-67.71
-74.45
-76.74
-73.57
-64.79
-51.20
-34.39
-16.32
1.14
16.55
29.09
38.52
45.04
49.11
51.30
52.18
52.24
51.81
51.12
50.27
49.32
48.35
47.41
46.54
45.70
44.78
43.57
41.85
39.38
35.95
31.43
25.82
19.29
12.16
4.79
-2.59
-10.02
-17.86
-26.61
-36.65
-47.90
-59.63
-70.41
-78.39
-81.81
-79.45
-71.10
-57.62
-40.81
-22.85
-5.81
8.87
20.53
29.19
35.25
39.24
41.64
42.84
43.25
43.24
43.15
43.19
43.38
43.63
43.81
43.78
43.48
42.84
41.77
40.13
37.78
34.55
30.40
25.36
19.58
13.33
6.94
0.63
-5.57
-11.96
-19.10
-27.57
-37.60
-48.76
-59.74
-68.64
-73.48
-72.78
-66.12
-54.21
-38.71
-21.67
-4.95
10.10
22.81
33.05
40.96
46.73
50.57
52.64
53.26
52.88
52.13
51.59
51.64
52.25
53.00
53.29
52.64
51.00
48.67
46.16
43.86
41.79
39.53
36.47
32.11
26.30
19.34
11.79
4.28
-2.77
-9.28
-15.50
-21.87
-28.91
-37.00
-46.32
-56.66
-67.32
-77.06
-84.31
-87.41
-85.14
-77.19
-64.30
-48.15
-30.85
-14.31
0.16
12.06
21.46
28.73
34.19
38.07
40.53
41.77
42.16
42.14
42.12
42.36
42.88
43.57
44.24
44.73
44.98
44.90
44.43
43.44
41.79
39.37
36.20
32.36
28.02
23.30
18.24
12.86
7.15
1.21
-4.75
-10.49
-15.82
-20.76
-25.51
-30.52
-36.26
-43.18
-51.44
-60.81
-70.50
-79.10
-84.89
-86.18
-81.96
-72.25
-58.18
-41.68
-24.84
-9.37
3.74
14.23
22.30
28.30
32.58
35.45
37.18
38.13
38.63
39.04
39.58
40.37
41.40
42.56
43.67
44.62
45.30
45.67
45.67
45.17
43.96
41.84
38.72
34.74
30.32
25.96
22.02
18.60
15.35
11.74
7.27
1.73
-4.62
-11.20
-17.36
-22.74
-27.36
-31.69
-36.42
-42.25
-49.61
-58.47
-68.26
-77.78
-85.44
-89.48
-88.55
-82.04
-70.44
-55.22
-38.35
-21.83
-7.18
4.77
13.80
20.09
24.06
26.25
27.25
27.72
28.26
29.34
31.10
33.44
35.98
38.34
40.16
41.29
41.84
42.03
42.13
42.31
42.52
42.47
41.76
39.99
36.99
32.92
28.23
23.50
19.21
15.53
12.27
8.96
5.14
0.55
-4.69
-10.13
-15.23
-19.59
-23.19
-26.44
-30.01
-34.60
-40.73
-48.49
-57.45
-66.58
-74.44
-79.39
-80.02
-75.53
-66.07
-52.73
-37.27
-21.59
-7.25
4.78
14.20
21.17
26.06
29.28
31.18
32.11
32.43
32.53
32.76
33.38
34.50
36.07
37.89
39.72
41.34
42.60
43.43
43.79
43.66
42.96
41.57
39.36
36.28
32.47
28.22
23.92
19.92
16.40
13.29
10.28
6.98
3.09
-1.48
-6.56
-11.81
-16.82
-21.32
-25.23
-28.75
-32.32
-36.53
-41.90
-48.64
-56.44
-64.38
-71.13
-75.23
-75.52
-71.45
-63.25
-51.80
-38.45
-24.65
-11.65
-0.30
8.91
15.86
20.66
23.52
24.75
24.77
24.12
23.38
22.99
23.16
23.88
24.92
26.08
27.29
28.57
29.95
31.33
32.41
32.73
31.88
29.66
26.18
21.80
17.04
12.32
7.87
3.68
-0.50
-4.93
-9.76
-14.98
-20.38
-25.60
-30.27
-34.15
-37.20
-39.66
-42.04
-44.96
-48.94
-54.05
-59.75
-64.86
-67.81
-67.11
-61.86
-52.04
-38.57
-23.05
-7.31
7.05
18.94
27.85
33.78
37.05
38.16
37.69
36.27
34.52
32.99
32.06
31.93
32.53
33.63
34.93
36.16
37.14
37.82
38.24
38.43
38.37
37.93
36.94
35.19
32.59
29.15
25.08
20.66
16.21
11.88
7.67
3.39
-1.18
-6.12
-11.29
-16.31
-20.75
-24.34
-27.15
-29.58
-32.26
-35.74
-40.33
-45.94
-52.06
-57.88
-62.38
-64.54
-63.55
-59.02
-51.15
-40.66
-28.65
-16.35
-4.81
5.23
13.34
19.33
23.15
24.90
24.83
23.40
21.26
19.02
17.19
16.01
15.50
15.52
15.92
16.60
17.46
18.38
19.12
19.35
18.78
17.26
14.90
11.96
8.75
5.48
2.15
-1.40
-5.37
-9.85
-14.68
-19.54
-24.06
-27.96
-31.19
-33.92
-36.47
-39.20
-42.49
-46.60
-51.60
-57.19
-62.66
-66.92
-68.73
-67.08
-61.53
-52.46
-40.88
-28.17
-15.64
-4.20
5.63
13.67
19.89
24.27
26.78
27.50
26.73
24.96
22.87
21.06
19.94
19.60
19.87
20.50
21.22
21.92
22.48
22.85
22.93
22.57
21.66
20.12
17.90
14.96
11.28
6.86
1.89
-3.34
-8.42
-13.05
-17.14
-20.88
-24.65
-28.82
-33.71
-39.38
-45.64
-52.03
-57.78
-61.93
-63.52
-61.84
-56.60
-48.18
-37.42
-25.47
-13.49
-2.41
7.15
14.82
20.50
24.32
26.47
27.26
27.04
26.13
24.86
23.57
22.54
21.98
21.98
22.44
23.15
23.87
24.38
24.59
24.46
23.97
23.05
21.58
19.37
16.30
12.33
7.56
2.31
-3.05
-8.13
-12.71
-16.79
-20.62
-24.62
-29.23
-34.79
-41.37
-48.66
-55.89
-61.92
-65.44
-65.32
-61.01
-52.73
-41.50
-28.83
-16.28
-5.06
4.23
11.47
16.85
20.65
23.10
24.42
24.84
24.67
24.28
24.04
24.18
24.76
25.68
26.74
27.67
28.28
28.44
28.13
27.40
26.34
24.96
23.21
20.98
18.10
14.46
10.03
4.91
-0.67
-6.35
-11.77
-16.71
-21.10
-25.17
-29.30
-33.96
-39.57
-46.26
-53.76
-61.35
-67.90
-72.10
-72.82
-69.40
-61.93
-51.23
-38.62
-25.59
-13.36
-2.77
5.79
12.26
16.71
19.38
20.59
20.85
20.74
20.85
21.59
23.10
25.27
27.82
30.46
32.99
35.29
37.29
38.84
39.78
39.96
39.33
37.96
35.92
33.26
29.91
25.82
21.01
15.64
10.03
4.53
-0.56
-5.09
-9.06
-12.66
-16.21
-20.15
-24.90
-30.72
-37.48
-44.56
-50.88
-55.11
-56.12
-53.24
-46.54
-36.78
-25.19
-13.14
-1.80
8.00
15.89
21.81
25.87
28.24
29.16
28.95
28.05
27.07
26.60
27.14
28.88
31.67
35.08
38.50
41.33
43.10
43.58
42.80
41.01
38.57
35.80
32.89
29.87
26.68
23.22
19.55
15.80
12.16
8.76
5.58
2.48
-0.77
-4.34
-8.35
-12.83
-17.79
-23.06
-28.26
-32.71
-35.48
-35.62
-32.55
-26.25
-17.38
-7.04
3.52
13.28
21.58
28.03
32.47
34.80
35.02
33.38
30.43
26.97
23.82
21.62
20.62
20.68
21.47
22.57
23.69
24.63
25.29
25.52
25.23
24.27
22.58
20.17
17.09
13.42
9.26
4.74
0.01
-4.74
-9.37
-13.87
-18.40
-23.28
-28.94
-35.65
-43.43
-51.85
-60.08
-66.97
-71.30
-72.04
-68.69
-61.42
-51.07
-38.94
-26.45
-14.83
-4.91
2.92
8.53
12.00
13.52
13.41
12.16
10.38
8.68
7.55
7.17
7.51
8.34
9.38
10.39
11.20
11.74
11.92
11.67
10.87
9.35
6.88
3.33
-1.31
-6.82
-12.74
-18.57
-23.97
-28.86
-33.49
-38.30
-43.75
-50.18
-57.63
-65.76
-73.77
-80.48
-84.53
-84.71
-80.32
-71.50
-59.19
-44.92
-30.35
-16.90
-5.42
3.79
10.85
16.10
19.85
22.41
24.03
25.03
25.80
26.70
28.00
29.74
31.74
33.66
35.23
36.38
37.19
37.85
38.40
38.67
38.26
36.75
33.85
29.60
24.31
18.44
12.50
6.80
1.39
-3.92
-9.59
-16.15
-23.98
-33.05
-42.75
-51.88
-58.92
-62.41
-61.45
-55.90
-46.43
-34.23
-20.74
-7.23
5.30
16.26
25.33
32.48
37.78
41.43
43.71
44.94
45.52
45.81
46.16
46.73
47.46
48.09
48.28
47.79
46.57
44.85
42.92
40.98
38.95
36.46
33.05
28.33
22.30
15.28
7.86
0.57
-6.23
-12.57
-18.79
-25.40
-32.94
-41.64
-51.39
-61.53
-70.96
-78.28
-82.10
-81.48
-76.18
-66.79
-54.56
-41.02
-27.63
-15.44
-5.02
3.47
10.09
15.04
18.51
20.77
22.14
23.02
23.77
24.68
25.80
27.01
28.06
28.71
28.89
28.72
28.49
28.45
28.58
28.54
27.72
25.49
21.53
15.96
9.33
2.35
-4.32
-10.38
-15.95
-21.44
-27.44
-34.46
-42.70
-51.89
-61.21
-69.36
-74.84
-76.27
-72.85
-64.53
-52.12
-37.11
-21.25
-6.16
7.01
17.74
26.07
32.35
36.95
40.14
42.08
42.99
43.20
43.23
43.56
44.48
45.90
47.44
48.66
49.16
48.86
47.92
46.59
45.09
43.38
41.26
38.36
34.38
29.20
22.99
16.16
9.22
2.59
-3.53
-9.25
-14.83
-20.65
-27.09
-34.41
-42.71
-51.79
-61.04
-69.41
-75.55
-78.04
-75.84
-68.66
-57.08
-42.50
-26.73
-11.46
2.07
13.27
22.06
28.71
33.56
36.93
39.12
40.48
41.44
42.41
43.68
45.32
47.18
48.99
50.51
51.59
52.22
52.41
52.16
51.42
50.10
48.10
45.37
41.96
37.99
33.62
29.04
24.33
19.49
14.45
9.10
3.39
-2.56
-8.55
-14.35
-19.82
-25.07
-30.42
-36.33
-43.27
-51.41
-60.54
-69.88
-78.18
-83.88
-85.51
-82.17
-73.80
-61.30
-46.26
-30.47
-15.45
-2.17
9.05
18.21
25.45
30.89
34.63
36.87
38.03
38.68
39.41
40.67
42.58
44.97
47.48
49.70
51.33
52.26
52.57
52.37
51.79
50.82
49.34
47.21
44.35
40.84
36.89
32.83
28.89
25.25
21.88
18.59
15.13
11.23
6.75
1.68
-3.71
-9.09
-14.08
-18.53
-22.55
-26.54
-31.05
-36.63
-43.61
-51.96
-61.14
-70.10
-77.39
-81.46
-81.06
-75.66
-65.67
-52.33
-37.35
-22.41
-8.79
2.83
12.28
19.63
25.10
28.91
31.32
32.70
33.47
34.12
35.02
36.41
38.28
40.51
42.86
45.05
46.83
47.98
48.38
48.06
47.10
45.65
43.79
41.54
38.82
35.57
31.82
27.75
23.63
19.72
16.21
13.08
10.20
7.34
4.29
0.91
-2.82
-6.86
-11.13
-15.53
-19.97
-24.38
-28.81
-33.41
-38.47
-44.32
-51.15
-58.83
-66.70
-73.63
-78.22
-79.16
-75.69
-67.83
-56.43
-42.88
-28.74
-15.36
-3.63
6.02
13.57
19.19
23.12
25.65
27.13
27.95
28.50
29.16
30.17
31.67
33.61
35.83
38.09
40.12
41.69
42.67
43.03
42.78
42.01
40.77
39.06
36.89
34.25
31.16
27.68
23.90
19.96
16.01
12.22
8.69
5.40
2.19
-1.10
-4.57
-8.18
-11.78
-15.21
-18.41
-21.51
-24.73
-28.27
-32.31
-36.97
-42.31
-48.37
-55.02
-61.80
-67.91
-72.20
-73.56
-71.22
-65.01
-55.47
-43.68
-30.93
-18.42
-7.10
2.47
10.05
15.72
19.69
22.32
24.00
25.05
25.74
26.31
26.95
27.86
29.18
30.97
33.09
35.31
37.30
38.82
39.74
40.03
39.68
38.66
36.95
34.54
31.55
28.21
24.77
21.42
18.18
14.98
11.70
8.32
4.90
1.53
-1.75
-4.99
-8.34
-11.91
-15.72
-19.69
-23.63
-27.32
-30.62
-33.57
-36.44
-39.72
-43.95
-49.43
-55.99
-62.83
-68.67
-72.03
-71.80
-67.52
-59.50
-48.72
-36.52
-24.20
-12.86
-3.15
4.63
10.52
14.73
17.58
19.34
20.28
20.64
20.68
20.69
20.91
21.50
22.54
23.99
25.80
27.84
29.96
31.92
33.40
34.09
33.81
32.55
30.51
28.00
25.28
22.49
19.67
16.77
13.77
10.73
7.80
5.03
2.44
-0.07
-2.61
-5.28
-8.04
-10.80
-13.44
-15.92
-18.33
-20.84
-23.61
-26.77
-30.37
-34.43
-38.98
-44.09
-49.72
-55.59
-61.04
-65.08
-66.60
-64.72
-59.13
-50.22
-39.02
-26.84
-15.03
-4.53
4.09
10.73
15.51
18.66
20.44
21.12
21.04
20.60
20.23
20.30
21.00
22.29
23.92
25.62
27.20
28.61
29.91
31.08
32.04
32.56
32.40
31.39
29.53
26.92
23.79
20.35
16.83
13.41
10.21
7.30
4.68
2.28
0.00
-2.28
-4.67
-7.28
-10.14
-13.24
-16.45
-19.57
-22.43
-24.91
-27.14
-29.40
-32.08
-35.56
-39.98
-45.17
-50.53
-55.15
-57.97
-58.06
-54.90
-48.56
-39.68
-29.26
-18.34
-7.81
1.70
9.84
16.35
21.05
23.90
24.99
24.68
23.48
21.98
20.71
20.01
20.03
20.71
21.90
23.37
24.86
26.12
26.96
27.27
27.04
26.33
25.22
23.76
21.94
19.73
17.13
14.19
11.09
8.03
5.22
2.75
0.59
-1.43
-3.56
-5.99
-8.84
-12.06
-15.48
-18.83
-21.91
-24.56
-26.78
-28.76
-30.81
-33.28
-36.52
-40.70
-45.67
-50.92
-55.53
-58.37
-58.41
-55.03
-48.25
-38.81
-27.89
-16.79
-6.60
2.02
8.87
14.05
17.77
20.27
21.79
22.58
22.91
23.03
23.16
23.46
24.00
24.83
25.94
27.24
28.55
29.61
30.17
30.09
29.39
28.21
26.78
25.22
23.53
21.63
19.41
16.87
14.08
11.22
8.41
5.71
3.08
0.42
-2.38
-5.33
-8.39
-11.41
-14.21
-16.66
-18.76
-20.62
-22.48
-24.57
-27.08
-30.13
-33.71
-37.61
-41.42
-44.47
-45.90
-44.93
-41.06
-34.40
-25.61
-15.80
-6.11
2.56
9.74
15.30
19.31
21.84
22.98
22.84
21.70
19.97
18.13
16.58
15.54
15.04
15.00
15.30
15.84
16.49
17.14
17.63
17.80
17.50
16.62
15.09
12.86
9.95
6.53
2.86
-0.73
-4.00
-6.91
-9.59
-12.28
-15.23
-18.47
-21.90
-25.33
-28.59
-31.60
-34.44
-37.28
-40.31
-43.62
-47.14
-50.52
-53.15
-54.22
-52.94
-48.80
-41.79
-32.43
-21.71
-10.76
-0.59
8.12
15.14
20.57
24.68
27.74
29.97
31.45
32.29
32.60
32.54
32.32
32.11
32.06
32.30
32.93
34.00
35.47
37.15
38.71
39.76
39.93
38.93
36.64
33.10
28.45
22.91
16.74
10.29
3.98
-1.78
-6.67
-10.54
-13.53
-15.97
-18.35
-21.15
-24.66
-28.80
-33.13
-36.87
-39.12
-39.07
-36.37
-31.11
-23.91
-15.63
-7.18
0.71
7.58
13.12
17.13
19.46
20.10
19.24
17.36
15.12
13.19
12.04
11.82
12.39
13.40
14.51
15.45
16.07
16.28
16.12
15.59
14.70
13.41
11.63
9.28
6.36
2.96
-0.71
-4.38
-7.87
-11.13
-14.26
-17.39
-20.60
-23.91
-27.30
-30.79
-34.49
-38.47
-42.60
-46.45
-49.24
-50.08
-48.24
-43.49
-36.16
-27.12
-17.47
-8.22
-0.10
6.50
11.49
14.88
16.73
17.22
16.61
15.31
13.81
12.52
11.63
11.09
10.74
10.45
10.22
10.16
10.37
10.82
11.25
11.31
10.69
9.24
7.03
4.25
1.12
-2.18
-5.53
-8.91
-12.37
-16.10
-20.37
-25.41
-31.21
-37.39
-43.17
-47.51
-49.46
-48.37
-44.11
-37.04
-27.95
-17.84
-7.72
1.51
9.26
15.23
19.46
22.16
23.68
24.33
24.36
24.00
23.44
22.88
22.45
22.20
22.11
22.10
22.12
22.15
22.17
22.07
21.65
20.66
18.82
15.99
12.21
7.72
2.92
-1.77
-6.01
-9.63
-12.73
-15.66
-18.96
-23.17
-28.59
-35.04
-41.79
-47.70
-51.49
-52.17
-49.27
-43.04
-34.30
-24.15
-13.71
-3.89
4.72
11.75
17.09
20.71
22.77
23.60
23.63
23.39
23.35
23.80
24.79
26.15
27.55
28.66
29.23
29.18
28.58
27.63
26.52
25.37
24.14
22.64
20.62
17.85
14.27
10.03
5.39
0.64
-3.97
-8.32
-12.36
-16.15
-19.87
-23.81
-28.31
-33.66
-39.79
-46.21
-51.97
-55.94
-57.10
-54.88
-49.31
-41.00
-30.87
-19.96
-9.19
0.66
9.10
15.92
21.09
24.76
27.16
28.59
29.31
29.61
29.77
29.99
30.42
31.03
31.69
32.25
32.59
32.62
32.29
31.51
30.17
28.16
25.47
22.23
18.66
15.00
11.35
7.66
3.80
-0.36
-4.81
-9.37
-13.76
-17.74
-21.18
-24.18
-27.03
-30.17
-34.03
-38.93
-44.91
-51.56
-58.05
-63.22
-65.80
-64.80
-59.79
-51.02
-39.38
-26.09
-12.36
0.82
12.78
23.11
31.55
37.93
42.21
44.58
45.46
45.47
45.25
45.29
45.79
46.69
47.78
48.85
49.77
50.48
50.93
51.01
50.46
49.00
46.44
42.79
38.26
33.22
27.99
22.80
17.67
12.55
7.35
2.08
-3.16
-8.20
-12.90
-17.19
-21.09
-24.75
-28.42
-32.49
-37.42
-43.57
-50.96
-59.08
-66.84
-72.77
-75.48
-74.03
-68.33
-59.05
-47.44
-34.85
-22.51
-11.24
-1.52
6.48
12.76
17.43
20.66
22.67
23.72
24.05
23.95
23.67
23.49
23.58
24.06
24.87
25.86
26.79
27.35
27.23
26.14
23.85
20.28
15.58
10.05
4.17
-1.64
-7.07
-11.98
-16.41
-20.42
-24.11
-27.52
-30.69
-33.70
-36.68
-39.87
-43.52
-47.92
-53.28
-59.60
-66.50
-73.16
-78.41
-80.95
-79.67
-74.03
-64.16
-50.84
-35.30
-18.90
-2.90
11.75
24.41
34.78
42.80
48.61
52.48
54.79
56.05
56.78
57.44
58.39
59.75
61.44
63.28
65.05
66.63
67.99
69.09
69.87
70.12
69.54
67.81
64.72
60.31
54.82
48.74
42.61
36.80
31.45
26.38
21.27
15.79
9.80
3.38
-3.24
-9.83
-16.27
-22.65
-29.25
-36.40
-44.35
-53.08
-62.15
-70.65
-77.31
-80.80
-80.04
-74.57
-64.71
-51.48
-36.34
-20.87
-6.42
6.06
16.11
23.68
29.04
32.66
35.10
36.97
38.73
40.73
43.05
45.63
48.30
50.84
53.12
55.06
56.65
57.88
58.64
58.79
58.15
56.59
54.16
51.04
47.56
43.97
40.40
36.77
32.87
28.50
23.63
18.39
13.08
7.95
3.21
-1.12
-5.12
-9.02
-13.21
-18.14
-24.28
-31.74
-40.14
-48.41
-55.06
-58.63
-58.15
-53.52
-45.46
-35.29
-24.45
-14.14
-5.12
2.25
7.92
11.97
14.50
15.56
15.26
13.83
11.70
9.50
7.92
7.46
8.33
10.38
13.20
16.38
19.57
22.49
24.93
26.61
27.26
26.70
24.98
22.38
19.28
16.09
13.00
10.00
6.90
3.44
-0.58
-5.15
-10.10
-15.11
-19.85
-24.11
-27.94
-31.62
-35.59
-40.30
-46.01
-52.69
-59.85
-66.52
-71.43
-73.26
-71.07
-64.67
-54.76
-42.75
-30.32
-18.87
-9.23
-1.57
4.30
8.63
11.50
12.89
12.78
11.44
9.35
7.11
5.23
3.91
3.03
2.22
1.04
-0.87
-3.63
-7.09
-10.85
-14.35
-17.11
-18.90
-19.94
-20.87
-22.47
-25.39
-29.85
-35.66
-42.43
-49.90
-58.25
-68.09
-80.25
-95.42
-113.89
-135.36
-158.96
-183.30
-206.47
-226.12
-239.71
-244.97
-240.53
-226.42
-204.27
-177.00
-148.14
-121.04
-98.11
-80.54
-68.30
-60.56
-56.12
-53.73
-52.36
-51.03
-48.81
-44.86
-38.65
-30.34
-20.76
-11.16
-2.59
4.58
10.68
16.20
20.98
23.87
23.07
17.10
5.86
-9.01
-24.62
-38.09
-47.68
-53.26
-56.06
-57.69
-59.52
-62.29
-66.25
-71.45
-77.77
-84.81
-91.73
-97.35
-100.46
-100.19
-96.36
-89.39
-80.11
-69.47
-58.23
-46.89
-35.74
-24.87
-14.18
-3.51
7.29
18.18
28.94
39.20
48.63
57.10
64.70
71.69
78.33
84.80
91.12
97.24
102.97
108.13
112.48
115.81
117.97
118.85
118.40
116.59
113.43
108.99
103.51
97.37
91.01
84.74
78.53
71.99
64.42
55.23
44.21
31.80
19.03
7.36
-1.83
-7.50
-9.23
-7.15
-1.79
6.05
15.55
25.87
36.23
45.92
54.48
61.68
67.52
72.20
75.92
78.90
81.26
83.14
84.75
86.39
88.34
90.77
93.63
96.69
99.62
102.14
104.08
105.39
106.04
105.93
104.85
102.57
98.98
94.17
88.48
82.32
76.07
69.94
63.96
58.04
52.02
45.72
38.89
31.24
22.47
12.55
1.85
-8.74
-17.92
-24.34
-27.01
-25.63
-20.60
-12.93
-3.76
5.86
15.23
23.98
31.91
38.89
44.79
49.53
53.17
56.02
58.50
61.06
63.97
67.26
70.71
73.97
76.73
78.83
80.26
81.07
81.35
81.10
80.28
78.85
76.76
74.02
70.65
66.69
62.21
57.31
52.14
46.83
41.52
36.26
31.04
25.78
20.35
14.58
8.30
1.42
-6.12
-14.14
-22.22
-29.65
-35.61
-39.31
-40.27
-38.47
-34.31
-28.50
-21.76
-14.71
-7.77
-1.22
4.69
9.74
13.77
16.78
18.97
20.72
22.44
24.46
26.92
29.78
32.86
35.91
38.69
40.96
42.57
43.42
43.56
43.11
42.24
41.09
39.75
38.22
36.46
34.43
32.10
29.49
26.61
23.49
20.15
16.58
12.75
8.60
4.05
-1.02
-6.71
-13.04
-19.90
-26.98
-33.76
-39.64
-43.99
-46.29
-46.30
-44.01
-39.76
-34.08
-27.61
-21.03
-14.85
-9.40
-4.79
-0.98
2.16
4.75
6.86
8.58
10.01
11.33
12.73
14.34
16.20
18.22
20.19
21.94
23.33
24.33
24.97
25.29
25.23
24.67
23.47
21.55
18.98
15.93
12.67
9.43
6.28
3.18
-0.03
-3.53
-7.44
-11.78
-16.45
-21.23
-25.81
-29.81
-32.84
-34.52
-34.56
-32.85
-29.45
-24.61
-18.74
-12.32
-5.82
0.39
6.03
10.94
15.07
18.46
21.26
23.73
26.20
28.96
32.22
35.96
39.97
43.92
47.43
50.26
52.28
53.51
54.09
54.20
54.07
53.78
53.22
51.95
49.31
44.60
37.46
28.04
17.11
5.71
-5.19
-15.04
-23.73
-31.49
-38.61
-45.23
-51.37
-56.99
-62.08
-66.51
-70.02
-72.02
-71.79
-68.74
-62.71
-54.15
-44.07
-33.70
-24.14
-16.15
-10.04
-5.79
-3.17
-1.95
-1.91
-2.84
-4.49
-6.53
-8.57
-10.27
-11.39
-11.91
-11.96
-11.77
-11.58
-11.51
-11.61
-11.87
-12.28
-12.87
-13.68
-14.73
-15.96
-17.21
-18.34
-19.29
-20.10
-21.02
-22.41
-24.72
-28.29
-33.30
-39.62
-46.85
-54.30
-61.17
-66.60
-69.88
-70.54
-68.52
-64.19
-58.23
-51.48
-44.67
-38.31
-32.65
-27.81
-23.87
-20.92
-19.00
-18.06
-17.86
-18.07
-18.31
-18.33
-18.05
-17.57
-17.13
-17.01
-17.55
-18.94
-21.28
-24.48
-28.32
-32.50
-36.74
-40.77
-44.29
-47.08
-48.99
-50.02
-50.40
-50.48
-50.63
-51.11
-52.01
-53.29
-54.89
-56.91
-59.51
-62.87
-66.92
-71.24
-75.04
-77.30
-77.03
-73.52
-66.47
-56.08
-43.01
-28.23
-12.80
2.28
16.30
28.83
39.83
49.57
58.57
67.50
76.93
87.10
97.78
108.20
117.28
123.93
127.45
127.73
125.24
120.81
115.35
109.63
104.21
99.42
95.47
92.41
90.12
88.25
86.28
83.59
79.75
74.57
68.20
61.04
53.58
46.22
39.22
32.61
26.34
20.25
14.22
8.21
2.33
-3.13
-7.79
-11.26
-13.26
-13.78
-13.02
-11.32
-9.07
-6.60
-4.15
-1.90
0.04
1.59
2.75
3.56
4.12
4.54
4.90
5.27
5.66
6.09
6.59
7.16
7.78
8.39
8.91
9.29
9.49
9.52
9.39
9.03
8.39
7.36
5.94
4.19
2.31
0.50
-1.11
-2.53
-3.90
-5.41
-7.19
-9.26
-11.51
-13.86
-16.30
-18.95
-21.88
-25.02
-28.05
-30.49
-31.76
-31.50
-29.65
-26.48
-22.46
-18.12
-13.88
-10.06
-6.85
-4.36
-2.64
-1.67
-1.28
-1.28
-1.42
-1.48
-1.32
-0.90
-0.25
0.59
1.53
2.46
3.28
3.87
4.16
4.13
3.83
3.35
2.80
2.27
1.77
1.23
0.54
-0.47
-1.87
-3.68
-5.77
-7.98
-10.14
-12.11
-13.89
-15.59
-17.41
-19.58
-22.23
-25.36
-28.72
-31.85
-34.18
-35.25
-34.82
-32.90
-29.75
-25.75
-21.27
-16.67
-12.24
-8.27
-4.96
-2.39
-0.53
0.78
1.72
2.45
3.10
3.81
4.69
5.84
7.28
8.93
10.57
11.98
12.97
13.46
13.50
13.21
12.71
12.04
11.16
10.00
8.47
6.53
4.19
1.57
-1.18
-3.91
-6.54
-9.07
-11.53
-13.92
-16.26
-18.56
-20.97
-23.67
-26.82
-30.42
-34.16
-37.45
-39.63
-40.14
-38.74
-35.62
-31.28
-26.36
-21.45
-16.95
-13.04
-9.71
-6.85
-4.34
-2.14
-0.29
1.17
2.22
3.00
3.72
4.59
5.72
7.06
8.45
9.70
10.70
11.45
12.00
12.38
12.52
12.29
11.61
10.49
9.05
7.48
5.97
4.59
3.31
2.01
0.57
-1.05
-2.80
-4.55
-6.24
-7.89
-9.66
-11.78
-14.38
-17.46
-20.77
-23.95
-26.59
-28.28
-28.75
-27.80
-25.35
-21.55
-16.75
-11.55
-6.60
-2.48
0.50
2.38
3.45
4.16
4.92
5.97
7.40
9.16
11.18
13.42
15.93
18.84
22.27
26.25
30.69
35.37
40.05
44.53
48.70
52.56
56.17
59.65
63.18
66.94
71.03
75.39
79.77
83.75
86.85
88.65
88.89
87.49
84.50
79.99
74.00
66.50
57.35
46.51
34.12
20.75
7.33
-4.94
-14.91
-21.82
-25.54
-26.53
-25.60
-23.65
-21.39
-19.32
-17.69
-16.62
-16.16
-16.23
-16.67
-17.26
-17.72
-17.86
-17.55
-16.78
-15.61
-14.17
-12.65
-11.24
-10.15
-9.52
-9.40
-9.76
-10.49
-11.51
-12.68
-13.91
-15.10
-16.18
-17.11
-17.92
-18.72
-19.62
-20.78
-22.26
-24.03
-26.01
-28.10
-30.19
-32.22
-34.14
-35.97
-37.82
-39.89
-42.37
-45.39
-48.78
-51.99
-54.23
-54.66
-52.72
-48.40
-42.22
-35.09
-27.97
-21.64
-16.45
-12.44
-9.48
-7.40
-6.05
-5.29
-4.99
-4.98
-5.08
-5.14
-5.16
-5.15
-5.15
-5.13
-5.04
-4.80
-4.38
-3.86
-3.38
-3.13
-3.21
-3.68
-4.48
-5.51
-6.67
-7.94
-9.30
-10.79
-12.39
-14.04
-15.65
-17.13
-18.47
-19.70
-20.92
-22.25
-23.80
-25.70
-28.07
-30.91
-34.07
-37.11
-39.37
-40.14
-38.96
-35.71
-30.79
-24.91
-18.79
-13.00
-7.86
-3.49
0.03
2.57
3.98
4.27
3.64
2.59
1.69
1.47
