1520269042.00
64.000000
-0.00
-0.00
-0.00
-0.00
-0.00
-0.00
-0.00
-0.00
-0.00
-0.00
0.00
0.01
0.01
-0.00
-0.03
-0.05
-0.05
0.00
0.13
0.36
0.66
1.01
1.37
1.72
2.06
2.40
2.79
3.24
3.80
4.42
5.06
5.66
6.20
6.68
7.15
7.68
8.31
9.14
10.09
11.04
11.88
12.56
13.14
13.76
14.65
15.96
17.91
20.32
22.90
25.38
27.58
29.57
31.68
34.32
37.81
42.54
48.15
54.10
59.83
64.97
69.58
74.14
79.34
85.71
93.76
103.00
112.62
121.73
129.77
136.75
143.30
150.75
157.77
166.64
177.95
191.79
206.97
220.57
228.25
225.36
208.53
176.87
132.76
80.05
23.07
-34.95
-92.44
-149.16
-205.23
-260.36
-313.71
-363.84
-409.81
-450.93
-486.60
-515.94
-537.53
-549.60
-550.39
-538.80
-514.63
-479.09
-434.33
-382.97
-327.64
-270.56
-213.42
-157.45
-103.72
-53.10
-6.63
34.77
70.43
100.11
124.02
142.74
157.02
167.53
174.83
179.16
180.72
179.71
176.48
171.56
165.52
158.89
151.96
144.79
137.22
129.12
120.45
111.42
102.43
93.92
86.17
79.17
72.60
66.02
59.03
51.53
43.79
36.33
29.65
24.07
19.56
15.77
12.18
8.36
3.91
-1.45
-7.70
-14.38
-20.27
-23.53
-22.30
-15.50
-3.60
11.34
26.25
38.24
45.60
48.25
47.42
44.78
41.68
38.73
35.94
33.02
29.91
26.71
23.69
21.06
18.83
16.82
14.69
12.31
9.94
8.21
7.76
8.85
10.99
13.09
13.89
12.65
9.48
5.33
1.39
-1.43
-2.89
-3.31
-3.26
-3.19
-3.23
-3.28
-3.22
-3.04
-2.90
-3.00
-3.45
-4.31
-5.35
-6.22
-6.51
-5.96
-4.52
-2.50
-0.41
1.22
2.09
2.25
1.97
1.62
1.42
1.45
1.63
1.82
1.98
2.11
2.31
2.62
3.05
3.53
4.02
4.52
5.13
6.01
7.21
8.69
10.25
11.69
12.82
13.61
14.09
14.22
13.94
13.06
11.52
9.40
7.00
4.50
2.04
-0.41
-2.93
-5.51
-8.00
-10.06
-11.43
-11.99
-11.87
-11.34
-10.68
-10.09
-9.65
-9.33
-9.10
-8.94
-8.85
-8.82
-8.83
-8.85
-8.84
-8.73
-8.45
-7.90
-7.10
-6.15
-5.24
-4.56
-4.22
-4.15
-4.14
-3.92
-3.33
-2.41
-1.38
-0.59
-0.26
-0.46
-1.03
-1.65
-2.05
-2.10
-1.82
-1.39
-0.98
-0.67
-0.48
-0.34
-0.22
-0.05
0.24
0.78
1.75
3.31
5.49
8.10
10.79
13.16
14.94
16.04
16.60
16.83
16.89
16.88
16.77
16.42
15.66
14.43
12.78
10.87
8.95
7.19
5.70
4.43
3.30
2.28
1.39
0.72
0.31
0.04
-0.32
-1.07
-2.42
-4.38
-6.73
-9.13
-11.28
-13.00
-14.28
-15.21
-15.91
-16.50
-17.03
-17.56
-18.14
-18.84
-19.71
-20.71
-21.74
-22.58
-22.91
-22.43
-20.89
-18.27
-14.74
-10.67
-6.53
-2.76
0.38
2.84
4.76
6.36
7.86
9.34
10.78
12.05
13.07
13.80
14.30
14.70
15.12
15.62
16.19
16.71
17.06
17.13
16.90
16.41
15.72
14.87
13.83
12.55
10.99
9.21
7.35
5.60
4.09
2.80
1.58
0.25
-1.30
-3.01
-4.74
-6.28
-7.56
-8.59
-9.52
-10.52
-11.76
-13.28
-14.98
-16.63
-17.96
-18.65
-18.50
-17.46
-15.66
-13.35
-10.81
-8.26
-5.89
-3.79
-2.07
-0.84
-0.18
-0.17
-0.77
-1.92
-3.50
-5.41
-7.59
-10.05
-12.81
-15.90
-19.27
-22.75
-26.13
-29.22
-31.93
-34.39
-36.91
-39.83
-43.36
-47.40
-51.54
-55.18
-57.70
-58.76
-58.39
-56.96
-55.06
-53.26
-51.94
-51.20
-50.85
-50.42
-49.15
-46.07
-40.18
-30.84
-18.19
-3.35
11.70
24.75
34.05
38.98
40.15
39.00
37.14
35.64
34.84
34.49
34.23
33.92
33.67
33.71
34.05
34.35
34.03
32.56
29.77
25.98
21.97
18.67
16.79
16.58
17.74
19.58
21.32
22.41
22.64
22.18
21.36
20.48
19.65
18.86
18.04
17.21
16.55
16.27
16.50
17.09
17.59
17.43
16.09
13.38
9.56
5.24
1.22
-1.79
-3.41
-3.66
-2.83
-1.41
0.21
1.71
2.92
3.72
4.04
3.88
3.29
2.48
1.70
1.18
1.01
1.13
1.36
1.51
1.52
1.45
1.44
1.61
1.94
2.32
2.57
2.58
2.32
1.85
1.28
0.67
-0.00
-0.79
-1.78
-2.98
-4.32
-5.71
-7.04
-8.31
-9.63
-11.14
-12.86
-14.65
-16.13
-16.85
-16.44
-14.79
-12.11
-8.79
-5.28
-1.90
1.15
3.83
6.12
8.03
9.50
10.50
11.00
11.06
10.78
10.35
9.94
9.68
9.61
9.65
9.65
9.42
8.80
7.71
6.15
4.23
2.07
-0.13
-2.23
-4.07
-5.57
-6.79
-7.85
-9.10
-10.98
-14.06
-18.79
-25.25
-33.02
-41.16
-48.47
-53.78
-56.25
-55.42
-51.11
-43.30
-32.13
-18.15
-2.47
13.25
27.18
37.85
44.54
47.45
47.38
45.33
42.17
38.55
34.91
31.71
29.36
28.18
28.20
29.04
30.00
30.22
29.03
26.28
22.40
18.32
15.09
13.38
13.21
13.93
14.51
14.13
12.44
9.73
6.69
4.04
2.22
1.36
1.30
1.76
2.42
3.03
3.35
3.23
2.63
1.70
0.81
0.49
1.29
3.53
7.01
10.92
14.05
15.17
13.58
9.41
3.64
-2.30
-7.17
-10.38
-12.10
-13.04
-13.99
-15.41
-17.31
-19.44
-21.47
-23.22
-24.67
-25.80
-26.47
-26.43
-25.34
-23.03
-19.61
-15.55
-11.53
-8.26
-6.16
-5.27
-5.23
-5.55
-5.78
-5.73
-5.44
-5.05
-4.63
-4.07
-3.16
-1.69
0.46
3.29
6.68
10.46
14.35
17.98
20.94
22.86
23.62
23.39
22.66
21.97
21.70
21.91
22.35
22.65
22.50
21.82
20.70
19.34
17.89
16.48
15.21
14.20
13.53
13.18
12.97
12.57
11.69
10.20
8.24
6.07
3.90
1.69
-0.82
-3.90
-7.54
-11.34
-14.55
-16.46
-16.65
-15.19
-12.55
-9.37
-6.20
-3.35
-0.93
1.00
2.34
2.90
2.52
1.15
-1.04
-3.67
-6.27
-8.36
-9.66
-10.08
-9.76
-8.98
-7.99
-6.96
-5.85
-4.52
-2.82
-0.66
1.95
4.97
8.44
12.46
17.11
22.15
26.91
30.34
31.40
29.50
24.82
18.35
11.53
5.75
1.92
0.28
0.49
1.95
3.96
5.94
7.43
8.08
7.62
5.97
3.30
0.10
-2.91
-5.00
-5.67
-4.91
-3.09
-0.86
1.30
3.17
4.90
6.68
8.56
10.21
11.15
10.93
9.38
6.63
3.01
-1.08
-5.19
-8.78
-11.14
-11.61
-9.75
-5.69
-0.14
5.76
10.88
14.40
16.07
16.08
14.82
12.69
9.97
6.83
3.48
0.15
-2.91
-5.51
-7.57
-9.11
-10.25
-11.13
-11.96
-12.90
-14.12
-15.66
-17.46
-19.29
-20.78
-21.60
-21.53
-20.61
-19.12
-17.46
-15.98
-14.88
-14.24
-14.05
-14.36
-15.18
-16.38
-17.54
-18.01
-17.09
-14.35
-9.93
-4.45
1.17
6.17
10.15
13.14
15.36
16.96
17.87
17.90
16.95
15.16
12.94
10.75
8.94
7.60
6.57
5.60
4.48
3.20
1.78
0.31
-1.26
-3.02
-5.04
-7.28
-9.58
-11.71
-13.47
-14.77
-15.61
-16.05
-16.09
-15.64
-14.64
-13.08
-11.08
-8.89
-6.79
-5.00
-3.67
-2.83
-2.46
-2.50
-2.83
-3.33
-3.87
-4.38
-4.93
-5.72
-7.00
-8.90
-11.37
-14.02
-16.23
-17.30
-16.68
-14.18
-10.06
-5.04
-0.10
3.68
5.46
4.86
2.10
-2.09
-6.64
-10.48
-12.86
-13.47
-12.49
-10.39
-7.87
-5.56
-4.03
-3.66
-4.52
-6.31
-8.40
-9.97
-10.29
-9.03
-6.37
-2.88
0.75
3.95
6.50
8.43
9.92
11.10
12.06
12.80
13.33
13.66
13.79
13.73
13.40
12.76
11.77
10.39
8.56
6.17
3.23
-0.07
-3.31
-5.89
-7.18
-6.85
-5.00
-2.12
1.11
4.12
6.63
8.73
10.65
12.62
14.67
16.61
18.10
18.74
18.21
16.35
13.22
9.05
4.25
-0.67
-5.25
-9.03
-11.67
-12.88
-12.52
-10.61
-7.47
-3.69
-0.09
2.50
3.46
2.62
0.27
-2.86
-5.95
-8.28
-9.56
-9.84
-9.48
-8.87
-8.21
-7.49
-6.55
-5.29
-3.74
-2.10
-0.61
0.59
1.55
2.51
3.71
5.34
7.38
9.64
11.80
13.49
14.38
14.22
12.92
10.58
7.42
3.76
-0.15
-4.12
-8.03
-11.81
-15.40
-18.73
-21.69
-24.16
-26.00
-27.01
-27.02
-25.97
-24.00
-21.40
-18.59
-15.93
-13.61
-11.59
-9.71
-7.79
-5.78
-3.76
-1.91
-0.42
0.61
1.23
1.61
1.98
2.50
3.23
4.11
4.97
5.65
6.08
6.34
6.57
6.90
7.40
8.02
8.65
9.17
9.47
9.51
9.29
8.84
8.21
7.46
6.58
5.56
4.38
3.02
1.52
-0.04
-1.59
-3.00
-4.16
-4.93
-5.19
-4.88
-4.02
-2.73
-1.18
0.47
2.12
3.69
5.12
6.28
7.03
7.26
7.00
6.40
5.67
5.01
4.49
4.08
3.64
3.07
2.32
1.41
0.46
-0.41
-1.08
-1.55
-1.88
-2.25
-2.85
-3.88
-5.41
-7.42
-9.73
-12.12
-14.34
-16.21
-17.62
-18.56
-19.12
-19.46
-19.84
-20.57
-22.01
-24.36
-27.56
-31.22
-34.61
-36.91
-37.48
-36.09
-32.96
-28.68
-23.92
-19.32
-15.30
-12.15
-10.03
-8.98
-8.91
-9.55
-10.47
-11.22
-11.43
-10.94
-9.84
-8.36
-6.81
-5.46
-4.51
-4.03
-3.97
-4.17
-4.41
-4.47
-4.28
-3.91
-3.52
-3.34
-3.44
-3.79
-4.30
-4.90
-5.52
-6.02
-6.03
-5.04
-2.59
1.37
6.34
11.42
15.65
18.60
20.43
21.84
23.59
26.13
29.40
33.08
36.83
40.52
44.22
47.97
51.58
54.60
56.47
56.74
55.30
52.43
48.68
44.67
40.86
37.40
34.18
30.97
27.52
23.79
19.90
16.08
12.58
9.53
6.96
4.80
2.96
1.40
0.10
-0.98
-1.87
-2.67
-3.47
-4.35
-5.30
-6.25
-7.06
-7.58
-7.77
-7.70
-7.56
-7.59
-7.97
-8.73
-9.73
-10.71
-11.38
-11.54
-11.08
-10.07
-8.66
-7.03
-5.35
-3.72
-2.25
-1.00
-0.02
0.67
1.09
1.31
1.50
1.82
2.41
3.32
4.49
5.73
6.84
7.65
8.10
8.21
8.09
7.87
7.63
7.40
7.12
6.69
5.98
4.95
3.60
2.01
0.32
-1.35
-2.91
-4.35
-5.73
-7.15
-8.67
-10.30
-11.98
-13.57
-14.90
-15.80
-16.10
-15.70
-14.54
-12.65
-10.16
-7.29
-4.30
-1.42
1.20
3.56
5.72
7.69
9.44
10.78
11.53
11.57
10.91
9.68
8.11
6.46
4.92
3.64
2.69
2.09
1.81
1.80
2.00
2.37
2.83
3.29
3.59
3.57
3.15
2.33
1.23
0.02
-1.19
-2.42
-3.72
-5.14
-6.55
-7.75
-8.46
-8.44
-7.57
-5.82
-3.26
0.02
3.82
7.78
11.49
14.51
16.65
18.01
18.95
19.90
21.11
22.50
23.71
24.37
24.27
23.51
22.38
21.24
20.35
19.81
19.61
19.77
20.26
21.02
21.78
22.20
21.91
20.72
18.75
16.34
13.86
11.50
9.10
6.26
2.54
-2.21
-7.77
-13.48
-18.58
-22.41
-24.70
-25.60
-25.58
-25.26
-25.03
-24.90
-24.47
-23.14
-20.47
-16.54
-12.02
-7.94
-5.28
-4.45
-5.11
-6.32
-7.01
-6.43
-4.30
-0.75
3.99
9.72
16.20
22.84
28.65
32.31
32.72
29.58
23.59
16.24
9.17
3.47
-0.70
-3.90
-7.00
-10.53
-14.48
-18.34
-21.49
-23.53
-24.41
-24.33
-23.55
-22.25
-20.50
-18.35
-15.90
-13.34
-10.85
-8.50
-6.23
-3.90
-1.43
1.17
3.71
5.91
7.49
8.23
8.07
7.10
5.55
3.74
1.96
0.40
-0.93
-2.17
-3.53
-5.16
-7.09
-9.19
-11.22
-12.96
-14.26
-15.12
-15.64
-16.00
-16.34
-16.73
-17.15
-17.52
-17.70
-17.53
-16.88
-15.64
-13.73
-11.21
-8.20
-4.97
-1.83
0.91
3.08
4.64
5.72
6.52
7.25
7.99
8.75
9.47
10.06
10.46
10.66
10.62
10.34
9.80
9.03
8.09
7.06
6.04
5.06
4.09
3.04
1.87
0.61
-0.65
-1.81
-2.82
-3.74
-4.72
-5.91
-7.42
-9.17
-11.00
-12.62
-13.76
-14.20
-13.81
-12.63
-10.81
-8.58
-6.19
-3.87
-1.77
0.02
1.46
2.58
3.41
4.00
4.42
4.73
5.00
5.24
5.44
5.59
5.63
5.56
5.36
5.07
4.70
4.26
3.74
3.13
2.46
1.73
1.00
0.29
-0.42
-1.19
-2.08
-3.12
-4.31
-5.61
-6.98
-8.36
-9.70
-10.93
-11.92
-12.52
-12.60
-12.02
-10.78
-8.94
-6.65
-4.14
-1.66
0.54
2.28
3.51
4.23
4.54
4.54
4.33
4.00
3.66
3.36
3.18
3.10
3.09
3.10
3.07
2.98
2.85
2.73
2.59
2.42
2.13
1.66
0.99
0.18
-0.69
-1.52
-2.24
-2.87
-3.45
-4.09
-4.84
-5.76
-6.84
-8.03
-9.20
-10.16
-10.66
-10.50
-9.53
-7.78
-5.43
-2.78
-0.14
2.22
4.11
5.46
6.28
6.67
6.73
6.61
6.48
6.48
6.67
7.03
7.40
7.58
7.40
6.86
6.10
5.36
4.87
4.65
4.53
4.22
3.45
2.13
0.37
-1.60
-3.50
-5.16
-6.52
-7.64
-8.62
-9.62
-10.77
-12.12
-13.66
-15.26
-16.68
-17.65
-17.93
-17.42
-16.17
-14.32
-12.09
-9.65
-7.16
-4.70
-2.35
-0.16
1.79
3.40
4.61
5.42
5.91
6.26
6.65
7.20
7.90
8.65
9.28
9.67
9.75
9.54
9.10
8.50
7.82
7.16
6.62
6.27
6.11
6.04
5.88
5.49
4.82
3.94
3.01
2.17
1.46
0.80
0.07
-0.84
-1.92
-3.13
-4.40
-5.71
-7.04
-8.40
-9.68
-10.68
-11.12
-10.76
-9.50
-7.47
-4.98
-2.42
-0.17
1.60
2.87
3.80
4.57
5.32
6.03
6.63
7.02
7.14
7.03
6.81
6.59
6.47
6.45
6.47
6.40
6.15
5.70
5.12
4.57
4.15
3.88
3.67
3.38
2.92
2.33
1.71
1.22
0.88
0.60
0.22
-0.44
-1.40
-2.55
-3.72
-4.73
-5.55
-6.22
-6.92
-7.77
-8.82
-10.00
-11.18
-12.16
-12.84
-13.16
-13.11
-12.69
-11.91
-10.73
-9.16
-7.25
-5.14
-2.99
-0.98
0.78
2.25
3.42
4.33
4.98
5.38
5.50
5.39
5.09
4.74
4.46
4.34
4.41
4.58
4.77
4.85
4.78
4.56
4.24
3.87
3.45
2.96
2.35
1.64
0.89
0.23
-0.29
-0.63
-0.91
-1.28
-1.86
-2.68
-3.66
-4.64
-5.49
-6.14
-6.61
-7.02
-7.51
-8.17
-8.95
-9.73
-10.26
-10.31
-9.68
-8.35
-6.43
-4.17
-1.87
0.22
1.97
3.32
4.30
4.94
5.31
5.45
5.46
5.45
5.54
5.81
6.22
6.68
7.03
7.20
7.15
6.94
6.63
6.31
6.01
5.80
5.72
5.80
5.98
6.10
5.96
5.37
4.29
2.83
1.29
-0.08
-1.07
-1.70
-2.07
-2.35
-2.68
-3.10
-3.65
-4.31
-5.13
-6.15
-7.40
-8.77
-10.04
-10.89
-11.07
-10.41
-8.97
-6.97
-4.71
-2.53
-0.68
0.74
1.71
2.33
2.71
2.96
3.14
3.24
3.24
3.09
2.83
2.52
2.28
2.21
2.33
2.57
2.80
2.91
2.84
2.61
2.32
2.05
1.85
1.71
1.57
1.35
1.01
0.50
-0.18
-0.98
-1.82
-2.59
-3.16
-3.48
-3.63
-3.75
-4.07
-4.74
-5.81
-7.20
-8.71
-10.15
-11.33
-12.09
-12.33
-11.97
-10.99
-9.50
-7.65
-5.65
-3.72
-2.00
-0.54
0.71
1.77
2.69
3.44
3.97
4.23
4.20
3.95
3.59
3.24
3.03
3.00
3.11
3.33
3.59
3.82
3.98
4.02
3.91
3.65
3.27
2.80
2.27
1.68
1.00
0.21
-0.66
-1.54
-2.33
-2.96
-3.43
-3.84
-4.33
-5.05
-6.11
-7.54
-9.21
-10.91
-12.31
-13.07
-12.99
-12.04
-10.42
-8.43
-6.42
-4.57
-2.93
-1.44
-0.01
1.37
2.61
3.60
4.27
4.61
4.68
4.58
4.40
4.17
3.96
3.82
3.81
4.00
4.34
4.75
5.08
5.17
4.94
4.41
3.75
3.14
2.75
2.61
2.58
2.47
2.09
1.36
0.33
-0.84
-2.01
-3.03
-3.87
-4.50
-4.98
-5.44
-6.08
-7.06
-8.47
-10.14
-11.68
-12.61
-12.57
-11.43
-9.42
-6.92
-4.36
-2.05
-0.13
1.40
2.59
3.48
4.09
4.44
4.55
4.43
4.13
3.70
3.22
2.75
2.38
2.15
2.08
2.14
2.27
2.40
2.48
2.51
2.47
2.37
2.20
1.92
1.50
0.97
0.38
-0.19
-0.69
-1.11
-1.52
-2.06
-2.86
-4.02
-5.60
-7.50
-9.56
-11.44
-12.78
-13.28
-12.74
-11.22
-8.90
-6.17
-3.37
-0.83
1.29
2.95
4.21
5.15
5.83
6.26
6.42
6.29
5.93
5.46
5.02
4.70
4.53
4.47
4.45
4.47
4.51
4.58
4.62
4.57
4.38
4.06
3.62
3.07
2.37
1.47
0.34
-0.96
-2.31
-3.57
-4.68
-5.68
-6.70
-7.90
-9.36
-11.03
-12.75
-14.26
-15.31
-15.65
-15.14
-13.76
-11.64
-9.01
-6.17
-3.43
-1.03
0.92
2.43
3.60
4.55
5.39
6.12
6.73
7.16
7.43
7.60
7.74
7.92
8.11
8.25
8.25
8.07
7.72
7.29
6.86
6.52
6.26
6.05
5.82
5.51
5.06
4.44
3.64
2.69
1.61
0.47
-0.65
-1.72
-2.74
-3.78
-4.93
-6.28
-7.87
-9.67
-11.59
-13.48
-15.16
-16.39
-16.94
-16.60
-15.27
-13.01
-10.01
-6.62
-3.17
0.02
2.74
4.89
6.48
7.59
8.36
8.92
9.34
9.64
9.79
9.74
9.55
9.32
9.17
9.18
9.38
9.72
10.15
10.59
10.96
11.14
11.01
10.51
9.65
8.56
7.44
6.45
5.66
5.04
4.45
3.77
2.89
1.76
0.42
-1.03
-2.47
-3.79
-4.96
-6.04
-7.21
-8.66
-10.52
-12.72
-15.02
-17.03
-18.31
-18.54
-17.61
-15.60
-12.75
-9.41
-5.91
-2.53
0.58
3.33
5.67
7.56
8.93
9.77
10.10
10.08
9.90
9.77
9.74
9.79
9.84
9.86
9.89
10.00
10.26
10.62
10.93
11.05
10.91
10.58
10.18
9.76
9.32
8.75
7.98
7.01
5.93
4.83
3.75
2.61
1.35
-0.05
-1.52
-2.97
-4.31
-5.57
-6.89
-8.41
-10.20
-12.19
-14.11
-15.61
-16.34
-16.08
-14.78
-12.60
-9.82
-6.78
-3.82
-1.17
1.06
2.88
4.39
5.71
6.89
7.91
8.68
9.11
9.18
8.99
8.72
8.53
8.51
8.62
8.76
8.84
8.79
8.64
8.45
8.26
8.06
7.86
7.64
7.40
7.10
6.67
5.98
4.95
3.61
2.10
0.62
-0.65
-1.67
-2.52
-3.39
-4.47
-5.87
-7.57
-9.45
-11.30
-12.90
-14.01
-14.44
-14.03
-12.73
-10.60
-7.80
-4.61
-1.37
1.57
3.96
5.67
6.76
7.40
7.75
7.97
8.12
8.18
8.19
8.19
8.25
8.42
8.66
8.94
9.18
9.38
9.54
9.68
9.79
9.84
9.71
9.32
8.63
7.65
6.46
5.22
4.06
3.08
2.28
1.59
0.86
-0.00
-1.04
-2.24
-3.51
-4.80
-6.11
-7.51
-9.08
-10.87
-12.85
-14.91
-16.86
-18.40
-19.27
-19.21
-18.14
-16.13
-13.43
-10.35
-7.18
-4.09
-1.21
1.39
3.60
5.28
6.35
6.86
7.02
7.08
7.30
7.74
8.34
8.92
9.36
9.62
9.76
9.88
10.03
10.15
10.17
10.01
9.67
9.25
8.88
8.63
8.47
8.28
7.88
7.18
6.18
5.00
3.81
2.68
1.60
0.47
-0.74
-2.02
-3.23
-4.24
-5.05
-5.76
-6.63
-7.86
-9.51
-11.51
-13.65
-15.70
-17.46
-18.73
-19.27
-18.93
-17.60
-15.36
-12.45
-9.24
-6.10
-3.30
-0.91
1.12
2.89
4.45
5.78
6.81
7.52
7.95
8.20
8.36
8.47
8.47
8.33
8.07
7.79
7.66
7.81
8.23
8.78
9.27
9.53
9.49
9.16
8.63
7.96
7.18
6.27
5.18
3.94
2.59
1.25
0.02
-1.05
-1.98
-2.89
-3.94
-5.21
-6.72
-8.36
-10.04
-11.72
-13.35
-14.91
-16.24
-17.05
-17.01
-15.94
-13.86
-11.06
-7.94
-4.82
-1.92
0.69
2.99
4.89
6.28
7.09
7.33
7.18
6.87
6.59
6.43
6.36
6.31
6.18
5.98
5.72
5.47
5.30
5.25
5.32
5.47
5.62
5.67
5.58
5.33
4.96
4.49
3.94
3.24
2.35
1.28
0.08
-1.16
-2.37
-3.60
-4.92
-6.44
-8.18
-10.04
-11.88
-13.50
-14.77
-15.54
-15.68
-15.08
-13.70
-11.64
-9.14
-6.50
-3.98
-1.69
0.39
2.32
4.10
5.67
6.88
7.64
7.91
7.72
7.16
6.39
5.61
5.04
4.90
5.24
5.96
6.83
7.59
8.07
8.23
8.11
7.74
7.17
6.36
5.33
4.15
2.94
1.83
0.89
0.10
-0.63
-1.39
-2.24
-3.17
-4.16
-5.19
-6.31
-7.65
-9.36
-11.50
-13.94
-16.37
-18.32
-19.38
-19.32
-18.13
-16.02
-13.30
-10.26
-7.14
-4.16
-1.47
0.80
2.58
3.92
4.95
5.80
6.56
7.25
7.77
8.06
8.06
7.87
7.60
7.40
7.34
7.39
7.46
7.46
7.35
7.16
7.00
6.91
6.90
6.88
6.72
6.27
5.49
4.39
3.07
1.66
0.29
-0.96
-2.08
-3.17
-4.31
-5.62
-7.14
-8.86
-10.71
-12.59
-14.39
-16.03
-17.31
-18.03
-17.91
-16.79
-14.61
-11.58
-8.09
-4.56
-1.37
1.26
3.30
4.84
5.96
6.74
7.21
7.42
7.44
7.40
7.42
7.56
7.84
8.19
8.53
8.76
8.82
8.71
8.43
8.04
7.61
7.23
6.96
6.80
6.67
6.43
5.93
5.05
3.79
2.27
0.63
-0.95
-2.35
-3.56
-4.66
-5.77
-7.03
-8.51
-10.25
-12.20
-14.23
-16.12
-17.56
-18.24
-17.87
-16.40
-13.93
-10.78
-7.31
-3.90
-0.81
1.77
3.74
5.04
5.70
5.80
5.57
5.27
5.12
5.23
5.57
6.00
6.36
6.53
6.50
6.33
6.11
5.90
5.73
5.55
5.30
4.93
4.41
3.70
2.85
1.85
0.74
-0.44
-1.67
-2.92
-4.20
-5.53
-6.99
-8.63
-10.52
-12.59
-14.64
-16.37
-17.40
-17.42
-16.27
-14.02
-10.92
-7.34
-3.68
-0.26
2.70
5.06
6.79
7.92
8.49
8.59
8.34
7.91
7.50
7.27
7.34
7.70
8.23
8.72
8.99
8.94
8.53
7.86
7.05
6.25
5.55
4.96
4.40
3.71
2.77
1.51
0.05
-1.42
-2.73
-3.83
-4.86
-6.05
-7.61
-9.58
-11.86
-14.17
-16.19
-17.60
-18.11
-17.54
-15.82
-13.08
-9.60
-5.80
-2.07
1.30
4.20
6.64
8.71
10.44
11.83
12.80
13.32
13.45
13.31
13.07
12.88
12.83
12.89
13.03
13.17
13.25
13.24
13.08
12.74
12.18
11.40
10.47
9.52
8.67
7.96
7.33
6.63
5.70
4.43
2.83
1.00
-0.91
-2.73
-4.37
-5.79
-7.06
-8.30
-9.68
-11.38
-13.45
-15.83
-18.26
-20.34
-21.59
-21.58
-20.10
-17.23
-13.32
-8.93
-4.63
-0.87
2.11
4.36
6.02
7.30
8.35
9.26
10.09
10.87
11.65
12.43
13.18
13.84
14.31
14.50
14.38
13.93
13.27
12.56
11.99
11.70
11.68
11.78
11.79
11.51
10.86
9.90
8.77
7.61
6.50
5.43
4.38
3.32
2.21
1.04
-0.21
-1.52
-2.87
-4.24
-5.63
-7.09
-8.71
-10.58
-12.70
-14.99
-17.24
-19.20
-20.56
-21.05
-20.43
-18.67
-15.91
-12.52
-8.96
-5.63
-2.77
-0.38
1.67
3.54
5.28
6.86
8.16
9.08
9.56
9.63
9.40
9.03
8.71
8.58
8.72
9.08
9.51
9.82
9.89
9.69
9.27
8.74
8.18
7.62
7.06
6.50
5.90
5.24
4.48
3.58
2.57
1.45
0.24
-1.07
-2.49
-4.03
-5.64
-7.24
-8.77
-10.19
-11.51
-12.71
-13.72
-14.35
-14.38
-13.68
-12.24
-10.18
-7.70
-4.98
-2.20
0.51
3.00
5.07
6.58
7.48
7.81
7.79
7.64
7.56
7.64
7.84
8.08
8.28
8.45
8.60
8.79
9.02
9.20
9.21
8.93
8.33
7.48
6.54
5.68
4.99
4.47
4.03
3.52
2.85
1.95
0.85
-0.39
-1.64
-2.82
-3.86
-4.76
-5.55
-6.35
-7.25
-8.36
-9.77
-11.51
-13.50
-15.56
-17.35
-18.50
-18.67
-17.69
-15.65
-12.83
-9.66
-6.51
-3.65
-1.21
0.79
2.40
3.67
4.68
5.50
6.17
6.74
7.16
7.41
7.45
7.33
7.12
6.96
6.97
7.20
7.65
8.19
8.67
8.94
8.90
8.55
8.00
7.39
6.83
6.36
5.94
5.45
4.80
3.95
2.92
1.79
0.62
-0.51
-1.61
-2.64
-3.64
-4.61
-5.55
-6.49
-7.46
-8.51
-9.71
-11.11
-12.68
-14.33
-15.89
-17.16
-17.92
-18.00
-17.35
-15.98
-13.99
-11.54
-8.82
-5.98
-3.21
-0.66
1.53
3.27
4.55
5.41
5.96
6.35
6.64
6.88
7.02
7.03
6.93
6.81
6.78
6.93
7.25
7.59
7.80
7.76
7.42
6.89
6.29
5.75
5.35
5.09
4.93
4.75
4.45
3.93
3.17
2.19
1.06
-0.13
-1.34
-2.55
-3.71
-4.77
-5.64
-6.28
-6.76
-7.21
-7.86
-8.87
-10.28
-11.94
-13.61
-14.97
-15.71
-15.62
-14.64
-12.86
-10.49
-7.83
-5.14
-2.67
-0.54
1.18
2.50
3.43
4.02
4.37
4.57
4.75
4.94
5.13
5.26
5.29
5.24
5.18
5.22
5.41
5.73
6.07
6.34
6.46
6.43
6.27
6.02
5.63
5.07
4.33
3.46
2.55
1.69
0.91
0.19
-0.51
-1.20
-1.86
-2.44
-2.94
-3.41
-4.01
-4.91
-6.27
-8.08
-10.16
-12.19
-13.74
-14.46
-14.16
-12.85
-10.74
-8.12
-5.29
-2.51
0.00
2.08
3.58
4.49
4.88
4.95
4.89
4.82
4.75
4.61
4.36
4.06
3.85
3.90
4.27
4.86
5.51
6.03
6.30
6.29
6.04
5.62
5.08
4.46
3.81
3.17
2.54
1.88
1.16
0.36
-0.47
-1.30
-2.06
-2.76
-3.48
-4.31
-5.32
-6.51
-7.86
-9.29
-10.74
-12.07
-13.09
-13.56
-13.23
-12.00
-9.96
-7.43
-4.79
-2.40
-0.44
1.08
2.27
3.24
4.03
4.59
4.86
4.84
4.62
4.36
4.20
4.23
4.42
4.72
5.08
5.47
5.92
6.37
6.75
6.87
6.61
5.94
5.02
4.10
3.42
3.06
2.90
2.66
2.08
1.05
-0.38
-1.99
-3.55
-4.94
-6.13
-7.14
-7.99
-8.70
-9.30
-9.90
-10.72
-11.95
-13.63
-15.56
-17.27
-18.19
-17.89
-16.27
-13.58
-10.34
-7.09
-4.20
-1.84
0.01
1.46
2.59
3.45
4.07
4.50
4.82
5.14
5.50
5.90
6.28
6.59
6.76
6.80
6.74
6.66
6.61
6.61
6.61
6.54
6.37
6.07
5.69
5.28
4.88
4.48
4.02
3.44
2.71
1.83
0.87
-0.13
-1.15
-2.23
-3.41
-4.71
-6.06
-7.34
-8.49
-9.54
-10.63
-11.96
-13.59
-15.38
-16.96
-17.85
-17.67
-16.29
-13.88
-10.81
-7.51
-4.34
-1.51
0.86
2.76
4.19
5.19
5.82
6.20
6.44
6.62
6.78
6.92
7.04
7.14
7.26
7.45
7.75
8.15
8.62
9.10
9.56
9.93
10.16
10.18
9.98
9.54
8.92
8.18
7.39
6.58
5.74
4.84
3.84
2.70
1.44
0.08
-1.35
-2.76
-4.10
-5.28
-6.26
-7.08
-7.81
-8.59
-9.58
-10.86
-12.45
-14.21
-15.88
-17.11
-17.59
-17.09
-15.60
-13.28
-10.43
-7.41
-4.51
-1.90
0.35
2.24
3.76
4.90
5.65
6.02
6.12
6.08
6.06
6.17
6.40
6.68
6.91
7.03
7.05
7.01
6.99
7.01
7.03
6.98
6.80
6.46
5.98
5.44
4.85
4.26
3.63
2.92
2.12
1.20
0.19
-0.89
-2.03
-3.25
-4.61
-6.20
-8.00
-9.90
-11.61
-12.74
-12.95
-12.09
-10.24
-7.76
-5.08
-2.57
-0.39
1.43
2.98
4.31
5.43
6.28
6.85
7.14
7.20
7.10
6.91
6.67
6.41
6.16
5.95
5.81
5.78
5.92
6.24
6.72
7.26
7.68
7.78
7.44
6.67
5.59
4.42
3.30
2.31
1.43
0.58
-0.28
-1.18
-2.11
-3.03
-3.99
-5.06
-6.32
-7.89
-9.76
-11.81
-13.79
-15.36
-16.21
-16.08
-14.92
-12.87
-10.23
-7.39
-4.71
-2.44
-0.62
0.81
2.04
3.21
4.39
5.54
6.56
7.36
7.89
8.17
8.29
8.29
8.20
8.01
7.73
7.43
7.19
7.12
7.24
7.50
7.77
7.86
7.67
7.14
6.36
5.48
4.63
3.86
3.13
2.33
1.36
0.22
-1.03
-2.29
-3.48
-4.59
-5.69
-6.89
-8.27
-9.86
-11.66
-13.55
-15.36
-16.84
-17.72
-17.76
-16.81
-14.93
-12.31
-9.31
-6.26
-3.44
-0.95
1.17
2.97
4.46
5.63
6.44
6.88
7.03
7.04
7.09
7.30
7.72
8.27
8.84
9.30
9.58
9.67
9.61
9.48
9.33
9.20
9.09
8.95
8.73
8.41
7.96
7.41
6.79
6.10
5.33
4.43
3.34
2.06
0.66
-0.75
-2.03
-3.10
-3.99
-4.80
-5.71
-6.88
-8.35
-10.11
-12.06
-14.09
-16.01
-17.62
-18.65
-18.85
-18.04
-16.21
-13.58
-10.56
-7.60
-5.02
-2.93
-1.22
0.33
1.86
3.40
4.82
5.94
6.68
7.13
7.49
7.96
8.65
9.49
10.25
10.74
10.84
10.59
10.16
9.75
9.52
9.50
9.58
9.63
9.48
9.03
8.26
7.30
6.27
5.34
4.57
3.95
3.38
2.73
1.93
0.96
-0.11
-1.24
-2.36
-3.45
-4.50
-5.54
-6.61
-7.79
-9.19
-10.87
-12.81
-14.82
-16.55
-17.62
-17.71
-16.70
-14.73
-12.13
-9.29
-6.52
-3.96
-1.66
0.42
2.29
3.85
5.05
5.82
6.22
6.37
6.43
6.54
6.76
7.14
7.64
8.25
8.93
9.57
10.06
10.30
10.26
10.04
9.80
9.66
9.65
9.64
9.46
8.99
8.25
7.35
6.46
5.66
4.91
4.09
3.14
2.02
0.82
-0.36
-1.47
-2.51
-3.48
-4.41
-5.32
-6.26
-7.31
-8.59
-10.13
-11.86
-13.56
-14.95
-15.72
-15.69
-14.78
-13.09
-10.81
-8.21
-5.56
-3.07
-0.90
0.90
2.32
3.37
4.10
4.54
4.77
4.91
5.09
5.40
5.82
6.29
6.66
6.82
6.74
6.52
6.29
6.20
6.29
6.52
6.75
6.82
6.59
6.08
5.36
4.59
3.86
3.18
2.49
1.71
0.81
-0.15
-1.10
-2.01
-2.90
-3.85
-4.95
-6.26
-7.73
-9.24
-10.58
-11.53
-11.86
-11.43
-10.19
-8.24
-5.78
-3.10
-0.49
1.82
3.70
5.10
6.05
6.60
6.80
6.67
6.28
5.71
5.12
4.74
4.73
5.14
5.86
6.62
7.15
7.23
6.87
6.21
5.50
4.91
4.55
4.36
4.22
4.01
3.64
3.08
2.34
1.43
0.42
-0.63
-1.65
-2.59
-3.44
-4.29
-5.21
-6.28
-7.54
-8.98
-10.55
-12.17
-13.69
-14.89
-15.50
-15.29
-14.14
-12.14
-9.56
-6.82
-4.24
-2.07
-0.34
1.03
2.16
3.10
3.84
4.36
4.66
4.86
5.09
5.45
5.96
6.48
6.84
6.92
6.76
6.46
6.20
6.10
6.14
6.24
6.29
6.20
5.96
5.59
5.07
4.42
3.64
2.78
1.88
0.97
0.08
-0.84
-1.84
-2.97
-4.22
-5.52
-6.81
-8.03
-9.17
-10.29
-11.46
-12.69
-13.91
-14.93
-15.46
-15.29
-14.26
-12.46
-10.11
-7.54
-5.06
-2.91
-1.18
0.17
1.26
2.21
3.14
4.08
5.00
5.85
6.58
7.16
7.59
7.87
7.99
7.97
7.83
7.67
7.59
7.68
7.94
8.31
8.63
8.75
8.60
8.19
7.62
6.99
6.36
5.72
5.03
4.24
3.35
2.39
1.38
0.39
-0.56
-1.47
-2.39
-3.37
-4.47
-5.70
-7.01
-8.36
-9.68
-10.93
-12.18
-13.46
-14.77
-15.98
-16.84
-17.08
-16.48
-14.99
-12.76
-10.06
-7.20
-4.45
-2.01
0.05
1.74
3.12
4.21
5.02
5.56
5.85
6.02
6.19
6.52
7.03
7.64
8.16
8.43
8.41
8.20
8.01
8.00
8.20
8.52
8.76
8.76
8.47
7.99
7.50
7.14
6.91
6.69
6.26
5.48
4.36
3.07
1.81
0.73
-0.17
-1.00
-1.89
-2.91
-4.02
-5.12
-6.12
-7.01
-7.85
-8.77
-9.87
-11.19
-12.67
-14.13
-15.29
-15.85
-15.54
-14.27
-12.17
-9.55
-6.79
-4.25
-2.10
-0.40
0.96
2.10
3.14
4.11
4.98
5.69
6.22
6.63
6.99
7.41
7.88
8.31
8.55
8.52
8.29
8.02
7.85
7.82
7.80
7.59
7.07
6.30
5.46
4.72
4.15
3.65
3.03
2.14
1.01
-0.21
-1.33
-2.24
-2.94
-3.49
-4.01
-4.58
-5.29
-6.23
-7.51
-9.15
-11.02
-12.81
-14.14
-14.63
-14.12
-12.70
-10.63
-8.24
-5.78
-3.39
-1.14
0.87
2.52
3.72
4.42
4.72
4.80
4.84
4.97
5.22
5.53
5.82
6.03
6.15
6.18
6.17
6.17
6.23
6.34
6.51
6.69
6.83
6.93
6.98
6.95
6.80
6.44
5.82
4.96
3.96
2.96
2.08
1.34
0.67
-0.02
-0.84
-1.85
-3.02
-4.31
-5.67
-7.04
-8.41
-9.77
-11.15
-12.56
-13.93
-15.14
-16.00
-16.27
-15.78
-14.50
-12.54
-10.14
-7.59
-5.14
-2.95
-1.08
0.48
1.74
2.70
3.40
3.84
4.10
4.31
4.58
5.01
5.59
6.22
6.81
7.26
7.54
7.67
7.71
7.71
7.69
7.66
7.60
7.50
7.32
7.05
6.65
6.11
5.44
4.70
3.95
3.23
2.53
1.81
1.02
0.14
-0.85
-1.97
-3.18
-4.44
-5.68
-6.83
-7.84
-8.75
-9.68
-10.78
-12.20
-13.91
-15.68
-17.15
-17.92
-17.72
-16.52
-14.52
-12.01
-9.33
-6.72
-4.31
-2.17
-0.31
1.23
2.46
3.41
4.18
4.82
5.41
5.95
6.42
6.82
7.14
7.38
7.57
7.71
7.81
7.86
7.87
7.88
7.96
8.15
8.46
8.82
9.06
9.02
8.59
7.82
6.86
5.95
5.22
4.69
4.22
3.66
2.89
1.92
0.85
-0.21
-1.17
-2.06
-2.95
-3.93
-5.03
-6.27
-7.59
-8.96
-10.36
-11.79
-13.26
-14.73
-16.08
-17.10
-17.55
-17.25
-16.14
-14.32
-11.99
-9.36
-6.59
-3.80
-1.12
1.29
3.23
4.56
5.25
5.44
5.34
5.24
5.31
5.63
6.12
6.68
7.20
7.64
7.94
8.07
8.01
7.76
7.41
7.07
6.86
6.84
6.95
7.09
7.13
6.98
6.57
5.91
4.98
3.84
2.52
1.10
-0.31
-1.62
-2.76
-3.72
-4.54
-5.32
-6.22
-7.41
-9.01
-11.03
-13.25
-15.28
-16.63
-16.90
-15.92
-13.83
-11.01
-7.91
-4.97
-2.47
-0.50
0.95
1.97
2.70
3.25
3.74
4.21
4.67
5.08
5.41
5.62
5.74
5.81
5.93
6.17
6.56
7.13
7.80
8.44
8.92
9.12
8.98
8.56
7.98
7.36
6.79
6.22
5.52
4.55
3.28
1.77
0.20
-1.22
-2.36
-3.23
-3.95
-4.72
-5.71
-7.01
-8.63
-10.43
-12.24
-13.81
-14.82
-14.98
-14.08
-12.12
-9.31
-6.08
-2.90
-0.12
2.09
3.76
4.99
5.90
6.50
6.73
6.60
6.18
5.67
5.30
5.25
5.62
6.31
7.13
7.86
8.30
8.38
8.18
7.86
7.58
7.40
7.26
7.02
6.53
5.77
4.80
3.79
2.83
1.94
1.03
0.02
-1.18
-2.54
-3.98
-5.42
-6.81
-8.19
-9.60
-11.12
-12.80
-14.62
-16.46
-18.09
-19.19
-19.44
-18.65
-16.80
-14.11
-10.93
-7.60
-4.39
-1.44
1.19
3.47
5.31
6.62
7.37
7.62
7.55
7.37
7.27
7.33
7.55
7.87
8.20
8.50
8.76
8.96
9.10
9.15
9.08
8.84
8.46
8.01
7.59
7.23
6.90
6.48
5.83
4.81
3.37
1.60
-0.36
-2.27
-3.95
-5.26
-6.19
-6.88
-7.52
-8.41
-9.74
-11.60
-13.91
-16.37
-18.62
-20.20
-20.72
-19.96
-17.89
-14.74
-10.96
-7.06
-3.48
-0.46
1.93
3.78
5.22
6.37
7.29
8.00
8.54
8.94
9.26
9.56
9.86
10.13
10.34
10.49
10.61
10.78
11.07
11.47
11.93
12.31
12.50
12.44
12.15
11.68
11.09
10.39
9.52
8.41
7.06
5.55
4.08
2.80
1.82
1.06
0.34
-0.57
-1.79
-3.31
-4.96
-6.57
-8.10
-9.62
-11.30
-13.25
-15.41
-17.55
-19.33
-20.45
-20.72
-20.08
-18.59
-16.41
-13.73
-10.77
-7.72
-4.74
-1.91
0.66
2.92
4.81
6.30
7.42
8.24
8.79
9.16
9.36
9.46
9.55
9.73
10.08
10.57
11.04
11.32
11.27
10.90
10.35
9.83
9.50
9.37
9.32
9.17
8.77
8.08
7.12
5.97
4.70
3.32
1.82
0.23
-1.42
-3.02
-4.49
-5.79
-6.98
-8.22
-9.67
-11.42
-13.39
-15.32
-16.85
-17.60
-17.32
-15.96
-13.62
-10.54
-6.99
-3.28
0.27
3.31
5.60
7.00
7.62
7.72
7.65
7.67
7.87
8.21
8.54
8.76
8.82
8.75
8.60
8.41
8.22
8.08
8.02
8.10
8.36
8.75
9.17
9.46
9.45
9.02
8.14
6.90
5.48
4.06
2.73
1.50
0.30
-0.94
-2.22
-3.47
-4.64
-5.71
-6.78
-8.01
-9.51
-11.25
-13.08
-14.67
-15.66
-15.76
-14.85
-12.95
-10.31
-7.23
-4.06
-1.07
1.56
3.75
5.48
6.79
7.69
8.22
8.45
8.44
8.27
8.02
7.71
7.38
7.06
6.80
6.63
6.60
6.73
7.02
7.42
7.86
8.22
8.38
8.21
7.67
6.79
5.66
4.42
3.17
1.95
0.77
-0.37
-1.49
-2.58
-3.65
-4.76
-5.95
-7.29
-8.77
-10.39
-12.10
-13.88
-15.68
-17.40
-18.85
-19.78
-19.92
-19.12
-17.37
-14.84
-11.77
-8.46
-5.14
-2.03
0.71
2.98
4.72
5.98
6.86
7.52
8.06
8.55
8.96
9.27
9.44
9.49
9.51
9.56
9.73
10.01
10.40
10.83
11.22
11.49
11.59
11.49
11.16
10.64
9.93
9.04
7.98
6.77
5.45
4.08
2.74
1.48
0.33
-0.71
-1.71
-2.72
-3.79
-4.93
-6.10
-7.26
-8.40
-9.59
-10.97
-12.68
-14.78
-17.16
-19.53
-21.52
-22.71
-22.82
-21.76
-19.66
-16.78
-13.48
-10.08
-6.82
-3.86
-1.24
1.05
3.03
4.72
6.15
7.32
8.25
8.95
9.44
9.75
9.91
10.00
10.10
10.25
10.47
10.72
10.95
11.11
11.21
11.30
11.40
11.47
11.44
11.19
10.63
9.78
8.67
7.40
6.02
4.61
3.22
1.93
0.82
-0.11
-0.92
-1.75
-2.71
-3.86
-5.15
-6.55
-8.00
-9.59
-11.40
-13.50
-15.85
-18.22
-20.29
-21.70
-22.12
-21.39
-19.53
-16.72
-13.28
-9.61
-6.07
-2.95
-0.41
1.58
3.10
4.34
5.46
6.57
7.70
8.81
9.78
10.46
10.76
10.65
10.23
9.72
9.35
9.28
9.57
10.15
10.81
11.33
11.52
11.27
10.60
9.67
8.65
7.68
6.87
6.18
5.52
4.79
3.88
2.76
1.43
-0.07
-1.70
-3.38
-5.02
-6.53
-7.84
-9.00
-10.12
-11.36
-12.88
-14.65
-16.48
-17.95
-18.61
-18.13
-16.42
-13.65
-10.21
-6.52
-2.95
0.26
2.98
5.16
6.73
7.68
8.06
8.03
7.77
7.51
7.35
7.32
7.37
7.46
7.56
7.68
7.84
8.01
8.17
8.29
8.35
8.33
8.22
8.04
7.75
7.34
6.81
6.15
5.36
4.42
3.32
2.06
0.64
-0.87
-2.42
-3.92
-5.31
-6.54
-7.68
-8.87
-10.28
-12.05
-14.18
-16.42
-18.33
-19.47
-19.49
-18.30
-16.08
-13.15
-9.89
-6.60
-3.47
-0.64
1.80
3.77
5.26
6.28
6.94
7.37
7.70
7.97
8.17
8.26
8.20
8.08
8.00
8.08
8.36
8.80
9.27
9.63
9.80
9.75
9.50
9.07
8.46
7.66
6.68
5.58
4.48
3.48
2.61
1.79
0.84
-0.39
-1.96
-3.74
-5.53
-7.14
-8.50
-9.69
-10.90
-12.36
-14.17
-16.28
-18.50
-20.53
-22.10
-22.92
-22.79
-21.60
-19.34
-16.18
-12.40
-8.39
-4.51
-1.09
1.68
3.78
5.29
6.41
7.33
8.17
8.94
9.57
9.96
10.10
10.07
10.04
10.16
10.48
10.92
11.28
11.41
11.25
10.88
10.45
10.08
9.83
9.63
9.38
8.99
8.46
7.79
7.05
6.28
5.50
4.72
3.91
2.99
1.87
0.47
-1.20
-3.07
-4.94
-6.66
-8.11
-9.33
-10.49
-11.80
-13.43
-15.43
-17.68
-19.92
-21.81
-22.99
-23.19
-22.26
-20.23
-17.28
-13.68
-9.78
-5.94
-2.45
0.50
2.84
4.62
5.98
7.03
7.83
8.41
8.78
8.99
9.14
9.30
9.54
9.83
10.10
10.28
10.37
10.43
10.55
10.77
11.04
11.22
11.14
10.67
9.82
8.66
7.39
6.18
5.13
4.25
3.42
2.50
1.36
0.01
-1.47
-2.94
-4.32
-5.62
-6.95
-8.43
-10.13
-12.03
-13.99
-15.82
-17.26
-18.06
-18.02
-16.99
-14.97
-12.14
-8.84
-5.45
-2.33
0.33
2.49
4.19
5.54
6.59
7.41
7.97
8.31
8.46
8.51
8.58
8.76
9.10
9.56
10.04
10.42
10.66
10.75
10.74
10.68
10.55
10.28
9.80
9.09
8.20
7.20
6.14
5.00
3.75
2.37
0.92
-0.46
-1.67
-2.63
-3.42
-4.21
-5.17
-6.43
-8.04
-9.92
-11.93
-13.88
-15.51
-16.60
-16.91
-16.31
-14.77
-12.39
-9.40
-6.10
-2.79
0.26
2.88
4.97
6.49
7.46
7.90
7.92
7.66
7.32
7.10
7.15
7.50
8.07
8.72
9.32
9.78
10.09
10.28
10.38
10.38
10.27
9.98
9.50
8.82
8.00
7.10
6.20
5.36
4.59
3.84
3.00
1.96
0.66
-0.87
-2.50
-4.02
-5.26
-6.17
-6.87
-7.60
-8.65
-10.23
-12.37
-14.88
-17.41
-19.55
-20.91
-21.20
-20.31
-18.26
-15.24
-11.58
-7.70
-4.02
-0.87
1.64
3.59
5.16
6.53
7.75
8.73
9.38
9.67
9.72
9.72
9.86
10.20
10.61
10.93
11.04
10.96
10.82
10.73
10.72
10.73
10.63
10.36
9.89
9.29
8.64
7.99
7.34
6.67
5.93
5.14
4.32
3.47
2.55
1.52
0.27
-1.19
-2.78
-4.32
-5.63
-6.60
-7.27
-7.84
-8.62
-9.87
-11.75
-14.19
-16.89
-19.39
-21.20
-21.90
-21.26
-19.33
-16.39
-12.83
-9.13
-5.68
-2.76
-0.48
1.21
2.50
3.62
4.76
6.00
7.20
8.16
8.68
8.71
8.41
8.03
7.81
7.82
8.04
8.34
8.67
9.02
9.44
9.91
10.34
10.55
10.39
9.76
8.72
7.43
6.12
4.99
4.16
3.60
3.22
2.82
2.20
1.24
-0.05
-1.59
-3.20
-4.74
-6.11
-7.32
-8.42
-9.49
-10.63
-11.87
-13.24
-14.66
-15.97
-16.93
-17.27
-16.77
-15.32
-12.97
-9.90
-6.46
-3.06
-0.05
2.33
4.00
5.10
5.77
6.16
6.31
6.21
5.83
5.28
4.73
4.37
4.35
4.65
5.13
5.66
6.11
6.45
6.68
6.79
6.82
6.79
6.72
6.60
6.31
5.74
4.76
3.35
1.65
-0.10
-1.62
-2.73
-3.44
-3.89
-4.30
-4.88
-5.76
-6.98
-8.49
-10.18
-11.83
-13.17
-13.87
-13.65
-12.32
-9.95
-6.82
-3.38
-0.16
2.49
4.36
5.47
5.97
6.03
5.85
5.58
5.35
5.26
5.35
5.59
5.86
6.03
5.99
5.78
5.53
5.42
5.58
5.99
6.50
6.89
6.98
6.66
5.95
4.93
3.72
2.46
1.28
0.25
-0.57
-1.27
-1.98
-2.87
-4.04
-5.50
-7.08
-8.60
-9.88
-10.85
-11.62
-12.39
-13.34
-14.58
-16.04
-17.46
-18.41
-18.50
-17.45
-15.24
-12.10
-8.49
-4.92
-1.79
0.65
2.40
3.57
4.39
5.08
5.73
6.35
6.84
7.13
7.21
7.18
7.16
7.27
7.50
7.75
7.90
7.90
7.80
7.76
7.85
8.07
8.28
8.27
7.89
7.12
6.08
4.97
3.96
3.16
2.55
2.03
1.43
0.62
-0.48
-1.82
-3.30
-4.75
-6.04
-7.11
-7.93
-8.60
-9.25
-10.08
-11.31
-13.04
-15.18
-17.37
-19.03
-19.58
-18.69
-16.45
-13.31
-9.93
-6.82
-4.23
-2.12
-0.33
1.28
2.67
3.72
4.34
4.58
4.65
4.80
5.22
5.95
6.85
7.69
8.26
8.48
8.39
8.11
7.80
7.55
7.37
7.20
6.97
6.63
6.21
5.74
5.29
4.91
4.61
4.36
4.07
3.60
2.84
1.74
0.34
-1.19
-2.66
-3.92
-4.96
-5.89
-6.87
-8.08
-9.59
-11.36
-13.27
-15.14
-16.73
-17.82
-18.15
-17.53
-15.89
-13.32
-10.11
-6.64
-3.34
-0.50
1.73
3.38
4.57
5.43
6.02
6.39
6.57
6.65
6.75
6.94
7.25
7.60
7.88
8.03
8.04
7.98
7.89
7.81
7.66
7.40
7.00
6.52
6.08
5.75
5.55
5.37
5.03
4.40
3.43
2.19
0.84
-0.46
-1.63
-2.68
-3.67
-4.70
-5.81
-6.98
-8.18
-9.41
-10.71
-12.06
-13.38
-14.46
-14.97
-14.64
-13.33
-11.12
-8.34
-5.42
-2.80
-0.70
0.84
1.94
2.86
3.74
4.62
5.42
6.00
6.28
6.27
6.10
5.88
5.71
5.62
5.58
5.60
5.69
5.88
6.19
6.59
6.97
7.24
7.28
7.04
6.51
5.79
4.98
4.16
3.37
2.52
1.53
0.29
-1.14
-2.61
-3.90
-4.84
-5.45
-5.95
-6.67
-7.89
-9.62
-11.60
-13.35
-14.39
-14.40
-13.32
-11.33
-8.73
-5.85
-2.97
-0.31
1.95
3.73
4.98
5.71
6.01
5.93
5.59
5.11
4.64
4.35
4.34
4.65
5.16
5.71
6.11
6.29
6.26
6.14
6.02
5.97
5.94
5.90
5.74
5.39
4.81
3.97
2.90
1.71
0.52
-0.56
-1.50
-2.35
-3.22
-4.24
-5.44
-6.81
-8.27
-9.81
-11.42
-13.10
-14.76
-16.17
-16.98
-16.87
-15.67
-13.50
-10.67
-7.63
-4.75
-2.25
-0.18
1.56
3.05
4.36
5.43
6.17
6.50
6.41
6.02
5.55
5.27
5.37
5.86
6.60
7.39
7.99
8.34
8.49
8.53
8.59
8.69
8.77
8.76
8.57
8.14
7.48
6.61
5.58
4.47
3.38
2.42
1.63
0.99
0.36
-0.43
-1.53
-2.95
-4.59
-6.26
-7.75
-9.00
-10.06
-11.16
-12.52
-14.27
-16.31
-18.35
-19.92
-20.59
-20.07
-18.35
-15.67
-12.45
-9.14
-6.05
-3.36
-1.07
0.90
2.62
4.11
5.31
6.17
6.68
6.91
7.04
7.22
7.55
8.01
8.48
8.80
8.88
8.77
8.63
8.61
8.77
9.07
9.35
9.45
9.30
8.89
8.30
7.59
6.80
5.96
5.07
4.17
3.27
2.34
1.32
0.15
-1.19
-2.62
-4.04
-5.33
-6.46
-7.49
-8.62
-10.06
-11.91
-14.15
-16.50
-18.52
-19.75
-19.85
-18.73
-16.57
-13.70
-10.50
-7.31
-4.33
-1.64
0.70
2.68
4.27
5.47
6.30
6.82
7.10
7.25
7.36
7.52
7.79
8.21
8.75
9.34
9.87
10.25
10.42
10.34
10.09
9.73
9.34
8.97
8.60
8.21
7.74
7.18
6.54
5.84
5.07
4.20
3.21
2.08
0.83
-0.49
-1.83
-3.15
-4.44
-5.74
-7.10
-8.58
-10.22
-12.05
-14.00
-15.90
-17.50
-18.51
-18.67
-17.86
-16.11
-13.66
-10.83
-7.95
-5.24
-2.77
-0.56
1.42
3.14
4.56
5.60
6.31
6.80
7.20
7.66
8.15
8.61
8.87
8.88
8.66
8.40
8.31
8.53
9.04
9.66
10.10
10.11
9.56
8.54
7.28
6.05
5.04
4.27
3.62
2.92
2.03
0.92
-0.38
-1.73
-3.05
-4.24
-5.27
-6.19
-7.14
-8.24
-9.60
-11.19
-12.79
-14.03
-14.55
-14.10
-12.66
-10.42
-7.69
-4.81
-2.01
0.54
2.75
4.54
5.89
6.80
7.31
7.48
7.45
7.32
7.24
7.31
7.58
8.05
8.62
9.16
9.59
9.86
9.99
9.98
9.85
9.60
9.22
8.73
8.16
7.60
7.06
6.55
6.02
5.40
4.61
3.61
2.39
1.02
-0.40
-1.70
-2.77
-3.58
-4.18
-4.72
-5.38
-6.31
-7.61
-9.33
-11.45
-13.86
-16.34
-18.51
-19.97
-20.32
-19.40
-17.27
-14.29
-10.96
-7.73
-4.91
-2.57
-0.62
1.07
2.59
3.94
5.05
5.88
6.45
6.87
7.27
7.68
8.07
8.34
8.42
8.30
8.13
8.05
8.19
8.55
8.99
9.33
9.40
9.12
8.55
7.80
7.02
6.30
5.69
5.17
4.67
4.13
3.46
2.59
1.47
0.08
-1.52
-3.24
-4.91
-6.39
-7.61
-8.61
-9.55
-10.64
-12.00
-13.63
-15.27
-16.57
-17.14
-16.76
-15.41
-13.30
-10.71
-7.93
-5.19
-2.62
-0.34
1.59
3.14
4.33
5.26
6.00
6.62
7.16
7.60
7.93
8.15
8.27
8.32
8.30
8.24
8.18
8.21
8.42
8.85
9.45
10.07
10.50
10.57
10.20
9.43
8.38
7.23
6.09
5.06
4.17
3.39
2.67
1.89
0.92
-0.35
-1.91
-3.66
-5.39
-6.93
-8.20
-9.25
-10.28
-11.47
-12.91
-14.53
-16.09
-17.26
-17.70
-17.21
-15.75
-13.47
-10.67
-7.71
-4.88
-2.39
-0.29
1.45
2.90
4.12
5.13
5.90
6.44
6.76
6.95
7.11
7.31
7.61
8.00
8.42
8.80
9.11
9.32
9.46
9.56
9.62
9.60
9.48
9.21
8.78
8.23
7.61
6.94
6.25
5.50
4.66
3.69
2.56
1.28
-0.12
-1.58
-2.97
-4.16
-5.06
-5.63
-5.97
-6.29
-6.87
-7.90
-9.46
-11.42
-13.48
-15.24
-16.38
-16.64
-15.99
-14.49
-12.31
-9.68
-6.83
-4.00
-1.44
0.67
2.21
3.21
3.83
4.27
4.70
5.14
5.51
5.69
5.65
5.49
5.38
5.48
5.85
6.36
6.87
7.24
7.44
7.52
7.54
7.50
7.37
7.09
6.70
6.25
5.77
5.22
4.48
3.43
2.06
0.47
-1.12
-2.52
-3.62
-4.47
-5.20
-5.98
-6.92
-8.10
-9.49
-11.02
-12.53
-13.76
-14.43
-14.25
-13.09
-10.99
-8.25
-5.29
-2.54
-0.28
1.43
2.72
3.81
4.85
5.90
6.81
7.44
7.69
7.58
7.25
6.89
6.66
6.67
6.95
7.46
8.12
8.79
9.37
9.73
9.83
9.67
9.29
8.71
7.98
7.16
6.33
5.53
4.81
4.11
3.39
2.56
1.65
0.73
-0.14
-0.92
-1.67
-2.41
-3.15
-3.86
-4.52
-5.22
-6.15
-7.51
-9.36
-11.58
-13.85
-15.84
-17.28
-18.00
-17.95
-17.11
-15.51
-13.22
-10.44
-7.45
-4.53
-1.88
0.45
2.51
4.37
6.03
7.41
8.44
9.09
9.43
9.56
9.63
9.68
9.69
9.60
9.29
8.71
7.83
6.71
5.42
4.03
2.54
0.91
-0.91
-2.92
-5.10
-7.29
-9.31
-10.95
-12.10
-12.76
-13.09
-13.34
-13.74
-14.42
-15.38
-16.50
-17.66
-18.82
-20.07
-21.50
-23.18
-25.05
-26.98
-28.85
-30.62
-32.30
-33.90
-35.29
-36.17
-36.21
-35.08
-32.70
-29.20
-24.90
-20.20
-15.52
-11.19
-7.52
-4.80
-3.28
-3.15
-4.54
-7.42
-11.61
-16.77
-22.42
-28.08
-33.30
-37.78
-41.34
-43.89
-45.35
-45.72
-45.13
-43.86
-42.30
-40.72
-39.08
-36.96
-33.68
-28.59
-21.37
-12.24
-2.04
8.01
16.60
22.65
25.71
26.02
24.45
22.20
20.36
19.56
19.84
20.78
21.79
22.42
22.47
21.91
20.86
19.48
18.00
16.75
16.10
16.41
17.85
20.34
23.63
27.34
31.24
35.23
39.41
43.93
48.79
53.78
58.47
62.39
65.19
66.79
67.30
66.90
65.67
63.56
60.51
56.63
52.24
47.85
43.87
40.47
37.46
34.50
31.30
27.80
24.16
20.70
17.65
15.09
12.96
11.12
9.46
7.86
6.26
4.62
2.91
1.19
-0.42
-1.78
-2.79
-3.47
-3.95
-4.44
-5.12
-6.00
-6.96
-7.74
-8.07
-7.77
-6.84
-5.45
-3.90
-2.50
-1.46
-0.86
-0.65
-0.70
-0.84
-0.97
-0.95
-0.70
-0.11
0.91
2.39
4.37
6.83
9.74
13.02
16.49
19.84
22.60
24.33
24.75
23.85
21.93
19.41
16.74
14.21
11.92
9.76
7.43
4.56
0.80
-4.00
-9.62
-15.55
-21.17
-26.14
-30.61
-35.15
-40.39
-46.45
-52.79
-58.19
-61.45
-62.00
-60.21
-57.19
-54.25
-52.38
-51.97
-52.93
-54.86
-57.06
-58.35
-57.06
-51.44
-40.46
-24.68
-6.44
10.87
24.13
31.84
34.57
34.45
33.82
34.18
35.71
37.78
39.77
41.63
43.84
46.91
50.78
54.66
57.47
58.50
57.85
56.40
55.25
54.91
54.76
53.11
47.66
36.43
18.44
-5.72
-33.96
-62.94
-88.82
-108.00
-117.93
-117.66
-108.02
-91.35
-71.01
-50.53
-32.81
-19.61
-11.28
-6.95
-4.99
-3.77
-2.40
-1.10
-1.01
-3.32
-8.28
-14.57
-19.69
-21.05
-17.27
-8.99
1.48
11.31
18.46
22.49
24.34
25.44
26.71
28.02
28.52
27.35
24.39
20.38
16.55
13.95
12.86
12.70
12.37
10.87
7.84
3.71
-0.52
-3.78
-5.38
-5.26
-3.91
-2.07
-0.36
0.90
1.74
2.39
3.10
4.03
5.20
6.57
8.09
9.69
11.31
12.77
13.75
13.83
12.62
9.88
5.75
0.66
-4.64
-9.39
-12.99
-15.20
-16.15
-16.20
-15.84
-15.43
-15.21
-15.25
-15.51
-15.99
-16.67
-17.48
-18.34
-19.16
-19.88
-20.54
-21.26
-22.14
-23.18
-24.17
-24.79
-24.65
-23.46
-21.15
-17.86
-13.90
-9.69
-5.62
-1.96
1.13
3.69
5.81
7.63
9.24
10.67
11.96
13.16
14.30
15.38
16.34
17.05
17.38
17.34
17.01
16.59
16.26
16.13
16.23
16.48
16.78
16.99
17.00
16.71
16.04
14.98
13.56
11.83
9.89
7.86
5.90
4.19
2.84
1.81
0.87
-0.26
-1.87
-4.03
-6.64
-9.36
-11.81
-13.58
-14.38
-14.02
-12.51
-10.07
-7.03
-3.84
-0.88
1.65
3.71
5.41
6.87
8.18
9.33
10.30
11.08
11.68
12.14
12.49
12.76
12.96
13.13
13.33
13.61
13.95
14.30
14.53
14.55
14.31
13.83
13.20
12.51
11.85
11.25
10.72
10.25
9.78
9.29
8.70
7.95
6.97
5.73
4.27
2.67
1.03
-0.53
-1.95
-3.23
-4.42
-5.65
-7.03
-8.65
-10.51
-12.52
-14.45
-15.95
-16.68
-16.35
-14.88
-12.40
-9.25
-5.83
-2.55
0.28
2.50
4.05
4.95
5.37
5.55
5.78
6.28
7.13
8.22
9.33
10.21
10.72
10.86
10.70
10.37
10.01
9.72
9.62
9.73
10.02
10.31
10.42
10.20
9.67
9.02
8.48
8.18
8.02
7.76
7.13
6.01
4.47
2.73
1.04
-0.42
-1.59
-2.52
-3.30
-4.02
-4.80
-5.79
-7.08
-8.67
-10.43
-12.07
-13.24
-13.62
-13.05
-11.57
-9.40
-6.86
-4.27
-1.88
0.14
1.73
2.88
3.60
3.95
4.01
3.87
3.65
3.48
3.42
3.54
3.84
4.27
4.78
5.30
5.75
6.04
6.12
5.98
5.72
5.47
5.31
5.27
5.24
5.04
4.57
3.80
2.85
1.87
0.97
0.17
-0.63
-1.58
-2.77
-4.23
-5.92
-7.73
-9.48
-10.97
-11.92
-12.10
-11.36
-9.77
-7.56
-5.10
-2.70
-0.60
1.11
2.43
3.42
4.13
4.60
4.92
5.16
5.36
5.51
5.54
5.39
5.06
4.65
4.27
4.07
4.12
4.42
4.88
5.38
5.80
6.04
6.02
5.73
5.19
4.43
3.46
2.34
1.09
-0.22
-1.48
-2.55
-3.39
-3.99
-4.49
-5.08
-5.90
-7.07
-8.56
-10.28
-12.03
-13.54
-14.53
-14.73
-13.94
-12.15
-9.51
-6.38
-3.21
-0.48
1.52
2.69
3.19
3.34
3.47
3.79
4.29
4.85
5.26
5.43
5.38
5.23
5.14
5.18
5.31
5.46
5.56
5.63
5.69
5.80
5.92
5.96
5.79
5.33
4.58
3.60
2.51
1.45
0.53
-0.25
-0.90
-1.50
-2.11
-2.79
-3.54
-4.37
-5.30
-6.37
-7.65
-9.16
-10.84
-12.45
-13.71
-14.29
-14.00
-12.82
-10.95
-8.71
-6.41
-4.31
-2.50
-0.98
0.31
1.39
2.26
2.90
3.28
3.47
3.53
3.58
3.69
3.95
4.38
4.93
5.51
5.96
6.16
6.08
5.84
5.63
5.62
5.83
6.14
6.35
6.26
5.82
5.14
4.38
3.69
3.10
2.54
1.90
1.12
0.23
-0.70
-1.58
-2.33
-2.97
-3.56
-4.21
-5.06
-6.21
-7.70
-9.45
-11.28
-12.98
-14.26
-14.92
-14.79
-13.83
-12.16
-10.00
-7.66
-5.44
-3.52
-1.96
-0.71
0.35
1.29
2.15
2.90
3.48
3.88
4.08
4.13
4.10
4.11
4.25
4.57
5.05
5.60
6.11
6.50
6.71
6.74
6.59
6.25
5.75
5.13
4.51
3.99
3.63
3.41
3.23
2.97
2.54
1.90
1.01
-0.10
-1.38
-2.71
-3.91
-4.85
-5.46
-5.81
-6.11
-6.57
-7.37
-8.53
-9.93
-11.33
-12.44
-13.04
-12.95
-12.14
-10.69
-8.80
-6.73
-4.71
-2.87
-1.29
0.05
1.17
2.04
2.67
3.05
3.20
3.21
3.15
3.13
3.21
3.43
3.75
4.11
4.42
4.58
4.57
4.41
4.21
4.07
4.09
4.28
4.55
4.77
4.78
4.46
3.77
2.74
1.50
0.21
-0.97
-1.93
-2.66
-3.20
-3.65
-4.18
-4.90
-5.91
-7.21
-8.72
-10.30
-11.73
-12.74
-13.08
-12.57
-11.20
-9.14
-6.70
-4.31
-2.33
-0.96
-0.16
0.26
0.56
0.93
1.39
1.88
2.29
2.56
2.70
2.74
2.70
2.58
2.43
2.30
2.33
2.65
3.28
4.13
5.02
5.67
5.91
5.63
4.87
3.81
2.66
1.63
0.87
0.38
0.09
-0.15
-0.46
-0.92
-1.55
-2.32
-3.22
-4.21
-5.28
-6.39
-7.53
-8.68
-9.84
-10.96
-11.95
-12.64
-12.87
-12.56
-11.70
-10.38
-8.69
-6.70
-4.49
-2.18
0.03
1.89
3.22
4.01
4.39
4.55
4.63
4.63
4.51
4.21
3.83
3.58
3.66
4.13
4.87
5.62
6.13
6.29
6.16
5.89
5.61
5.40
5.20
4.94
4.57
4.13
3.67
3.22
2.75
2.14
1.32
0.26
-0.94
-2.14
-3.21
-4.08
-4.78
-5.39
-6.00
-6.69
-7.53
-8.65
-10.11
-11.91
-13.84
-15.57
-16.67
-16.85
-16.02
-14.33
-12.12
-9.69
-7.28
-5.00
-2.89
-0.99
0.61
1.85
2.72
3.27
3.63
3.92
4.21
4.53
4.85
5.11
5.28
5.31
5.23
5.10
5.06
5.20
5.56
6.06
6.51
6.73
6.61
6.15
5.50
4.81
4.21
3.72
3.28
2.79
2.16
1.37
0.45
-0.56
-1.59
-2.58
-3.47
-4.23
-4.86
-5.41
-6.00
-6.80
-7.95
-9.46
-11.20
-12.85
-14.06
-14.54
-14.16
-12.93
-11.01
-8.62
-6.02
-3.44
-1.14
0.73
2.08
2.96
3.48
3.78
3.98
4.09
4.10
3.98
3.80
3.68
3.77
4.15
4.79
5.56
6.29
6.81
7.05
7.01
6.77
6.48
6.25
6.12
6.07
5.98
5.72
5.17
4.29
3.09
1.68
0.24
-1.08
-2.13
-2.82
-3.23
-3.51
-3.95
-4.82
-6.30
-8.34
-10.65
-12.76
-14.19
-14.60
-13.88
-12.18
-9.78
-7.05
-4.31
-1.80
0.34
2.05
3.31
4.16
4.65
4.85
4.83
4.69
4.51
4.36
4.28
4.36
4.61
5.07
5.69
6.38
7.00
7.42
7.55
7.37
6.95
6.38
5.79
5.23
4.76
4.35
3.95
3.52
3.00
2.39
1.68
0.90
0.03
-0.96
-2.07
-3.27
-4.51
-5.70
-6.80
-7.88
-9.04
-10.41
-11.96
-13.46
-14.56
-14.86
-14.12
-12.35
-9.81
-6.94
-4.18
-1.82
0.03
1.47
2.69
3.80
4.83
5.68
6.20
6.35
6.22
6.03
5.98
6.19
6.60
7.04
7.32
7.38
7.27
7.13
7.13
7.31
7.63
7.93
8.07
7.94
7.58
7.07
6.53
6.04
5.59
5.12
4.48
3.62
2.53
1.32
0.09
-1.07
-2.19
-3.30
-4.45
-5.58
-6.61
-7.50
-8.30
-9.18
-10.32
-11.84
-13.62
-15.35
-16.57
-16.86
-16.04
-14.19
-11.63
-8.78
-5.99
-3.45
-1.23
0.70
2.35
3.66
4.57
5.06
5.22
5.22
5.29
5.59
6.17
6.95
7.78
8.50
9.00
9.26
9.30
9.22
9.09
8.99
8.92
8.86
8.71
8.42
7.94
7.30
6.59
5.88
5.22
4.59
3.91
3.09
2.05
0.80
-0.62
-2.08
-3.45
-4.65
-5.64
-6.49
-7.32
-8.28
-9.48
-10.96
-12.61
-14.22
-15.48
-16.08
-15.79
-14.57
-12.53
-9.91
-7.05
-4.21
-1.62
0.59
2.42
3.88
5.02
5.89
6.51
6.94
7.21
7.37
7.48
7.59
7.73
7.92
8.12
8.32
8.49
8.66
8.87
9.12
9.39
9.62
9.71
9.62
9.31
8.82
8.20
7.48
6.70
5.87
5.00
4.10
3.15
2.15
1.08
-0.04
-1.16
-2.24
-3.22
-4.13
-5.02
-5.98
-7.10
-8.45
-10.03
-11.76
-13.45
-14.82
-15.56
-15.41
-14.30
-12.37
-9.92
-7.33
-4.87
-2.68
-0.78
0.88
2.31
3.52
4.46
5.14
5.59
5.90
6.13
6.33
6.53
6.77
7.03
7.31
7.60
7.84
8.01
8.13
8.22
8.29
8.34
8.31
8.12
7.71
7.09
6.31
5.48
4.73
4.12
3.64
3.19
2.63
1.88
0.91
-0.17
-1.23
-2.17
-3.02
-3.89
-4.96
-6.36
-8.11
-10.09
-12.09
-13.88
-15.21
-15.91
-15.84
-14.92
-13.17
-10.75
-7.96
-5.15
-2.68
-0.70
0.76
1.84
2.71
3.47
4.11
4.57
4.80
4.81
4.68
4.51
4.37
4.31
4.37
4.58
4.94
5.38
5.77
5.99
5.94
5.63
5.11
4.44
3.63
2.66
1.50
0.20
-1.09
-2.26
-3.26
-4.21
-5.31
-6.74
-8.50
-10.43
-12.28
-13.89
-15.21
-16.36
-17.47
-18.60
-19.64
-20.38
-20.60
-20.06
-18.56
-15.90
-11.97
-6.83
-0.70
5.96
12.68
18.98
24.56
29.26
32.99
35.65
37.23
37.74
37.36
36.33
34.94
33.34
31.61
29.75
27.79
25.85
24.04
22.45
21.02
19.61
18.09
16.42
14.63
12.86
11.23
9.77
8.44
7.11
5.72
4.19
2.55
0.80
-1.03
-2.90
-4.76
-6.54
-8.19
-9.66
-10.99
-12.27
-13.58
-15.03
-16.62
-18.26
-19.80
-21.04
-21.78
-21.88
-21.29
-20.00
-18.06
-15.59
-12.71
-9.64
-6.58
-3.79
-1.41
0.45
1.81
2.71
3.31
3.70
3.97
4.20
4.38
4.53
4.60
4.59
4.51
4.46
4.51
4.73
5.12
5.62
6.11
6.46
6.62
6.61
6.51
6.37
6.27
6.17
5.96
5.49
4.62
3.34
1.75
0.03
-1.61
-3.03
-4.26
-5.44
-6.72
-8.19
-9.76
-11.19
-12.16
-12.37
-11.69
-10.11
-7.81
-5.06
-2.21
0.42
2.54
4.03
4.92
5.36
5.57
5.71
5.84
5.88
5.70
5.27
4.62
3.93
3.39
3.14
3.23
3.60
4.15
4.75
5.32
5.81
6.23
6.57
6.81
6.88
6.77
6.51
6.21
6.01
6.07
6.44
7.09
7.89
8.71
9.43
10.03
10.50
10.84
11.07
11.21
11.36
11.70
12.39
13.51
14.99
16.56
17.96
18.96
19.50
19.65
19.52
19.16
18.52
17.52
16.16
14.56
12.98
11.61
10.56
9.72
8.93
7.99
6.89
5.73
4.73
4.08
3.83
3.93
4.17
4.35
4.30
3.93
3.27
2.42
1.48
0.56
-0.26
-0.98
-1.63
-2.29
-3.07
-4.02
-5.15
-6.41
-7.68
-8.83
-9.66
-10.03
-9.81
-9.00
-7.66
-5.99
-4.18
-2.43
-0.86
0.49
1.58
2.44
3.03
3.32
3.33
3.06
2.60
2.05
1.52
1.11
0.90
0.93
1.19
1.63
2.17
2.69
3.07
3.21
3.04
2.56
1.81
0.85
-0.25
-1.48
-2.85
-4.38
-6.04
-7.74
-9.40
-11.00
-12.65
-14.53
-16.85
-19.64
-22.72
-25.70
-28.07
-29.41
-29.46
-28.25
-25.99
-23.03
-19.68
-16.21
-12.83
-9.69
-6.87
-4.44
-2.39
-0.68
0.72
1.82
2.63
3.13
3.40
3.57
3.85
4.42
5.37
6.70
8.28
9.96
11.55
12.93
13.99
14.65
14.89
14.78
14.47
14.16
14.03
14.14
14.39
14.54
14.32
13.57
12.28
10.63
8.83
7.03
5.15
2.93
0.02
-3.79
-8.46
-13.60
-18.55
-22.64
-25.38
-26.60
-26.53
-25.62
-24.41
-23.30
-22.46
-21.85
-21.31
-20.68
-19.91
-19.08
-18.31
-17.72
-17.38
-17.23
-17.20
-17.21
-17.22
-17.22
-17.22
-17.21
-17.19
-17.13
-17.08
-17.08
-17.18
-17.42
-17.79
-18.22
-18.62
-18.92
-19.11
-19.22
-19.39
-19.75
-20.35
-21.13
-21.85
-22.25
-22.10
-21.39
-20.26
-19.00
-17.84
-16.91
-16.16
-15.46
-14.70
-13.80
-12.80
-11.79
-10.84
-9.96
-9.12
-8.23
-7.21
-6.05
-4.78
-3.51
-2.40
-1.56
-1.08
-0.99
-1.22
-1.65
-2.17
-2.65
-3.01
-3.19
-3.15
-2.91
-2.53
-2.12
-1.79
-1.60
-1.59
-1.75
-2.06
-2.52
-3.18
-4.09
-5.28
-6.74
-8.41
-10.14
-11.80
-13.29
-14.57
-15.72
-16.87
-18.20
-19.84
-21.84
-24.14
-26.60
-29.08
-31.37
-33.28
-34.62
-35.22
-35.08
-34.34
-33.30
-32.30
-31.53
-30.91
-30.13
-28.78
-26.56
-23.44
-19.66
-15.62
-11.70
-8.11
-4.88
-1.93
0.83
3.42
5.78
7.79
9.40
10.62
11.56
12.33
13.01
13.63
14.14
14.47
14.64
14.69
14.75
14.91
15.23
15.62
15.95
16.04
15.81
15.25
14.50
13.71
13.02
12.43
11.88
11.26
10.51
9.62
8.57
7.39
6.05
4.50
2.77
0.98
-0.66
-1.94
-2.80
-3.34
-3.75
-4.22
-4.69
-4.94
-4.61
-3.46
-1.42
1.24
4.13
6.81
8.99
10.57
11.62
12.31
12.83
13.36
14.00
14.74
15.48
16.08
16.43
16.52
16.45
16.38
16.42
16.56
16.70
16.71
16.51
16.09
15.52
14.84
14.03
13.06
11.92
10.65
9.40
8.31
7.45
6.74
6.03
5.13
3.97
2.60
1.20
-0.02
-0.98
-1.72
-2.41
-3.25
-4.41
-5.91
-7.69
-9.61
-11.50
-13.19
-14.47
-15.12
-14.96
-13.94
-12.13
-9.78
-7.19
-4.62
-2.24
-0.12
1.72
3.27
4.51
5.40
5.96
6.24
6.35
6.41
6.51
6.69
6.92
7.12
7.22
7.17
7.00
6.83
6.79
6.92
7.20
7.46
7.51
7.26
6.70
5.94
5.10
4.25
3.36
2.39
1.29
0.11
-1.08
-2.23
-3.35
-4.56
-5.95
-7.55
-9.23
-10.71
-11.65
-11.79
-11.03
-9.46
-7.34
-4.95
-2.52
-0.17
2.07
4.18
6.05
7.58
8.62
9.16
9.28
9.16
8.98
8.80
8.66
8.48
8.26
7.99
7.74
7.56
7.50
7.52
7.57
7.56
7.41
7.04
6.42
5.56
4.53
3.40
2.28
1.22
0.24
-0.70
-1.67
-2.75
-4.05
-5.64
-7.55
-9.72
-11.96
-14.00
-15.53
-16.26
-15.99
-14.67
-12.41
-9.46
-6.17
-2.88
0.12
2.68
4.75
6.37
7.57
8.37
8.80
8.88
8.73
8.49
8.36
8.45
8.82
9.38
10.01
10.53
10.85
10.91
10.75
10.41
9.96
9.43
8.80
8.08
7.24
6.27
5.13
3.85
2.43
0.92
-0.60
-2.07
-3.41
-4.61
-5.72
-6.89
-8.29
-10.04
-12.11
-14.24
-15.99
-16.84
-16.41
-14.57
-11.57
-7.87
-4.02
-0.47
2.54
4.95
6.83
8.24
9.27
9.96
10.37
10.58
10.66
10.70
10.74
10.81
10.92
11.08
11.29
11.51
11.72
11.87
11.97
11.98
11.92
11.72
11.33
10.69
9.80
8.72
7.55
6.40
5.31
4.25
3.16
1.98
0.67
-0.73
-2.13
-3.46
-4.72
-5.99
-7.41
-9.14
-11.23
-13.55
-15.82
-17.65
-18.61
-18.44
-17.06
-14.59
-11.32
-7.58
-3.70
0.02
3.34
6.07
8.10
9.39
10.04
10.27
10.37
10.62
11.16
11.98
12.92
13.80
14.47
14.90
15.13
15.24
15.27
15.22
15.11
14.96
14.78
14.59
14.31
13.80
13.00
11.97
10.89
9.97
9.31
8.83
8.33
7.60
6.57
5.36
4.17
3.15
2.31
1.57
0.78
-0.13
-1.18
-2.38
-3.68
-5.05
-6.35
-7.28
-7.46
-6.54
-4.38
-1.12
2.87
7.14
11.30
15.12
18.51
21.41
23.74
25.42
26.38
26.66
26.43
25.88
25.27
24.79
24.60
24.72
25.13
25.64
25.90
25.48
23.88
20.74
15.97
9.81
2.82
-4.23
-10.56
-15.62
-19.19
-21.45
-22.83
-23.84
-24.93
-26.37
-28.27
-30.61
-33.28
-36.06
-38.69
-40.88
-42.39
-43.18
-43.41
-43.42
-43.58
-44.14
-45.11
-46.30
-47.43
-48.17
-48.25
-47.44
-45.51
-42.28
-37.68
-31.77
-24.77
-17.02
-8.93
-0.86
6.87
14.09
20.75
26.93
32.69
37.98
42.64
46.44
49.26
51.22
52.76
54.42
56.64
59.52
62.79
65.91
68.27
69.24
68.24
64.81
58.76
50.38
40.63
30.88
22.48
16.13
11.55
7.63
3.03
-3.05
-10.45
-18.13
-24.84
-29.76
-32.96
-35.21
-37.47
-40.30
-43.65
-46.96
-49.57
-51.12
-51.57
-51.12
-49.91
-47.91
-44.96
-41.08
-36.49
-31.72
-27.34
-23.74
-21.02
-19.00
-17.36
-15.76
-13.91
-11.55
-8.45
-4.49
0.24
5.37
10.34
14.57
17.69
19.71
21.02
22.11
23.36
24.84
26.29
27.32
27.57
26.92
25.51
23.60
21.45
19.19
16.88
14.49
12.06
9.71
7.55
5.61
3.81
1.90
-0.34
-3.03
-6.08
-9.14
-11.74
-13.43
-13.94
-13.30
-11.73
-9.61
-7.32
-5.16
-3.31
-1.84
-0.76
-0.05
0.39
0.67
0.93
1.26
1.67
2.05
2.23
2.00
1.33
0.30
-0.86
-1.87
-2.53
-2.81
-2.81
-2.68
-2.60
-2.63
-2.77
-2.98
-3.23
-3.50
-3.81
-4.16
-4.56
-4.97
-5.42
-5.92
-6.53
-7.27
-8.09
-8.91
-9.64
-10.22
-10.68
-11.01
-11.22
-11.24
-10.91
-10.07
-8.62
-6.60
-4.22
-1.75
0.48
2.30
3.68
4.74
5.63
6.47
7.28
7.97
8.42
8.55
8.36
7.92
7.36
6.77
6.18
5.62
5.06
4.51
3.99
3.56
3.25
3.02
2.72
2.16
1.12
-0.53
-2.74
-5.29
-7.88
-10.24
-12.29
-14.09
-15.77
-17.47
-19.22
-21.00
-22.73
-24.38
-25.86
-27.08
-27.82
-27.80
-26.72
-24.41
-20.91
-16.45
-11.45
-6.38
-1.62
2.57
6.04
8.81
10.94
12.52
13.69
14.57
15.32
16.12
17.11
18.35
19.79
21.33
22.76
23.96
24.89
25.69
26.60
27.92
29.90
32.62
35.91
39.41
42.69
45.42
47.48
49.08
50.62
52.55
55.09
58.12
61.14
63.44
64.40
63.70
61.43
57.94
53.69
49.11
44.47
39.94
35.60
31.49
27.60
23.81
20.00
16.05
11.99
7.97
4.25
1.09
-1.32
-2.95
-3.87
-4.24
-4.31
-4.35
-4.58
-5.14
-6.01
-7.05
-8.06
-8.87
-9.43
-9.79
-10.10
-10.45
-10.85
-11.27
-11.62
-11.88
-12.04
-12.14
-12.17
-12.14
-12.01
-11.83
-11.66
-11.54
-11.47
-11.42
-11.35
-11.26
-11.20
-11.23
-11.41
-11.76
-12.24
-12.83
-13.51
-14.29
-15.11
-15.90
-16.62
-17.28
-17.93
-18.62
-19.24
-19.53
-19.12
-17.76
-15.44
-12.43
-9.21
-6.21
-3.76
-1.94
-0.69
0.11
0.56
0.74
0.73
0.61
0.50
0.45
0.47
0.51
0.49
0.30
-0.09
-0.67
-1.34
-1.96
-2.39
-2.59
-2.60
-2.54
-2.53
-2.63
-2.86
-3.19
-3.65
-4.28
-5.10
-6.11
-7.21
-8.24
-9.09
-9.72
-10.22
-10.79
-11.60
-12.73
-14.10
-15.49
-16.57
-17.08
-16.87
-15.96
-14.51
-12.77
-10.95
-9.14
-7.35
-5.52
-3.62
-1.67
0.20
1.84
3.11
3.93
4.30
4.35
4.22
4.05
3.98
4.05
4.23
4.47
4.68
4.76
4.68
4.43
4.07
3.68
3.38
3.19
3.07
2.93
2.62
2.07
1.31
0.44
-0.41
-1.17
-1.89
-2.63
-3.50
-4.54
-5.71
-6.95
-8.20
-9.49
-10.87
-12.39
-14.06
-15.72
-17.13
-17.98
-18.00
-17.11
-15.39
-13.12
-10.59
-8.10
-5.79
-3.72
-1.89
-0.25
1.21
2.50
3.62
4.56
5.29
5.80
6.08
6.16
6.13
6.06
6.00
6.00
6.04
6.14
6.31
6.56
6.82
7.01
7.01
6.75
6.21
5.48
4.70
3.95
3.29
2.71
2.18
1.69
1.21
0.71
0.12
-0.60
-1.49
-2.49
-3.49
-4.38
-5.12
-5.79
-6.57
-7.64
-9.10
-10.88
-12.76
-14.46
-15.69
-16.24
-16.00
-14.93
-13.12
-10.77
-8.16
-5.61
-3.42
-1.70
-0.44
0.52
1.34
2.13
2.87
3.49
3.89
4.11
4.25
4.44
4.71
4.97
5.08
4.95
4.67
4.47
4.58
5.07
5.80
6.43
6.62
6.23
5.35
4.26
3.23
2.40
1.77
1.24
0.70
0.10
-0.58
-1.34
-2.20
-3.16
-4.20
-5.23
-6.17
-6.99
-7.75
-8.54
-9.48
-10.63
-11.93
-13.26
-14.39
-15.11
-15.21
-14.59
-13.32
-11.56
-9.59
-7.59
-5.68
-3.85
-2.09
-0.45
0.94
1.88
2.27
2.19
1.91
1.74
1.88
2.35
2.99
3.57
3.91
3.99
3.90
3.76
3.61
3.42
3.17
2.83
2.46
2.13
1.92
1.78
1.60
1.24
0.64
-0.18
-1.08
-1.90
-2.58
-3.15
-3.73
-4.44
-5.34
-6.40
-7.58
-8.84
-10.17
-11.49
-12.67
-13.43
-13.50
-12.71
-11.06
-8.80
-6.24
-3.68
-1.31
0.80
2.58
4.00
4.99
5.55
5.72
5.63
5.43
5.23
5.11
5.08
5.13
5.20
5.25
5.21
5.09
4.95
4.89
5.01
5.27
5.53
5.56
5.21
4.50
3.64
2.89
2.45
2.33
2.32
2.13
1.51
0.40
-1.04
-2.54
-3.81
-4.74
-5.36
-5.83
-6.36
-7.07
-8.02
-9.18
-10.54
-12.10
-13.79
-15.46
-16.78
-17.38
-16.93
-15.37
-12.91
-10.00
-7.14
-4.66
-2.71
-1.20
0.00
1.04
1.97
2.79
3.50
4.12
4.68
5.18
5.63
6.01
6.32
6.58
6.81
6.98
7.08
7.07
6.96
6.80
6.66
6.55
6.39
6.09
5.58
4.89
4.13
3.46
2.93
2.46
1.89
1.10
0.06
-1.10
-2.19
-3.10
-3.83
-4.57
-5.50
-6.75
-8.25
-9.85
-11.37
-12.70
-13.79
-14.63
-15.12
-15.09
-14.38
-12.91
-10.77
-8.20
-5.52
-3.02
-0.85
0.94
2.40
3.57
4.51
5.25
5.78
6.14
6.33
6.40
6.40
6.39
6.45
6.64
6.95
7.36
7.80
8.19
8.47
8.61
8.62
8.48
8.18
7.67
6.96
6.08
5.14
4.29
3.64
3.20
2.87
2.45
1.76
0.72
-0.56
-1.87
-3.00
-3.83
-4.40
-4.91
-5.58
-6.60
-8.04
-9.79
-11.64
-13.27
-14.37
-14.71
-14.20
-12.93
-11.09
-8.95
-6.74
-4.64
-2.73
-1.03
0.47
1.81
3.01
4.09
5.00
5.70
6.11
6.22
6.07
5.82
5.61
5.59
5.78
6.13
6.50
6.77
6.85
6.72
6.44
6.09
5.71
5.27
4.75
4.11
3.35
2.60
1.97
1.51
1.11
0.59
-0.28
-1.60
-3.33
-5.25
-7.11
-8.77
-10.21
-11.50
-12.69
-13.69
-14.33
-14.39
-13.72
-12.31
-10.30
-7.88
-5.28
-2.70
-0.32
1.72
3.29
4.33
4.87
5.04
5.00
4.95
5.03
5.31
5.78
6.34
6.89
7.30
7.51
7.51
7.36
7.17
7.05
7.06
7.15
7.24
7.16
6.84
6.28
5.59
4.95
4.48
4.16
3.87
3.42
2.66
1.52
0.09
-1.47
-3.02
-4.41
-5.61
-6.61
-7.50
-8.40
-9.46
-10.78
-12.38
-14.17
-15.94
-17.38
-18.19
-18.13
-17.11
-15.15
-12.47
-9.42
-6.36
-3.63
-1.40
0.33
1.68
2.76
3.64
4.29
4.69
4.86
4.94
5.09
5.42
5.91
6.44
6.85
7.01
6.94
6.72
6.49
6.36
6.34
6.39
6.43
6.37
6.13
5.68
4.98
4.06
2.97
1.76
0.52
-0.73
-1.96
-3.19
-4.45
-5.79
-7.24
-8.81
-10.44
-11.96
-13.14
-13.73
-13.52
-12.43
-10.54
-8.09
-5.41
-2.81
-0.50
1.46
3.13
4.59
5.88
6.94
7.68
8.05
8.05
7.77
7.39
7.08
6.97
7.10
7.41
7.82
8.22
8.55
8.80
8.99
9.16
9.29
9.29
9.04
8.46
7.56
6.46
5.29
4.19
3.20
2.31
1.43
0.53
-0.46
-1.56
-2.82
-4.26
-5.82
-7.40
-8.91
-10.28
-11.57
-12.90
-14.41
-16.14
-17.96
-19.59
-20.66
-20.86
-19.98
-18.00
-15.10
-11.60
-7.93
-4.44
-1.43
1.01
2.90
4.36
5.52
6.45
7.21
7.81
8.29
8.68
9.03
9.35
9.63
9.83
9.92
9.88
9.74
9.58
9.49
9.48
9.53
9.48
9.19
8.57
7.66
6.62
5.66
4.89
4.30
3.73
2.95
1.82
0.31
-1.42
-3.17
-4.75
-6.06
-7.18
-8.30
-9.63
-11.28
-13.24
-15.35
-17.39
-19.09
-20.20
-20.48
-19.76
-17.98
-15.28
-11.92
-8.33
-4.89
-1.89
0.59
2.58
4.14
5.33
6.17
6.75
7.18
7.63
8.20
8.87
9.54
10.09
10.47
10.70
10.86
11.01
11.13
11.20
11.19
11.05
10.76
10.31
9.68
8.90
8.05
7.20
6.40
5.62
4.79
3.83
2.76
1.62
0.47
-0.70
-1.98
-3.47
-5.18
-7.04
-8.90
-10.66
-12.30
-13.89
-15.49
-17.01
-18.24
-18.86
-18.59
-17.30
-15.05
-12.10
-8.78
-5.40
-2.23
0.53
2.79
4.51
5.75
6.60
7.18
7.62
7.99
8.33
8.64
8.90
9.10
9.22
9.26
9.24
9.24
9.32
9.49
9.71
9.82
9.66
9.14
8.31
7.38
6.56
6.00
5.64
5.29
4.69
3.70
2.31
0.68
-1.02
-2.63
-4.08
-5.42
-6.74
-8.15
-9.74
-11.50
-13.33
-14.98
-16.15
-16.53
-15.90
-14.22
-11.65
-8.52
-5.22
-2.08
0.65
2.91
4.72
6.17
7.31
8.12
8.55
8.60
8.36
8.04
7.88
8.04
8.54
9.23
9.91
10.40
10.68
10.80
10.82
10.79
10.68
10.41
9.95
9.35
8.67
8.03
7.52
7.16
6.89
6.61
6.16
5.45
4.44
3.15
1.67
0.06
-1.63
-3.35
-5.03
-6.58
-7.96
-9.25
-10.65
-12.36
-14.48
-16.86
-19.06
-20.56
-20.91
-19.95
-17.82
-14.91
-11.66
-8.43
-5.41
-2.68
-0.24
1.90
3.73
5.21
6.31
7.03
7.43
7.59
7.65
7.74
7.99
8.45
9.07
9.71
10.23
10.52
10.54
10.37
10.07
9.69
9.24
8.68
7.98
7.18
6.38
5.63
4.92
4.14
3.16
1.88
0.34
-1.30
-2.83
-4.12
-5.17
-6.16
-7.32
-8.84
-10.77
-12.97
-15.12
-16.87
-17.84
-17.76
-16.52
-14.16
-10.98
-7.36
-3.76
-0.57
2.01
3.98
5.48
6.74
7.88
8.91
9.76
10.32
10.57
10.58
10.49
10.46
10.60
10.90
11.31
11.73
12.08
12.34
12.51
12.62
12.69
12.65
12.43
11.92
11.06
9.84
8.38
6.86
5.51
4.45
3.67
3.00
2.22
1.10
-0.40
-2.14
-3.84
-5.26
-6.30
-7.10
-7.93
-9.07
-10.65
-12.64
-14.86
-17.16
-19.39
-21.38
-22.87
-23.52
-22.99
-21.15
-18.14
-14.39
-10.44
-6.74
-3.52
-0.83
1.40
3.20
4.58
5.53
6.14
6.53
6.89
7.32
7.88
8.53
9.17
9.72
10.13
10.40
10.65
10.99
11.54
12.26
13.00
13.49
13.48
12.92
11.93
10.77
9.70
8.81
8.07
7.36
6.59
5.77
4.93
4.06
3.09
1.86
0.29
-1.59
-3.58
-5.44
-7.01
-8.29
-9.41
-10.62
-12.09
-13.90
-15.98
-18.10
-19.97
-21.26
-21.64
-20.91
-19.02
-16.15
-12.66
-9.00
-5.60
-2.73
-0.47
1.28
2.66
3.81
4.81
5.69
6.48
7.22
7.93
8.65
9.30
9.83
10.16
10.32
10.35
10.33
10.31
10.32
10.36
10.42
10.49
10.51
10.34
9.88
9.06
7.95
6.71
5.54
4.57
3.80
3.12
2.36
1.43
0.27
-1.05
-2.47
-3.88
-5.21
-6.42
-7.52
-8.66
-10.03
-11.77
-13.90
-16.16
-18.13
-19.29
-19.25
-17.87
-15.28
-11.90
-8.24
-4.79
-1.82
0.60
2.56
4.20
5.61
6.77
7.61
8.05
8.09
7.84
7.50
7.24
7.18
7.34
7.71
8.21
8.81
9.41
9.92
10.27
10.39
10.29
10.04
9.73
9.39
8.98
8.42
7.61
6.56
5.39
4.26
3.28
2.39
1.42
0.17
-1.49
-3.43
-5.38
-7.03
-8.21
-9.00
-9.69
-10.63
-12.07
-14.03
-16.28
-18.46
-20.18
-21.12
-21.10
-20.06
-18.10
-15.41
-12.26
-8.90
-5.60
-2.54
0.13
2.38
4.22
5.70
6.85
7.68
8.19
8.40
8.38
8.27
8.20
8.22
8.31
8.38
8.38
8.34
8.37
8.56
8.94
9.40
9.75
9.81
9.50
8.86
8.00
7.04
6.02
4.93
3.77
2.51
1.21
-0.09
-1.31
-2.47
-3.58
-4.73
-5.98
-7.37
-8.88
-10.47
-12.07
-13.57
-14.81
-15.56
-15.57
-14.61
-12.64
-9.84
-6.58
-3.31
-0.43
1.90
3.68
5.06
6.18
7.09
7.77
8.13
8.15
7.86
7.41
6.98
6.74
6.80
7.18
7.79
8.47
9.08
9.51
9.79
9.96
10.09
10.13
10.01
9.64
8.99
8.14
7.19
6.25
5.33
4.41
3.44
2.43
1.40
0.38
-0.70
-1.93
-3.38
-5.05
-6.81
-8.47
-9.90
-11.15
-12.37
-13.80
-15.62
-17.80
-20.08
-22.01
-23.14
-23.12
-21.84
-19.46
-16.34
-12.90
-9.47
-6.24
-3.28
-0.63
1.65
3.53
4.95
5.99
6.78
7.48
8.18
8.87
9.43
9.74
9.76
9.56
9.29
9.08
9.00
9.08
9.30
9.63
10.01
10.34
10.45
10.19
9.43
8.24
6.80
5.35
4.09
3.09
2.28
1.48
0.55
-0.57
-1.86
-3.25
-4.66
-6.04
-7.38
-8.71
-10.09
-11.60
-13.28
-15.16
-17.18
-19.21
-20.97
-22.17
-22.47
-21.67
-19.73
-16.81
-13.25
-9.46
-5.80
-2.53
0.24
2.55
4.50
6.15
7.54
8.65
9.41
9.80
9.88
9.76
9.65
9.68
9.91
10.29
10.70
11.03
11.24
11.37
11.51
11.70
11.93
12.11
12.12
11.87
11.34
10.56
9.60
8.52
7.36
6.13
4.80
3.31
1.68
-0.03
-1.72
-3.26
-4.60
-5.77
-6.83
-7.87
-8.97
-10.20
-11.65
-13.40
-15.46
-17.66
-19.69
-21.08
-21.46
-20.63
-18.64
-15.75
-12.32
-8.67
-5.06
-1.72
1.17
3.43
5.01
5.94
6.36
6.45
6.41
6.38
6.44
6.60
6.86
7.19
7.57
7.97
8.38
8.75
9.06
9.28
9.41
9.45
9.39
9.15
8.61
7.66
6.31
4.69
3.05
1.65
0.64
-0.04
-0.63
-1.39
-2.51
-4.02
-5.81
-7.74
-9.73
-11.73
-13.66
-15.35
-16.53
-16.89
-16.23
-14.53
-11.96
-8.84
-5.47
-2.12
1.04
3.89
6.25
7.97
8.96
9.28
9.14
8.82
8.57
8.51
8.62
8.79
8.93
9.02
9.11
9.28
9.58
9.92
10.19
10.27
10.10
9.70
9.17
8.61
8.06
7.49
6.86
6.08
5.15
4.08
2.94
1.74
0.45
-0.98
-2.59
-4.31
-6.02
-7.56
-8.84
-9.88
-10.86
-12.01
-13.58
-15.67
-18.21
-20.95
-23.49
-25.37
-26.20
-25.69
-23.83
-20.79
-16.92
-12.67
-8.48
-4.68
-1.45
1.15
3.18
4.70
5.80
6.56
7.12
7.65
8.28
9.06
9.93
10.72
11.24
11.44
11.40
11.34
11.42
11.72
12.13
12.49
12.63
12.46
11.97
11.21
10.21
9.03
7.70
6.31
4.90
3.52
2.15
0.73
-0.73
-2.22
-3.67
-5.03
-6.32
-7.59
-8.92
-10.39
-12.07
-14.00
-16.18
-18.53
-20.81
-22.63
-23.54
-23.20
-21.49
-18.56
-14.85
-10.83
-6.93
-3.41
-0.32
2.31
4.50
6.27
7.62
8.64
9.44
10.14
10.82
11.47
12.00
12.32
12.41
12.35
12.27
12.28
12.40
12.57
12.69
12.74
12.72
12.69
12.64
12.50
12.12
11.39
10.30
8.94
7.51
6.17
4.95
3.78
2.49
0.95
-0.85
-2.77
-4.64
-6.27
-7.59
-8.67
-9.72
-11.00
-12.73
-14.95
-17.53
-20.12
-22.26
-23.53
-23.64
-22.52
-20.29
-17.22
-13.64
-9.88
-6.24
-2.90
0.02
2.46
4.44
5.98
7.13
7.99
8.64
9.18
9.69
10.19
10.65
10.99
11.20
11.31
11.44
11.72
12.20
12.80
13.36
13.68
13.61
13.15
12.37
11.42
10.43
9.47
8.53
7.55
6.49
5.31
3.99
2.57
1.11
-0.37
-1.86
-3.37
-4.95
-6.65
-8.50
-10.50
-12.60
-14.65
-16.41
-17.54
-17.70
-16.66
-14.41
-11.23
-7.60
-4.02
-0.85
1.79
3.97
5.83
7.41
8.64
9.40
9.64
9.45
9.08
8.84
8.94
9.45
10.23
11.03
11.58
11.73
11.51
11.08
10.65
10.39
10.35
10.39
10.34
10.00
9.33
8.37
7.28
6.18
5.13
4.10
2.98
1.72
0.29
-1.23
-2.75
-4.14
-5.36
-6.42
-7.40
-8.39
-9.54
-10.93
-12.66
-14.77
-17.21
-19.84
-22.36
-24.39
-25.50
-25.35
-23.81
-21.01
-17.29
-13.14
-9.00
-5.26
-2.09
0.47
2.48
4.08
5.37
6.42
7.29
8.03
8.69
9.26
9.71
9.98
10.04
9.95
9.88
9.98
10.36
11.00
11.72
12.30
12.55
12.39
11.89
11.22
10.48
9.71
8.88
7.95
6.94
5.89
4.90
3.97
3.03
1.97
0.68
-0.86
-2.56
-4.28
-5.89
-7.32
-8.59
-9.77
-11.00
-12.37
-14.03
-16.05
-18.39
-20.83
-22.95
-24.22
-24.19
-22.63
-19.66
-15.71
-11.36
-7.13
-3.37
-0.26
2.20
4.07
5.46
6.46
7.21
7.87
8.54
9.30
10.15
11.01
11.73
12.18
12.26
12.00
11.56
11.17
11.07
11.37
12.03
12.85
13.58
14.02
14.04
13.60
12.67
11.31
9.62
7.82
6.15
4.82
3.87
3.19
2.58
1.82
0.81
-0.46
-1.92
-3.49
-5.11
-6.69
-8.18
-9.57
-10.86
-12.18
-13.67
-15.43
-17.40
-19.41
-21.14
-22.22
-22.35
-21.32
-19.11
-15.93
-12.10
-8.04
-4.15
-0.73
2.06
4.15
5.58
6.46
6.96
7.28
7.60
8.01
8.49
8.95
9.28
9.47
9.60
9.78
10.05
10.40
10.74
10.97
11.07
11.05
10.90
10.61
10.12
9.39
8.47
7.49
6.57
5.77
5.03
4.18
3.11
1.74
0.13
-1.56
-3.18
-4.61
-5.82
-6.90
-8.08
-9.57
-11.56
-14.01
-16.62
-18.84
-20.08
-19.90
-18.23
-15.37
-11.90
-8.39
-5.23
-2.53
-0.23
1.79
3.53
4.91
5.83
6.29
6.38
6.30
6.19
6.15
6.16
6.17
6.18
6.22
6.34
6.56
6.87
7.22
7.53
7.73
7.75
7.53
7.07
6.36
5.44
4.36
3.19
1.99
0.80
-0.40
-1.60
-2.80
-4.00
-5.20
-6.38
-7.54
-8.72
-10.03
-11.59
-13.49
-15.69
-17.94
-19.81
-20.85
-20.69
-19.23
-16.66
-13.38
-9.83
-6.34
-3.11
-0.25
2.18
4.13
5.51
6.34
6.68
6.69
6.55
6.41
6.39
6.52
6.78
7.13
7.50
7.88
8.24
8.60
8.93
9.16
9.22
9.04
8.61
7.99
7.26
6.51
5.74
4.90
3.92
2.72
1.26
-0.40
-2.21
-4.01
-5.69
-7.13
-8.25
-9.15
-10.00
-11.07
-12.59
-14.66
-17.15
-19.74
-22.01
-23.55
-24.04
-23.36
-21.54
-18.76
-15.31
-11.54
-7.76
-4.25
-1.15
1.47
3.63
5.36
6.66
7.54
8.07
8.37
8.64
9.06
9.67
10.37
10.96
11.25
11.23
11.03
10.87
10.95
11.27
11.68
11.95
11.88
11.41
10.64
9.69
8.67
7.57
6.38
5.04
3.56
2.02
0.50
-0.95
-2.33
-3.67
-5.00
-6.37
-7.81
-9.39
-11.20
-13.30
-15.70
-18.33
-20.99
-23.37
-25.08
-25.73
-25.04
-22.91
-19.56
-15.44
-11.13
-7.13
-3.77
-1.10
1.01
2.74
4.22
5.53
6.67
7.64
8.44
9.03
9.38
9.49
9.42
9.32
9.37
9.71
10.35
11.16
11.89
12.29
12.22
11.65
10.71
9.57
8.39
7.29
6.27
5.30
4.30
3.20
1.97
0.60
-0.90
-2.49
-4.14
-5.81
-7.47
-9.15
-10.89
-12.79
-14.87
-17.01
-18.96
-20.32
-20.70
-19.83
-17.72
-14.59
-10.87
-6.97
-3.24
0.10
2.91
5.14
6.76
7.81
8.40
8.74
9.01
9.38
9.88
10.47
11.05
11.53
11.89
12.13
12.27
12.36
12.41
12.43
12.38
12.20
11.84
11.27
10.49
9.57
8.56
7.50
6.38
5.15
3.80
2.36
0.91
-0.39
-1.49
-2.39
-3.25
-4.27
-5.70
-7.64
-10.04
-12.67
-15.14
-17.06
-18.04
-17.87
-16.49
-14.05
-10.81
-7.08
-3.23
0.43
3.61
6.12
7.86
8.87
9.29
9.33
9.20
9.06
9.01
9.10
9.33
9.68
10.12
10.60
11.08
11.50
11.86
12.14
12.34
12.43
12.37
12.09
11.53
10.68
9.63
8.50
7.44
6.55
5.84
5.18
4.35
3.17
1.57
-0.35
-2.35
-4.17
-5.62
-6.69
-7.51
-8.35
-9.46
-11.07
-13.23
-15.83
-18.53
-20.84
-22.23
-22.32
-21.00
-18.44
-15.04
-11.27
-7.52
-4.04
-0.96
1.70
3.96
5.86
7.45
8.73
9.71
10.35
10.69
10.81
10.88
11.06
11.44
12.01
12.60
13.07
13.32
13.37
13.32
13.28
13.23
13.05
12.61
11.81
10.73
9.55
8.51
7.74
7.21
6.75
6.15
5.26
4.07
2.66
1.16
-0.37
-1.92
-3.53
-5.19
-6.83
-8.41
-9.93
-11.51
-13.32
-15.43
-17.71
-19.80
-21.19
-21.46
-20.39
-18.08
-14.87
-11.20
-7.48
-4.02
-0.99
1.51
3.46
4.95
6.09
7.03
7.88
8.66
9.36
9.89
10.25
10.46
10.59
10.75
10.98
11.31
11.74
12.22
12.71
13.16
13.47
13.54
13.27
12.67
11.78
10.72
9.62
8.56
7.59
6.69
5.80
4.84
3.76
2.57
1.35
0.17
-0.86
-1.74
-2.57
-3.47
-4.59
-5.94
-7.51
-9.20
-10.95
-12.76
-14.62
-16.43
-17.96
-18.87
-18.85
-17.74
-15.64
-12.88
-9.87
-7.01
-4.50
-2.38
-0.56
1.08
2.63
4.05
5.21
6.00
6.37
6.43
6.39
6.45
6.76
7.27
7.86
8.31
8.52
8.49
8.32
8.13
7.97
7.83
7.63
7.32
6.92
6.49
6.12
5.80
5.45
4.94
4.20
3.26
2.21
1.18
0.22
-0.70
-1.62
-2.60
-3.61
-4.59
-5.48
-6.31
-7.20
-8.28
-9.60
-11.07
-12.44
-13.40
-13.64
-12.99
-11.44
-9.16
-6.47
-3.78
-1.42
0.35
1.54
2.26
2.73
3.14
3.55
3.91
4.13
4.17
4.08
3.97
3.92
3.96
4.06
4.16
4.24
4.34
4.48
4.65
4.76
4.72
4.45
3.96
3.31
2.59
1.84
1.08
0.28
-0.57
-1.46
-2.33
-3.19
-4.03
-4.91
-5.88
-6.98
-8.23
-9.61
-11.08
-12.52
-13.78
-14.60
-14.75
-14.06
-12.51
-10.28
-7.64
-4.93
-2.42
-0.28
1.43
2.75
3.74
4.45
4.94
5.23
5.36
5.35
5.24
5.10
5.01
5.00
5.08
5.18
5.24
5.21
5.12
5.08
5.17
5.40
5.67
5.81
5.65
5.14
4.34
3.40
2.47
1.63
0.86
0.11
-0.69
-1.59
-2.58
-3.63
-4.72
-5.78
-6.83
-7.85
-8.84
-9.83
-10.85
-11.89
-12.99
-14.17
-15.41
-16.62
-17.60
-18.07
-17.78
-16.57
-14.52
-11.87
-9.02
-6.32
-3.99
-2.09
-0.59
0.62
1.58
2.34
2.94
3.45
3.96
4.54
5.20
5.89
6.50
6.94
7.15
7.13
6.97
6.75
6.58
6.49
6.47
6.46
6.40
6.23
5.94
5.50
4.90
4.11
3.11
1.97
0.76
-0.41
-1.48
-2.43
-3.32
-4.19
-5.06
-5.93
-6.78
-7.64
-8.59
-9.76
-11.21
-12.92
-14.72
-16.30
-17.34
-17.53
-16.73
-15.03
-12.67
-10.03
-7.41
-4.98
-2.78
-0.75
1.16
2.90
4.37
5.46
6.13
6.47
6.61
6.65
6.67
6.66
6.63
6.65
6.78
7.06
7.46
7.87
8.14
8.22
8.11
7.90
7.66
7.40
7.07
6.62
6.02
5.31
4.53
3.70
2.77
1.69
0.42
-1.00
-2.47
-3.86
-5.07
-6.06
-6.87
-7.66
-8.57
-9.72
-11.16
-12.80
-14.47
-15.90
-16.86
-17.17
-16.73
-15.51
-13.58
-11.08
-8.26
-5.41
-2.79
-0.61
1.11
2.39
3.34
4.06
4.58
4.96
5.25
5.53
5.87
6.29
6.71
7.04
7.19
7.14
6.98
6.80
6.69
6.65
6.66
6.64
6.57
6.42
6.18
5.84
5.36
4.68
3.83
2.84
1.81
0.84
0.01
-0.67
-1.25
-1.86
-2.64
-3.72
-5.20
-7.03
-8.98
-10.68
-11.72
-11.76
-10.68
-8.56
-5.74
-2.59
0.52
3.34
5.74
7.65
9.04
9.94
10.43
10.61
10.67
10.71
10.76
10.80
10.77
10.66
10.52
10.44
10.45
10.50
10.48
10.31
9.95
9.47
8.94
8.37
7.73
6.92
5.87
4.60
3.19
1.76
0.35
-1.08
-2.63
-4.42
-6.49
-8.78
-11.12
-13.36
-15.35
-17.08
-18.63
-20.13
-21.68
-23.20
-24.43
-25.08
-24.88
-23.76
-21.87
-19.50
-16.98
-14.55
-12.27
-10.10
-7.93
-5.75
-3.60
-1.60
0.17
1.74
3.22
4.78
6.55
8.54
10.60
12.51
14.02
15.01
15.52
15.72
15.83
15.98
16.17
16.28
16.17
15.82
15.34
14.94
14.80
14.95
15.26
15.46
15.32
14.77
13.90
12.95
12.20
11.81
11.82
12.09
12.36
12.37
11.94
11.04
9.85
8.67
7.90
7.91
8.91
10.85
13.40
15.89
17.46
17.26
14.75
10.00
3.73
-2.89
-8.64
-12.72
-15.00
-15.93
-16.19
-16.33
-16.59
-16.91
-17.17
-17.37
-17.57
-17.76
-17.72
-17.01
-15.24
-12.34
-8.74
-5.23
-2.71
-1.81
-2.68
-5.08
-8.53
-12.60
-16.99
-21.56
-26.19
-30.73
-34.98
-38.75
-41.99
-44.72
-47.07
-49.15
-51.03
-52.70
-54.08
-55.03
-55.27
-54.50
-52.40
-48.85
-43.98
-38.15
-31.88
-25.71
-20.09
-15.32
-11.56
-8.80
-6.79
-5.07
-3.06
-0.29
3.38
7.68
12.03
15.88
18.94
21.37
23.63
26.13
28.92
31.61
33.61
34.44
34.07
32.92
31.70
30.99
31.01
31.55
32.12
32.24
31.67
30.34
28.35
25.80
22.79
19.49
16.11
12.91
10.05
7.56
5.26
2.90
0.30
-2.55
-5.38
-7.77
-9.22
-9.37
-8.12
-5.66
-2.49
0.72
3.35
4.98
5.51
5.11
4.11
2.82
1.48
0.25
-0.74
-1.35
-1.41
-0.83
0.30
1.76
3.19
4.32
5.03
5.42
5.70
6.13
6.85
7.89
9.13
10.38
11.40
11.94
11.73
10.60
8.49
5.59
2.34
-0.65
-2.81
-3.84
-3.84
-3.22
-2.59
-2.40
-2.80
-3.60
-4.45
-5.08
-5.40
-5.53
-5.62
-5.74
-5.82
-5.65
-5.06
-4.00
-2.57
-1.03
0.33
1.30
1.84
2.18
2.65
3.57
5.03
6.80
8.44
9.49
9.70
9.14
8.17
7.29
6.92
7.27
8.31
9.72
11.05
11.75
11.36
9.69
6.95
3.76
0.98
-0.61
-0.59
0.97
3.53
6.37
8.82
10.50
11.27
11.16
10.28
8.77
6.80
4.67
2.77
1.49
1.11
1.63
2.77
4.09
5.16
5.71
5.69
5.23
4.54
3.74
2.87
1.95
0.96
-0.04
-0.96
-1.72
-2.32
-2.74
-2.98
-2.99
-2.68
-2.02
-1.08
-0.09
0.65
0.84
0.38
-0.63
-1.88
-2.92
-3.31
-2.73
-1.04
1.65
5.01
8.61
12.01
14.90
17.12
18.64
19.46
19.65
19.36
18.89
18.55
18.59
19.06
19.68
19.97
19.45
17.86
15.34
12.35
9.42
6.97
5.07
3.56
2.13
0.51
-1.41
-3.57
-5.82
-7.98
-10.00
-11.94
-13.93
-16.07
-18.33
-20.52
-22.38
-23.63
-24.17
-24.13
-23.87
-23.85
-24.48
-26.05
-28.64
-32.11
-36.11
-40.04
-43.19
-44.90
-44.78
-42.94
-39.95
-36.60
-33.52
-30.88
-28.31
-25.14
-20.72
-14.83
-7.81
-0.38
6.67
12.79
17.82
21.87
25.10
27.59
29.25
30.02
30.01
29.58
29.27
29.58
30.70
32.39
34.10
35.22
35.35
34.45
32.84
30.98
29.32
28.16
27.62
27.75
28.52
29.80
31.26
32.27
31.93
29.25
23.57
14.79
3.62
-8.66
-20.50
-30.58
-38.11
-42.95
-45.47
-46.24
-45.82
-44.54
-42.58
-40.03
-37.06
-33.92
-30.87
-28.13
-25.74
-23.59
-21.47
-19.24
-16.87
-14.51
-12.39
-10.69
-9.45
-8.48
-7.50
-6.21
-4.46
-2.29
0.05
2.23
4.02
5.37
6.41
7.37
8.47
9.81
11.32
12.86
14.24
15.35
16.15
16.72
17.19
17.63
18.07
18.38
18.37
17.87
16.77
15.16
13.19
11.08
9.00
7.09
5.41
4.00
2.78
1.61
0.30
-1.29
-3.19
-5.21
-7.10
-8.56
-9.43
-9.70
-9.48
-8.90
-8.07
-7.06
-5.94
-4.81
-3.80
-3.03
-2.55
-2.37
-2.41
-2.58
-2.75
-2.83
-2.74
-2.49
-2.11
-1.69
-1.36
-1.19
-1.25
-1.52
-1.93
-2.32
-2.57
-2.55
-2.26
-1.77
-1.24
-0.81
-0.60
-0.66
-1.02
-1.67
-2.60
-3.75
-4.97
-6.09
-6.94
-7.41
-7.47
-7.22
-6.76
-6.25
-5.87
-5.78
-6.09
-6.82
-7.82
-8.83
-9.57
-9.82
-9.50
-8.68
-7.52
-6.18
-4.82
-3.54
-2.37
-1.29
-0.23
0.92
2.16
3.38
4.38
4.99
5.12
4.91
4.58
4.36
4.37
4.63
5.08
5.66
6.36
7.13
7.91
8.59
9.06
9.26
9.20
8.95
8.61
8.26
7.94
7.63
7.31
6.92
6.39
5.71
4.88
4.03
3.27
2.63
2.06
1.43
0.61
-0.43
-1.55
-2.60
-3.41
-3.95
-4.34
-4.71
-5.24
-5.97
-6.84
-7.74
-8.50
-8.98
-9.04
-8.57
-7.54
-6.00
-4.12
-2.17
-0.46
0.80
1.55
1.88
1.99
2.07
2.24
2.50
2.86
3.31
3.92
4.69
5.54
6.25
6.58
6.43
5.87
5.21
4.80
4.91
5.54
6.51
7.48
8.19
8.51
8.43
8.02
7.35
6.48
5.50
4.55
3.76
3.23
2.92
2.70
2.37
1.77
0.90
-0.15
-1.19
-2.19
-3.19
-4.36
-5.80
-7.49
-9.22
-10.70
-11.66
-12.02
-11.83
-11.27
-10.50
-9.59
-8.57
-7.43
-6.21
-5.00
-3.89
-2.99
-2.31
-1.81
-1.45
-1.24
-1.31
-1.85
-3.03
-4.80
-6.86
-8.67
-9.66
-9.43
-7.97
-5.67
-3.17
-1.00
0.54
1.47
1.99
2.32
2.57
2.77
2.91
3.04
3.22
3.48
3.74
3.88
3.79
3.43
2.88
2.23
1.58
0.97
0.38
-0.22
-0.83
-1.44
-2.10
-2.89
-3.87
-5.04
-6.27
-7.31
-7.84
-7.65
-6.68
-5.09
-3.18
-1.30
0.30
1.52
2.42
3.18
3.93
4.68
5.34
5.80
5.98
5.97
5.93
5.97
6.10
6.20
6.09
5.69
5.02
4.29
3.72
3.49
3.61
3.93
4.20
4.12
3.50
2.32
0.77
-0.82
-2.08
-2.82
-3.04
-2.93
-2.77
-2.77
-3.06
-3.76
-4.97
-6.79
-9.19
-11.95
-14.66
-16.83
-18.15
-18.58
-18.35
-17.79
-17.17
-16.53
-15.72
-14.51
-12.72
-10.30
-7.36
-4.15
-0.99
1.84
4.12
5.83
7.02
7.83
8.35
8.64
8.73
8.68
8.61
8.66
8.93
9.39
9.96
10.53
11.06
11.55
12.00
12.34
12.45
12.18
11.48
10.44
9.27
8.20
7.39
6.86
6.53
6.22
5.76
5.06
4.11
3.01
1.89
0.82
-0.18
-1.15
-2.16
-3.23
-4.36
-5.55
-6.82
-8.17
-9.55
-10.77
-11.55
-11.62
-10.84
-9.29
-7.25
-5.03
-2.89
-0.98
0.66
1.98
2.96
3.53
3.67
3.46
3.05
2.59
2.18
1.85
1.58
1.35
1.17
1.11
1.24
1.61
2.19
2.89
3.59
4.16
4.53
4.67
4.63
4.41
4.06
3.55
2.90
2.11
1.24
0.34
-0.57
-1.51
-2.52
-3.67
-5.00
-6.52
-8.23
-10.01
-11.72
-13.13
-13.98
-14.06
-13.26
-11.65
-9.40
-6.77
-4.04
-1.47
0.74
2.48
3.70
4.42
4.73
4.78
4.69
4.55
4.46
4.42
4.44
4.53
4.69
4.89
5.12
5.33
5.47
5.48
5.34
5.04
4.68
4.31
4.01
3.77
3.49
3.06
2.42
1.59
0.66
-0.24
-1.07
-1.89
-2.84
-4.08
-5.68
-7.59
-9.73
-11.93
-14.06
-15.95
-17.40
-18.17
-18.09
-17.09
-15.28
-12.90
-10.28
-7.68
-5.23
-2.98
-0.93
0.90
2.44
3.63
4.47
5.04
5.47
5.90
6.38
6.91
7.41
7.84
8.21
8.58
8.96
9.35
9.68
9.89
9.90
9.69
9.27
8.65
7.79
6.72
5.46
4.07
2.63
1.21
-0.16
-1.51
-2.87
-4.38
-6.11
-8.13
-10.42
-12.85
-15.21
-17.21
-18.59
-19.12
-18.68
-17.27
-15.03
-12.20
-9.05
-5.84
-2.75
0.06
2.52
4.55
6.12
7.23
7.96
8.51
9.10
9.89
10.93
12.12
13.30
14.30
15.05
15.53
15.79
15.91
15.92
15.87
15.79
15.70
15.55
15.33
14.98
14.46
13.75
12.88
11.88
10.78
9.57
8.19
6.60
4.78
2.78
0.72
-1.23
-2.95
-4.38
-5.62
-6.88
-8.41
-10.41
-12.90
-15.69
-18.40
-20.60
-21.86
-21.88
-20.56
-18.01
-14.54
-10.60
-6.64
-3.03
0.03
2.59
4.78
6.75
8.60
10.26
11.59
12.48
12.94
13.11
13.26
13.62
14.28
15.21
16.19
17.01
17.52
17.72
17.68
17.51
17.25
16.81
16.08
14.96
13.50
11.88
10.34
9.04
8.00
7.14
6.28
5.32
4.19
2.88
1.42
-0.16
-1.82
-3.45
-4.95
-6.19
-7.20
-8.09
-9.07
-10.30
-11.85
-13.55
-15.10
-16.09
-16.18
-15.22
-13.29
-10.70
-7.79
-4.88
-2.14
0.41
2.83
5.13
7.22
8.96
10.21
10.95
11.29
11.45
11.64
11.99
12.52
13.15
13.77
14.29
14.67
14.93
15.12
15.28
15.38
15.36
15.08
14.48
13.57
12.52
11.56
10.91
10.63
10.58
10.48
9.99
8.89
7.17
4.99
2.67
0.47
-1.46
-3.10
-4.61
-6.17
-7.97
-10.09
-12.51
-15.10
-17.63
-19.82
-21.38
-22.02
-21.55
-19.99
-17.54
-14.58
-11.47
-8.51
-5.79
-3.26
-0.87
1.37
3.36
4.97
6.15
6.99
7.65
8.32
9.06
9.83
10.49
10.92
11.12
11.21
11.33
11.62
12.11
12.70
13.28
13.69
13.84
13.70
13.29
12.65
11.85
10.97
10.04
9.09
8.09
6.98
5.73
4.35
2.87
1.40
-0.02
-1.36
-2.66
-3.98
-5.41
-6.99
-8.74
-10.66
-12.69
-14.76
-16.72
-18.43
-19.68
-20.30
-20.13
-19.10
-17.22
-14.66
-11.68
-8.57
-5.61
-2.97
-0.71
1.22
2.91
4.42
5.72
6.72
7.36
7.64
7.70
7.74
7.99
8.57
9.43
10.40
11.23
11.72
11.79
11.52
11.10
10.68
10.38
10.19
10.06
9.91
9.71
9.38
8.88
8.12
7.07
5.78
4.36
2.99
1.76
0.68
-0.34
-1.45
-2.69
-4.03
-5.37
-6.65
-7.90
-9.21
-10.73
-12.54
-14.63
-16.86
-19.03
-20.88
-22.14
-22.59
-22.08
-20.62
-18.35
-15.57
-12.60
-9.72
-7.08
-4.70
-2.54
-0.54
1.29
2.92
4.32
5.48
6.42
7.16
7.68
7.98
8.10
8.15
8.30
8.71
9.45
10.44
11.47
12.29
12.69
12.63
12.16
11.45
10.67
9.94
9.29
8.69
8.08
7.41
6.69
5.96
5.24
4.51
3.70
2.71
1.50
0.09
-1.41
-2.83
-4.01
-4.89
-5.55
-6.22
-7.15
-8.54
-10.43
-12.68
-15.04
-17.25
-19.07
-20.33
-20.92
-20.74
-19.74
-17.98
-15.64
-13.03
-10.46
-8.12
-6.03
-4.04
-1.99
0.14
2.20
3.97
5.26
6.07
6.52
6.82
7.08
7.30
7.45
7.50
7.56
7.82
8.43
9.34
10.35
11.10
11.31
10.94
10.15
9.26
8.53
8.07
7.78
7.50
7.08
6.48
5.75
4.99
4.27
3.58
2.89
2.11
1.20
0.13
-1.05
-2.25
-3.37
-4.32
-5.09
-5.79
-6.60
-7.70
-9.15
-10.85
-12.57
-14.00
-14.85
-14.96
-14.29
-12.94
-11.05
-8.84
-6.48
-4.14
-1.92
0.10
1.86
3.24
4.18
4.65
4.73
4.61
4.53
4.67
5.10
5.76
6.44
6.99
7.28
7.33
7.24
7.13
7.06
7.06
7.10
7.10
7.03
6.89
6.69
6.45
6.15
5.75
5.18
4.42
3.50
2.47
1.42
0.39
-0.63
-1.64
-2.68
-3.71
-4.68
-5.58
-6.43
-7.36
-8.50
-9.95
-11.63
-13.33
-14.77
-15.66
-15.89
-15.46
-14.52
-13.21
-11.64
-9.87
-7.91
-5.85
-3.81
-1.96
-0.41
0.80
1.70
2.36
2.85
3.24
3.58
3.93
4.31
4.74
5.16
5.50
5.70
5.77
5.75
5.72
5.77
5.93
6.21
6.56
6.91
7.14
7.13
6.74
5.93
4.76
3.40
2.03
0.80
-0.24
-1.13
-1.92
-2.67
-3.40
-4.09
-4.73
-5.36
-6.06
-6.92
-8.03
-9.38
-10.87
-12.32
-13.52
-14.35
-14.76
-14.76
-14.42
-13.74
-12.66
-11.18
-9.34
-7.30
-5.26
-3.43
-1.96
-0.86
-0.11
0.39
0.72
0.98
1.26
1.65
2.20
2.88
3.61
4.32
4.88
5.25
5.40
5.37
5.24
5.11
5.03
5.01
4.99
4.88
4.56
4.01
3.24
2.34
1.45
0.68
0.09
-0.36
-0.74
-1.16
-1.72
-2.47
-3.39
-4.35
-5.21
-5.87
-6.30
-6.59
-6.92
-7.44
-8.25
-9.31
-10.50
-11.67
-12.68
-13.40
-13.74
-13.61
-12.94
-11.68
-9.87
-7.63
-5.20
-2.85
-0.82
0.75
1.85
2.60
3.12
3.52
3.81
3.99
4.08
4.14
4.27
4.54
4.89
5.23
5.40
5.36
5.16
4.97
4.91
5.06
5.37
5.72
5.98
6.05
5.87
5.39
4.61
3.59
2.43
1.29
0.35
-0.29
-0.64
-0.80
-0.95
-1.28
-1.90
-2.80
-3.86
-4.90
-5.80
-6.56
-7.31
-8.17
-9.19
-10.28
-11.21
-11.73
-11.66
-10.96
-9.70
-8.02
-6.06
-3.97
-1.95
-0.17
1.23
2.19
2.79
3.14
3.33
3.38
3.25
2.94
2.54
2.21
2.09
2.18
2.39
2.58
2.69
2.77
2.95
3.32
3.80
4.22
4.40
4.26
3.86
3.34
2.82
2.31
1.73
0.99
0.06
-1.00
-2.05
-2.95
-3.68
-4.30
-4.94
-5.73
-6.68
-7.70
-8.67
-9.50
-10.16
-10.64
-10.92
-10.86
-10.22
-8.86
-6.83
-4.40
-2.02
-0.09
1.24
2.08
2.71
3.37
4.12
4.83
5.31
5.44
5.25
4.92
4.64
4.57
4.70
4.96
5.25
5.53
5.80
6.11
6.46
6.80
7.02
7.01
6.68
6.07
5.27
4.44
3.74
3.23
2.88
2.57
2.16
1.56
0.78
-0.13
-1.07
-1.96
-2.75
-3.47
-4.17
-4.93
-5.77
-6.71
-7.74
-8.86
-10.07
-11.34
-12.61
-13.73
-14.50
-14.74
-14.34
-13.29
-11.70
-9.74
-7.57
-5.36
-3.25
-1.37
0.17
1.29
2.01
2.46
2.78
3.08
3.38
3.62
3.77
3.84
3.93
4.17
4.56
5.03
5.43
5.62
5.62
5.53
5.48
5.55
5.66
5.67
5.45
5.00
4.43
3.89
3.53
3.30
3.08
2.70
2.02
1.07
-0.05
-1.18
-2.16
-2.95
-3.57
-4.11
-4.70
-5.47
-6.47
-7.75
-9.26
-10.88
-12.40
-13.56
-14.08
-13.76
-12.57
-10.67
-8.40
-6.16
-4.23
-2.74
-1.60
-0.59
0.47
1.64
2.83
3.81
4.41
4.59
4.49
4.33
4.32
4.56
5.00
5.48
5.85
6.06
6.12
6.14
6.20
6.30
6.39
6.40
6.30
6.13
5.94
5.73
5.49
5.13
4.59
3.84
2.95
2.02
1.10
0.26
-0.52
-1.25
-1.98
-2.73
-3.51
-4.36
-5.27
-6.26
-7.35
-8.50
-9.68
-10.83
-11.79
-12.38
-12.37
-11.56
-9.90
-7.51
-4.69
-1.85
0.64
2.55
3.81
4.52
4.84
4.90
4.81
4.63
4.42
4.27
4.28
4.51
4.96
5.50
5.99
6.28
6.33
6.20
6.03
5.95
6.05
6.28
6.48
6.51
6.27
5.78
5.15
4.51
3.92
3.33
2.62
1.69
0.53
-0.76
-2.03
-3.14
-4.06
-4.91
-5.84
-7.03
-8.51
-10.23
-12.01
-13.62
-14.82
-15.45
-15.39
-14.69
-13.50
-12.09
-10.70
-9.49
-8.49
-7.64
-6.84
-6.03
-5.20
-4.39
-3.61
-2.82
-1.99
-1.15
-0.39
0.18
0.50
0.63
0.76
1.09
1.74
2.68
3.76
4.75
5.44
5.73
5.59
5.06
4.25
3.30
2.35
1.58
1.11
1.00
1.23
1.64
2.02
2.13
1.83
1.11
0.13
-0.80
-1.39
-1.39
-0.78
0.33
1.72
3.25
4.86
6.67
8.81
11.37
14.31
17.47
20.61
23.54
26.16
28.43
30.35
31.90
32.98
33.52
33.46
32.87
31.87
30.65
29.30
27.85
26.25
24.44
22.43
20.33
18.34
16.58
15.11
13.83
12.56
11.17
9.64
8.04
6.47
4.88
3.08
0.79
-2.23
-5.95
-10.13
-14.35
-18.28
-21.74
-24.72
-27.33
-29.63
-31.64
-33.32
-34.65
-35.69
-36.55
-37.36
-38.19
-39.08
-39.98
-40.80
-41.40
-41.55
-40.95
-39.31
-36.42
-32.33
-27.33
-21.90
-16.56
-11.70
-7.48
-3.88
-0.75
2.00
4.37
6.27
7.71
8.82
9.82
10.97
12.30
13.64
14.69
15.26
15.40
15.43
15.73
16.53
17.73
18.98
19.82
20.00
19.52
18.65
17.73
17.03
16.64
16.54
16.64
16.82
17.00
17.06
16.89
16.42
15.68
14.82
14.07
13.61
13.47
13.51
13.47
13.09
12.16
10.65
8.65
6.36
4.05
2.00
0.48
-0.33
-0.38
0.16
1.01
1.78
2.16
1.96
1.16
-0.12
-1.70
-3.35
-4.86
-6.02
-6.68
-6.75
-6.25
-5.38
-4.47
-3.88
-3.87
-4.47
-5.46
-6.49
-7.21
-7.45
-7.25
-6.89
-6.64
-6.70
-7.04
-7.53
-7.94
-8.13
-8.05
-7.74
-7.27
-6.74
-6.26
-5.97
-6.00
-6.39
-7.04
-7.74
-8.24
-8.40
-8.22
-7.85
-7.47
-7.20
-6.97
-6.63
-6.01
-5.00
-3.57
-1.81
0.17
2.20
4.07
5.61
6.64
7.13
7.13
6.83
6.45
6.22
6.31
6.81
7.70
8.87
10.14
11.29
12.18
12.76
13.08
13.26
13.36
13.36
13.18
12.79
12.18
11.43
10.64
9.89
9.24
8.67
8.13
7.56
6.88
6.05
4.96
3.49
1.53
-1.00
-4.09
-7.57
-11.21
-14.67
-17.70
-20.07
-21.70
-22.58
-22.78
-22.43
-21.62
-20.45
-19.01
-17.36
-15.54
-13.62
-11.72
-9.96
-8.51
-7.45
-6.74
-6.26
-5.80
-5.20
-4.37
-3.32
-2.15
-0.96
0.14
1.13
2.03
2.88
3.70
4.46
5.09
5.48
5.55
5.30
4.80
4.13
3.34
2.35
1.05
-0.61
-2.57
-4.63
-6.50
-7.96
-8.95
-9.62
-10.24
-11.04
-12.16
-13.51
-14.90
-16.07
-16.75
-16.76
-16.00
-14.48
-12.33
-9.77
-7.08
-4.51
-2.25
-0.41
1.01
2.07
2.88
3.55
4.16
4.69
5.05
5.12
4.81
4.20
3.49
2.95
2.83
3.17
3.81
4.47
4.88
4.92
4.65
4.27
4.00
3.96
4.09
4.27
4.27
3.99
3.38
2.53
1.55
0.56
-0.35
-1.10
-1.64
-1.95
-2.14
-2.40
-2.98
-4.08
-5.66
-7.47
-9.07
-10.04
-10.16
-9.44
-8.13
-6.50
-4.76
-3.01
-1.28
0.40
1.93
3.19
4.11
4.67
4.95
5.00
4.86
4.56
4.14
3.70
3.40
3.34
3.54
3.89
4.23
4.40
4.32
3.98
3.38
2.57
1.60
0.57
-0.36
-1.05
-1.47
-1.70
-1.93
-2.33
-2.99
-3.84
-4.77
-5.71
-6.68
-7.79
-9.10
-10.59
-12.11
-13.47
-14.48
-15.02
-15.00
-14.39
-13.23
-11.60
-9.69
-7.68
-5.73
-3.94
-2.35
-1.05
-0.09
0.44
0.57
0.43
0.24
0.21
0.39
0.70
0.96
1.04
0.92
0.74
0.63
0.68
0.85
1.04
1.13
1.07
0.85
0.52
0.15
-0.16
-0.34
-0.35
-0.20
-0.05
-0.14
-0.70
-1.90
-3.72
-5.98
-8.40
-10.72
-12.74
-14.30
-15.25
-15.43
-14.76
-13.29
-11.25
-8.97
-6.76
-4.73
-2.87
-1.03
0.84
2.65
4.20
5.30
5.93
6.21
6.37
6.60
6.96
7.35
7.62
7.72
7.66
7.61
7.72
8.06
8.55
9.00
9.12
8.74
7.81
6.49
5.03
3.70
2.65
1.87
1.17
0.32
-0.90
-2.56
-4.57
-6.69
-8.61
-10.06
-10.88
-11.03
-10.53
-9.48
-7.98
-6.17
-4.26
-2.47
-1.06
-0.17
0.17
0.07
-0.25
-0.63
-0.98
-1.36
-1.87
-2.60
-3.52
-4.53
-5.49
-6.29
-6.95
-7.62
-8.49
-9.70
-11.26
-13.07
-14.90
-16.54
-17.91
-19.04
-20.19
-21.69
-23.88
-26.91
-30.61
-34.53
-38.14
-41.18
-43.92
-47.21
-52.10
-59.33
-68.78
-79.24
-88.64
-94.61
-95.08
-88.78
-75.45
-55.98
-32.33
-7.35
15.65
33.62
44.58
48.25
46.06
40.65
34.84
30.73
29.07
29.38
30.43
30.96
30.15
27.79
24.11
19.52
14.39
9.03
3.73
-1.12
-5.08
-7.76
-9.00
-8.93
-7.91
-6.27
-4.03
-0.83
3.94
10.82
19.93
30.85
42.80
54.94
66.62
77.45
87.13
95.31
101.51
105.32
106.61
105.71
103.30
100.18
96.91
93.71
90.52
87.11
83.30
79.06
74.45
69.64
64.86
60.31
56.14
52.38
48.95
45.77
42.79
40.09
37.71
35.59
33.39
30.64
26.88
21.99
16.23
10.19
4.47
-0.55
-4.80
-8.46
-11.74
-14.69
-17.19
-19.07
-20.28
-21.00
-21.58
-22.42
-23.86
-26.06
-29.08
-33.01
-37.96
-44.03
-51.08
-58.55
-65.47
-70.70
-73.32
-73.00
-70.15
-65.73
-60.98
-57.00
-54.61
-54.22
-55.84
-59.07
-62.99
-66.33
-67.78
-66.34
-61.69
-54.28
-45.09
-35.27
-25.77
-17.19
-9.74
-3.42
1.83
6.09
9.37
11.70
13.15
13.87
14.08
14.05
13.95
13.84
13.63
13.22
12.58
11.82
11.05
10.28
9.38
8.16
6.58
4.90
3.64
3.34
4.29
6.32
8.88
11.28
13.00
13.77
13.57
12.42
10.37
7.52
4.22
1.12
-1.01
-1.58
-0.53
1.52
3.56
4.61
4.17
2.40
-0.05
-2.47
-4.39
-5.74
-6.71
-7.52
-8.26
-8.84
-9.21
-9.41
-9.69
-10.38
-11.72
-13.61
-15.60
-16.90
-16.83
-15.08
-11.95
-8.40
-5.64
-4.65
-5.73
-8.38
-11.56
-14.13
-15.42
-15.37
-14.38
-12.93
-11.26
-9.31
-6.91
-4.02
-0.87
2.21
4.96
7.45
9.97
12.82
16.04
19.24
21.86
23.39
23.71
23.17
22.38
21.99
22.39
23.57
25.23
26.86
27.94
28.09
27.17
25.32
22.95
20.59
18.71
17.67
17.66
18.73
20.72
23.14
25.14
25.50
23.04
17.06
7.80
-3.51
-14.91
-24.50
-31.04
-34.42
-35.49
-35.48
-35.38
-35.48
-35.43
-34.56
-32.38
-28.82
-24.31
-19.49
-14.95
-10.96
-7.55
-4.58
-1.99
0.24
2.15
3.84
5.50
7.27
9.09
10.67
11.61
11.59
10.59
8.96
7.33
6.40
6.78
8.75
12.26
16.85
21.74
26.01
28.84
29.81
29.07
27.23
25.13
23.44
22.38
21.72
20.94
19.59
17.42
14.54
11.18
7.58
3.84
-0.05
-4.08
-8.18
-12.13
-15.65
-18.49
-20.51
-21.66
-21.97
-21.58
-20.75
-19.95
-19.85
-21.20
-24.60
-30.22
-37.70
-46.13
-54.37
-61.23
-65.75
-67.28
-65.47
-60.30
-52.04
-41.38
-29.30
-16.99
-5.55
4.33
12.37
18.65
23.40
26.68
28.34
28.15
25.96
21.95
16.71
11.18
6.42
3.31
2.35
3.37
5.57
7.73
8.53
7.12
3.45
-1.73
-7.12
-11.42
-13.77
-13.90
-12.09
-8.87
-4.81
-0.33
4.22
8.55
12.46
15.76
18.34
20.20
21.45
22.31
23.16
24.36
26.21
28.68
31.41
33.76
35.13
35.25
34.38
33.14
32.21
31.93
32.13
32.17
31.28
28.96
25.14
20.18
14.57
8.76
3.02
-2.43
-7.30
-11.21
-13.83
-15.01
-14.92
-13.95
-12.40
-10.36
-7.62
-3.95
0.56
5.30
9.31
11.69
12.02
10.63
8.36
6.11
4.34
2.88
1.08
-1.77
-5.94
-11.04
-16.13
-20.09
-22.09
-21.90
-19.88
-16.77
-13.36
-10.20
-7.55
-5.42
-3.68
-2.22
-1.00
-0.10
0.35
0.25
-0.38
-1.30
-2.14
-2.47
-2.03
-0.83
0.80
2.37
3.35
3.37
2.30
0.25
-2.41
-5.11
-7.16
-7.94
-7.10
-4.79
-1.72
1.06
2.50
1.93
-0.65
-4.58
-8.81
-12.24
-14.10
-14.14
-12.67
-10.38
-8.01
-6.18
-5.23
-5.22
-6.07
-7.56
-9.48
-11.54
-13.42
-14.73
-15.18
-14.64
-13.19
-11.15
-8.94
-6.98
-5.49
-4.49
-3.84
-3.35
-2.92
-2.60
-2.51
-2.66
-2.87
-2.82
-2.26
-1.16
0.12
1.02
1.08
0.19
-1.29
-2.74
-3.56
-3.59
-3.16
-2.88
-3.30
-4.64
-6.64
-8.80
-10.60
-11.72
-12.10
-11.82
-10.93
-9.40
-7.29
-4.79
-2.42
-0.85
-0.75
-2.44
-5.77
-10.18
-14.80
-18.68
-20.94
-20.91
-18.27
-13.13
-6.14
1.57
8.64
13.84
16.49
16.63
15.00
12.73
10.90
10.22
10.82
12.33
14.13
15.64
16.50
16.64
16.24
15.51
14.63
13.64
12.52
11.30
10.14
9.22
8.64
8.28
7.82
6.86
5.18
2.88
0.37
-1.86
-3.50
-4.60
-5.58
-6.91
-8.84
-11.21
-13.45
-14.93
-15.23
-14.37
-12.71
-10.71
-8.68
-6.66
-4.48
-2.06
0.46
2.67
4.16
4.83
4.97
5.21
6.14
8.05
10.81
13.96
16.97
19.58
21.76
23.73
25.74
27.90
30.17
32.36
34.26
35.74
36.75
37.36
37.60
37.37
36.49
34.81
32.49
30.18
28.83
29.27
31.70
35.35
38.69
40.00
38.13
32.98
25.54
17.42
10.17
4.81
1.64
0.45
0.74
2.04
4.01
6.35
8.71
10.70
11.95
12.28
11.89
11.26
10.98
11.43
12.58
13.93
14.76
14.47
12.76
9.80
6.05
2.14
-1.24
-3.51
-4.22
-3.20
-0.62
2.98
6.90
10.55
13.65
16.34
18.98
21.94
25.32
28.92
32.37
35.31
37.57
39.19
40.35
41.13
41.47
41.19
40.06
37.98
35.06
31.62
28.04
24.59
21.37
18.32
15.31
12.26
9.16
6.01
2.77
-0.68
-4.56
-8.95
-13.82
-18.86
-23.64
-27.74
-30.87
-32.96
-34.08
-34.37
-33.95
-32.99
-31.69
-30.37
-29.36
-28.93
-29.10
-29.64
-30.14
-30.17
-29.55
-28.38
-27.04
-25.94
-25.36
-25.28
-25.47
-25.57
-25.28
-24.49
-23.27
-21.86
-20.53
-19.44
-18.67
-18.11
-17.62
-17.06
-16.34
-15.38
-14.12
-12.48
-10.38
-7.83
-4.92
-1.80
1.35
4.45
7.49
10.52
13.51
16.28
18.50
19.79
19.91
18.86
16.93
14.55
12.13
9.92
7.98
6.22
4.55
2.99
1.63
0.58
-0.13
-0.60
-0.98
-1.33
-1.57
-1.50
-0.95
0.16
1.68
3.31
4.71
5.64
6.01
5.85
5.29
4.43
3.40
2.32
1.26
0.29
-0.59
-1.39
-2.09
-2.64
-2.92
-2.85
-2.48
-2.01
-1.72
-1.84
-2.48
-3.55
-4.83
-6.11
-7.28
-8.42
-9.62
-11.03
-12.63
-14.36
-16.05
-17.60
-18.97
-20.22
-21.44
-22.64
-23.71
-24.47
-24.71
-24.32
-23.32
-21.84
-20.00
-17.91
-15.59
-13.09
-10.53
-8.08
-5.87
-3.81
-1.57
1.36
5.34
10.46
16.40
22.67
28.77
34.43
39.56
44.18
48.34
52.08
55.47
58.62
61.59
64.23
66.14
66.66
65.24
61.58
55.74
47.99
38.55
27.57
15.24
2.06
-11.07
-23.07
-33.04
-40.65
-46.16
-50.16
-53.13
-55.16
-56.08
-55.65
-53.93
-51.39
-48.65
-46.18
-44.14
-42.30
-40.35
-38.07
-35.49
-32.84
-30.38
-28.30
-26.61
-25.19
-23.86
-22.49
-21.04
-19.57
-18.20
-17.02
-16.07
-15.33
-14.69
-14.07
-13.39
-12.67
-11.99
-11.45
-11.15
-11.12
-11.33
-11.68
-12.05
-12.35
-12.49
-12.41
-12.02
-11.29
-10.26
-9.08
-8.00
-7.29
-7.07
-7.31
-7.80
-8.26
-8.47
-8.37
-8.00
-7.56
-7.23
-7.24
-7.74
-8.73
-10.05
-11.33
-12.09
-11.90
-10.57
-8.23
-5.32
-2.36
0.18
2.12
3.48
4.43
5.14
5.68
6.01
6.04
5.69
4.95
3.87
2.53
1.02
-0.69
-2.66
-5.08
-8.10
-11.78
-16.02
-20.50
-24.75
-28.32
-30.90
-32.46
-33.21
-33.55
-33.90
-34.52
-35.43
-36.41
-37.15
-37.40
-37.06
-36.20
-34.95
-33.43
-31.76
-30.09
-28.56
-27.34
-26.50
-25.94
-25.40
-24.57
-23.21
-21.23
-18.64
-15.55
-12.02
-8.00
-3.42
1.81
7.63
13.84
20.06
25.84
30.81
34.82
38.02
40.71
43.20
45.56
47.58
48.96
49.55
49.50
49.26
49.34
50.06
51.36
52.86
54.12
54.78
54.77
54.25
53.51
52.78
52.16
51.57
50.77
49.52
47.65
45.10
42.00
38.58
35.16
32.01
29.28
26.99
25.01
23.09
21.02
18.70
16.25
13.91
12.00
10.67
9.95
9.61
9.39
9.04
8.44
7.59
6.54
5.37
4.07
2.64
1.02
-0.80
-2.80
-4.88
-6.92
-8.81
-10.53
-12.14
-13.81
-15.65
-17.69
-19.76
-21.57
-22.85
-23.48
-23.50
-23.13
-22.57
-21.96
-21.33
-20.61
-19.76
-18.85
-17.98
-17.31
-16.91
-16.73
-16.59
-16.22
-15.43
-14.11
-12.31
-10.21
-8.03
-5.98
-4.20
-2.77
-1.72
-1.05
-0.77
-0.82
-1.10
-1.46
-1.76
-1.98
-2.24
-2.69
-3.43
-4.39
-5.34
-6.02
-6.28
-6.15
-5.82
-5.54
-5.44
-5.53
-5.72
-5.95
-6.18
-6.42
-6.69
-6.99
-7.35
-7.83
-8.59
-9.73
-11.22
-12.88
-14.35
-15.33
-15.63
-15.27
-14.44
-13.35
-12.19
-11.04
-10.00
-9.15
-8.59
-8.40
-8.56
-8.93
-9.27
-9.33
-8.95
-8.11
-6.94
-5.64
-4.36
-3.16
-1.96
-0.55
1.23
3.47
6.07
8.80
11.34
13.45
14.96
15.84
16.16
15.98
15.45
14.76
14.15
13.84
13.93
14.34
14.82
15.02
14.67
13.68
12.17
10.43
8.76
7.41
6.50
6.06
6.04
6.35
6.89
7.52
8.11
8.49
8.52
8.07
7.11
5.69
3.94
2.05
0.25
-1.25
-2.30
-2.80
-2.75
-2.23
-1.36
-0.29
0.84
1.92
2.88
3.70
4.32
4.70
4.73
4.26
3.17
1.36
-1.15
-4.22
-7.69
-11.35
-15.14
-19.05
-23.10
-27.25
-31.32
-35.08
-38.35
-41.05
-43.26
-45.01
-46.28
-46.89
-46.67
-45.64
-44.05
-42.31
-40.73
-39.43
-38.21
-36.81
-35.05
-32.93
-30.57
-28.07
-25.38
-22.32
-18.79
-14.81
-10.57
-6.32
-2.25
1.58
5.23
8.81
12.42
16.07
19.76
23.43
26.99
30.31
33.29
35.92
38.30
40.59
42.94
45.35
47.65
49.50
50.54
50.51
49.32
47.12
44.24
41.10
38.10
35.55
33.54
32.04
30.91
29.99
29.17
28.38
27.53
26.47
25.07
23.23
20.96
18.43
15.84
13.32
10.96
8.71
6.53
4.43
2.44
0.63
-1.05
-2.66
-4.35
-6.17
-8.13
-10.13
-12.06
-13.85
-15.47
-16.92
-18.25
-19.45
-20.47
-21.20
-21.54
-21.39
-20.77
-19.76
-18.57
-17.41
-16.42
-15.68
-15.12
-14.67
-14.25
-13.90
-13.67
-13.62
-13.71
-13.83
-13.77
-13.33
-12.42
-11.06
-9.36
-7.48
-5.60
-3.82
-2.23
-0.92
0.02
0.51
0.51
0.09
-0.58
-1.25
-1.68
-1.73
-1.43
-0.95
-0.48
-0.18
-0.07
-0.05
0.03
0.25
0.58
0.88
1.07
1.12
1.09
1.07
1.12
1.20
1.22
1.03
0.55
-0.22
-1.19
-2.25
-3.20
-3.93
-4.39
-4.66
-4.90
-5.34
-6.16
-7.44
-9.11
-10.99
-12.86
-14.49
-15.64
-16.04
-15.44
-13.67
-10.73
-6.86
-2.48
1.88
5.73
8.76
10.86
12.11
12.65
12.65
12.20
11.38
10.27
8.98
7.69
6.59
5.81
5.38
5.23
5.24
5.25
5.16
4.91
4.46
3.90
3.33
2.93
2.84
3.08
3.51
3.91
3.98
3.51
2.47
0.95
-0.88
-2.85
-4.86
-6.86
-8.85
-10.81
-12.73
-14.55
-16.21
-17.65
-18.85
-19.79
-20.45
-20.80
-20.82
-20.50
-19.92
-19.32
-18.98
-19.20
-20.09
-21.55
-23.31
-25.06
-26.63
-28.04
-29.43
-30.96
-32.67
-34.46
-36.06
-37.20
-37.62
-37.13
-35.68
-33.38
-30.48
-27.34
-24.32
-21.61
-19.22
-17.00
-14.68
-12.02
-8.93
-5.38
-1.50
2.54
6.50
10.10
13.13
15.55
17.50
19.28
21.27
23.69
26.55
29.62
32.48
34.65
35.74
35.58
34.33
32.49
30.85
30.34
31.72
35.28
40.68
46.95
52.85
57.17
59.17
58.73
56.28
52.59
48.43
44.41
40.96
38.30
36.56
35.64
35.22
34.75
33.66
31.54
28.38
24.56
20.65
17.12
14.22
11.86
9.83
7.94
6.10
4.29
2.49
0.61
-1.46
-3.75
-6.15
-8.44
-10.43
-12.06
-13.46
-14.83
-16.36
-18.07
-19.80
-21.29
-22.30
-22.74
-22.63
-22.15
-21.45
-20.66
-19.81
-18.86
-17.74
-16.39
-14.76
-12.85
-10.71
-8.47
-6.35
-4.61
-3.50
-3.18
-3.70
-4.89
-6.49
-8.12
-9.43
-10.21
-10.48
-10.44
-10.48
-10.96
-12.10
-13.89
-16.04
-18.17
-19.85
-20.75
-20.69
-19.64
-17.73
-15.14
-12.15
-8.97
-5.83
-2.89
-0.24
2.05
3.94
5.50
6.91
8.40
10.28
12.67
15.47
18.30
20.61
21.89
21.92
20.84
19.14
17.49
16.50
16.50
17.41
18.74
19.74
19.65
17.91
14.38
9.37
3.50
-2.45
-7.86
-12.36
-16.01
-19.14
-22.31
-26.07
-30.73
-36.23
-42.11
-47.59
-51.93
-54.61
-55.54
-55.07
-53.77
-52.21
-50.67
-49.12
-47.36
-45.13
-42.32
-38.96
-35.16
-31.02
-26.52
-21.55
-16.01
-9.86
-3.12
4.05
11.46
18.86
25.97
32.52
38.29
43.21
47.41
51.14
54.63
57.97
60.95
63.22
64.37
64.18
62.65
59.98
56.44
52.26
47.58
42.51
37.13
31.59
26.03
20.61
15.45
10.63
6.20
2.18
-1.40
-4.57
-7.29
-9.55
-11.24
-12.28
-12.64
-12.40
-11.76
-11.01
-10.38
-9.97
-9.73
-9.51
-9.10
-8.38
-7.37
-6.23
-5.23
-4.63
-4.64
-5.29
-6.50
-8.06
-9.82
-11.65
-13.56
-15.61
-17.84
-20.10
-22.09
-23.39
-23.63
-22.67
-20.69
-18.13
-15.55
-13.37
-11.74
-10.50
-9.35
-8.01
-6.33
-4.36
-2.17
0.13
2.55
5.18
8.08
11.28
14.74
18.28
21.68
24.61
26.78
27.93
28.04
27.30
26.15
25.12
24.62
24.81
25.55
26.48
27.20
27.43
27.06
26.13
24.71
22.79
20.25
16.88
12.49
7.02
0.64
-6.26
-13.20
-19.79
-25.81
-31.33
-36.53
-41.60
-46.53
-51.10
-54.97
-57.85
-59.68
-60.51
-60.43
-59.37
-57.07
-53.28
-47.98
-41.57
-34.80
-28.52
-23.31
-19.26
-16.03
-13.10
-10.10
-6.94
-3.76
-0.77
1.92
4.26
6.13
7.24
7.13
5.33
1.64
-3.66
-9.89
-16.14
-21.66
-26.18
-29.97
-33.73
-38.25
-44.11
-51.44
-59.93
-68.91
-77.61
-85.34
-91.61
-96.23
-99.23
-100.76
-100.95
-99.79
-96.96
-92.00
-84.39
-73.89
-60.74
-45.73
-30.07
-15.04
-1.66
9.52
18.46
25.48
31.00
35.25
38.20
39.63
39.30
37.16
33.46
28.77
23.86
19.49
16.22
14.25
13.46
13.45
13.78
14.16
14.58
15.24
16.40
18.23
20.65
23.37
26.05
28.46
30.56
32.54
34.72
37.40
40.75
44.74
49.20
53.98
59.00
64.34
70.09
76.20
82.41
88.23
93.20
97.18
100.36
103.13
105.71
107.87
108.84
107.68
103.73
97.05
88.55
79.56
71.35
64.57
59.06
54.10
48.83
42.71
35.74
28.36
21.11
14.35
8.11
2.08
-4.26
-11.39
-19.66
-29.14
-39.54
-50.17
-60.03
-67.98
-73.08
-74.81
-73.18
-68.71
-62.18
-54.48
-46.39
-38.50
-31.19
-24.60
-18.75
-13.56
-8.98
-5.01
-1.77
0.68
2.40
3.58
4.52
5.44
6.42
7.37
8.14
8.64
8.91
9.08
9.28
9.42
9.24
8.34
6.42
3.37
-0.63
-5.23
-9.99
-14.55
-18.60
-21.84
-23.99
-24.85
-24.42
-22.98
-21.07
-19.30
-18.12
-17.60
-17.48
-17.19
-16.13
-13.81
-10.00
-4.82
1.31
7.76
13.84
18.96
22.73
24.96
25.66
24.93
22.91
19.84
16.15
12.42
9.33
7.33
6.48
6.39
6.44
6.14
5.46
4.89
5.24
7.32
11.47
17.38
24.10
30.27
34.34
34.97
31.34
23.58
12.91
1.54
-7.97
-13.55
-14.39
-11.12
-5.46
0.59
5.55
8.84
10.69
11.72
12.52
13.47
14.73
16.42
18.56
21.11
23.84
26.30
27.90
28.06
26.33
22.74
17.81
12.57
8.25
5.88
5.89
7.94
11.18
14.67
17.80
20.46
22.90
25.42
28.04
30.44
32.16
32.88
32.72
32.17
31.98
32.88
35.36
39.59
45.43
52.34
59.37
65.11
68.01
66.82
61.15
51.77
40.42
29.27
20.10
13.79
10.25
8.85
8.92
10.18
12.68
16.54
21.58
27.19
32.44
36.40
38.46
38.47
36.66
33.49
29.43
24.86
19.98
14.93
9.86
4.92
0.29
-3.93
-7.75
-11.25
-14.59
-17.89
-21.22
-24.55
-27.79
-30.80
-33.38
-35.38
-36.74
-37.48
-37.75
-37.74
-37.59
-37.32
-36.88
-36.23
-35.39
-34.52
-33.72
-33.01
-32.13
-30.61
-27.93
-23.77
-18.15
-11.50
-4.46
2.33
8.47
13.86
18.60
22.89
26.84
30.41
33.49
35.97
37.75
38.82
39.17
38.79
37.67
35.85
33.40
30.51
27.37
24.18
21.06
18.06
15.23
12.63
10.37
8.52
7.04
5.77
4.46
2.78
0.50
-2.55
-6.44
-11.13
-16.47
-22.15
-27.71
-32.67
-36.64
-39.49
-41.42
-42.83
-44.19
-45.77
-47.56
-49.29
-50.56
-51.01
-50.44
-48.89
-46.52
-43.59
-40.34
-36.96
-33.61
-30.45
-27.64
-25.25
-23.19
-21.18
-18.84
-15.88
-12.34
-8.58
-5.17
-2.64
-1.29
-1.12
-1.90
-3.37
-5.32
-7.51
-9.66
-11.38
-12.32
-12.31
-11.51
-10.33
-9.25
-8.63
-8.53
-8.79
-9.17
-9.50
-9.73
-9.90
-10.07
-10.25
-10.43
-10.62
-10.90
-11.40
-12.26
-13.49
-14.97
-16.48
-17.75
-18.61
-18.98
-18.86
-18.27
-17.20
-15.64
-13.60
-11.17
-8.52
-5.87
-3.36
-1.04
1.14
3.23
5.26
7.17
8.85
10.20
11.20
11.92
12.48
13.01
13.60
14.26
14.98
15.68
16.31
16.87
17.40
17.94
18.47
18.94
19.18
19.06
18.53
17.66
16.61
15.50
14.36
13.12
11.71
10.10
8.43
6.91
5.73
4.96
4.47
4.02
3.37
2.38
1.07
-0.43
-1.89
-3.08
-3.85
-4.11
-3.90
-3.36
-2.60
-1.81
-1.10
-0.57
-0.29
-0.30
-0.58
-1.08
-1.74
-2.44
-3.09
-3.59
-3.88
-3.99
-4.04
-4.16
-4.46
-4.94
-5.47
-5.90
-6.12
-6.14
-6.09
-6.17
-6.51
-7.12
-7.88
-8.63
-9.21
-9.46
-9.29
-8.65
-7.60
-6.32
-5.08
-4.20
-3.84
-4.01
-4.50
-4.96
-5.09
-4.68
-3.75
-2.45
-1.02
0.35
1.56
2.61
3.57
4.52
5.53
6.57
7.56
8.41
9.03
9.40
9.56
9.59
9.61
9.69
9.84
10.00
10.08
9.97
9.67
9.27
8.94
8.80
8.84
8.89
8.60
7.58
5.54
2.41
-1.58
-6.00
-10.29
-13.98
-16.81
-18.86
-20.50
-22.30
-24.81
-28.38
-33.09
-38.73
-44.87
-50.93
-56.34
-60.60
-63.43
-64.77
-64.85
-64.14
-63.20
-62.67
-63.08
-64.88
-68.29
-73.31
-79.53
-86.20
-92.22
-96.46
-98.03
-96.60
-92.46
-86.36
-79.16
-71.45
-63.31
-54.42
-44.32
-32.81
-20.21
-7.30
4.94
15.63
24.29
30.83
35.50
38.79
41.29
43.59
46.09
48.80
51.26
52.62
52.00
48.88
43.35
36.19
28.59
21.90
17.28
15.58
17.22
22.22
30.21
40.49
52.20
64.35
76.00
86.23
94.28
99.62
102.06
101.82
99.40
95.44
90.51
84.95
78.95
72.57
65.95
59.27
52.72
46.41
40.23
33.94
27.19
19.68
11.35
2.37
-6.83
-15.74
-24.00
-31.44
-38.07
-43.97
-49.02
-52.85
-54.96
-54.90
-52.61
-48.49
-43.39
-38.40
-34.53
-32.50
-32.56
-34.46
-37.63
-41.36
-44.90
-47.47
-48.34
-47.00
-43.32
-37.75
-31.28
-25.16
-20.52
-17.87
-16.85
-16.36
-15.08
-12.01
-7.02
-0.69
5.89
11.56
15.52
17.67
18.42
18.44
18.30
18.31
18.90
20.39
22.78
25.82
29.12
32.30
34.97
36.64
36.83
35.89
34.28
32.15
29.33
25.78
21.83
18.02
14.77
12.10
10.79
11.07
12.11
12.31
10.43
6.38
1.35
-2.85
-4.48
-0.84
9.64
26.54
47.65
70.22
91.88
111.09
126.88
129.58
114.18
84.21
50.02
20.87
-0.01
-14.31
-24.91
-33.71
-41.13
-45.36
-45.38
-42.68
-40.80
-42.13
-48.30
-58.23
-69.19
-78.38
-82.99
-82.18
-77.57
-72.13
-68.36
-67.14
-67.66
-68.52
-68.74
-67.73
-65.61
-63.22
-61.32
-59.82
-57.85
-54.25
-48.60
-41.49
-33.74
-26.07
-18.80
-11.73
-4.37
3.56
11.83
19.37
24.60
26.13
23.29
16.49
7.29
-1.99
-8.97
-11.98
-10.56
-5.41
2.27
11.46
21.52
31.89
41.49
48.43
50.52
46.31
36.13
22.39
8.74
-1.34
-6.04
-5.77
-2.65
0.71
2.50
2.28
0.70
-1.19
-2.66
-3.56
-4.14
-4.62
-4.91
-4.58
-3.11
-0.27
3.68
7.99
11.77
14.32
15.53
15.81
15.89
16.44
17.82
19.99
22.69
25.56
28.28
30.58
32.22
33.00
32.82
31.73
29.97
27.83
25.61
23.53
21.78
20.57
20.03
20.18
20.86
21.70
22.14
21.63
19.66
15.86
10.11
2.63
-5.85
-14.13
-20.74
-24.42
-24.70
-22.08
-17.84
-13.46
-9.98
-7.65
-6.06
-4.49
-2.33
0.69
4.62
9.37
14.86
20.97
27.41
33.61
38.78
42.23
43.56
42.91
40.94
38.65
37.00
36.58
37.38
38.83
39.99
39.95
38.05
34.06
28.07
20.50
11.90
2.99
-5.45
-12.70
-18.34
