1520262197.00
64.000000
-0.00
-0.00
-0.00
-0.00
-0.00
-0.00
-0.00
-0.00
-0.00
-0.00
0.00
0.01
0.01
-0.00
-0.03
-0.05
-0.05
0.00
0.13
0.36
0.66
1.01
1.37
1.72
2.06
2.40
2.79
3.24
3.80
4.42
5.06
5.66
6.20
6.68
7.15
7.68
8.31
9.14
10.09
11.04
11.88
12.56
13.14
13.76
14.65
15.96
17.91
20.32
22.90
25.38
27.58
29.57
31.68
34.32
37.81
42.54
48.15
54.10
59.83
64.97
69.58
74.14
79.34
85.71
93.76
103.00
112.62
121.73
129.77
136.75
143.30
150.75
157.77
166.64
177.95
191.79
206.97
220.57
228.25
225.36
208.53
176.87
132.76
80.05
23.07
-34.94
-92.44
-149.16
-205.23
-260.37
-313.74
-363.87
-409.83
-450.91
-486.50
-515.74
-537.23
-549.22
-549.96
-538.37
-514.21
-478.67
-433.88
-382.45
-327.02
-269.84
-212.63
-156.66
-102.95
-52.37
-5.90
35.58
71.43
101.35
125.50
144.38
158.69
169.15
176.37
180.75
182.57
182.07
179.51
175.23
169.65
163.18
156.15
148.81
141.30
133.69
126.02
118.33
110.69
103.16
95.80
88.68
81.83
75.25
68.95
62.95
57.25
51.86
46.78
42.03
37.59
33.45
29.61
26.07
22.81
19.83
17.11
14.67
12.48
10.54
8.83
7.35
6.07
4.97
4.05
3.27
2.62
2.09
1.65
1.30
1.01
0.79
0.61
0.48
0.37
0.29
0.22
0.18
0.14
0.11
0.09
0.08
0.07
0.06
0.05
0.05
0.04
0.04
0.04
0.05
0.06
0.07
0.08
0.10
0.13
0.16
0.19
0.22
0.26
0.30
0.35
0.39
0.44
0.49
0.54
0.59
0.64
0.69
0.76
0.82
0.89
0.97
1.05
1.15
1.26
1.37
1.51
1.66
1.83
2.01
2.22
2.45
2.70
2.99
3.30
3.64
4.01
4.42
4.85
5.33
5.83
6.38
6.98
7.62
8.32
9.04
9.80
10.56
11.33
12.11
12.93
13.83
14.82
15.92
17.09
18.30
19.49
20.60
21.57
22.34
22.85
23.00
22.66
21.72
20.05
17.59
14.36
10.42
6.01
1.37
-3.24
-7.61
-11.66
-15.35
-18.68
-21.63
-24.09
-25.90
-26.89
-27.03
-26.42
-25.37
-24.28
-23.54
-23.29
-23.47
-23.75
-23.74
-23.18
-22.10
-20.84
-19.95
-19.88
-20.83
-22.56
-24.49
-26.03
-26.78
-26.69
-26.15
-25.74
-26.02
-27.39
-30.14
-34.22
-39.17
-43.82
-46.33
-44.69
-37.57
-25.06
-8.98
7.74
22.05
31.97
37.18
38.77
38.36
37.22
35.86
34.13
31.82
29.16
26.78
25.39
25.27
26.04
26.84
26.63
24.75
21.16
16.72
12.47
9.36
7.95
8.25
9.84
12.08
14.42
16.49
18.23
19.73
21.12
22.41
23.42
23.87
23.48
22.23
20.39
18.46
16.88
15.96
15.75
16.08
16.66
17.18
17.36
17.02
16.07
14.63
12.89
11.09
9.38
7.67
5.78
3.59
1.18
-1.06
-2.64
-3.14
-2.43
-0.60
2.12
5.61
9.89
15.04
20.97
27.37
33.66
39.25
43.71
46.98
49.25
50.84
52.13
53.33
54.41
55.24
55.66
55.67
55.35
54.88
54.20
52.98
50.59
46.32
39.71
30.75
19.91
7.94
-4.32
-16.20
-27.08
-36.36
-43.30
-47.19
-47.44
-43.83
-36.56
-26.16
-13.51
0.24
13.75
25.52
33.88
37.23
34.35
24.76
8.92
-11.77
-35.17
-58.53
-79.26
-94.89
-103.81
-105.60
-101.25
-93.15
-84.45
-78.07
-75.48
-76.37
-79.03
-81.76
-84.07
-87.12
-92.88
-102.81
-116.72
-132.76
-148.52
-161.86
-171.49
-176.30
-174.34
-162.70
-138.79
-102.38
-56.88
-9.10
33.21
64.33
82.56
90.47
92.56
93.05
93.91
94.85
94.61
92.45
88.85
85.08
82.16
80.14
78.07
74.75
69.52
62.60
54.84
47.13
39.96
33.28
26.68
19.80
12.46
4.68
-3.40
-11.48
-19.08
-25.71
-31.02
-35.10
-38.47
-41.94
-46.06
-50.75
-55.20
-58.26
-58.94
-56.93
-52.78
-47.64
-42.77
-39.07
-36.83
-35.81
-35.46
-35.31
-35.14
-35.00
-35.17
-35.86
-37.04
-38.51
-39.88
-40.91
-41.56
-41.99
-42.34
-42.50
-41.93
-39.75
-35.05
-27.20
-16.16
-2.54
12.28
26.36
37.43
43.48
43.90
40.29
36.75
38.94
52.52
81.30
125.87
183.08
246.41
307.16
356.25
386.19
392.95
376.89
342.49
296.66
246.44
196.75
149.50
103.94
58.01
9.85
-41.02
-93.23
-143.57
-187.63
-220.85
-240.14
-245.25
-239.19
-227.36
-215.68
-208.44
-206.97
-209.68
-213.20
-213.63
-207.32
-191.28
-163.37
-122.88
-71.22
-12.50
46.54
97.49
131.94
143.80
131.43
98.81
54.82
11.18
-21.04
-34.97
-29.87
-10.87
13.76
36.15
51.32
57.23
54.25
43.33
24.80
-1.07
-33.19
-68.10
-100.18
-123.51
-135.36
-136.18
-129.14
-118.69
-108.15
-98.98
-89.97
-78.49
-62.58
-44.05
-26.17
-12.62
-6.55
-9.72
-23.64
-48.36
-82.27
-122.34
-166.23
-209.34
-245.53
-269.11
-276.56
-269.12
-250.83
-226.90
-189.29
-139.31
-85.53
-38.51
-8.62
8.64
19.64
29.99
43.90
63.28
86.82
113.57
142.62
172.36
199.66
220.28
230.75
230.19
220.73
205.46
188.92
174.28
162.86
153.91
147.34
144.09
145.52
151.78
160.53
168.93
173.88
174.90
173.58
175.49
186.07
207.98
239.61
276.27
313.20
345.83
372.66
373.52
337.00
267.00
181.57
99.54
30.67
-18.05
-55.74
-89.31
-122.70
-155.11
-185.82
-214.94
-242.77
-268.32
-288.50
-300.64
-301.89
-291.84
-270.77
-241.58
-209.63
-181.10
-160.37
-148.63
-144.80
-144.43
-141.44
-128.88
-102.50
-63.03
-15.59
32.89
76.26
110.09
127.47
124.34
103.96
75.57
47.69
24.37
6.29
-6.98
-16.18
-21.40
-21.32
-15.23
-2.89
14.08
32.87
50.21
62.97
68.40
65.25
54.88
37.51
16.60
-3.88
-20.50
-31.34
-36.24
-36.59
-34.37
-31.08
-27.89
-25.57
-25.54
-29.22
-37.10
-48.33
-60.93
-72.62
-81.63
-87.71
-91.72
-95.66
-101.28
-109.03
-117.61
-124.47
-126.60
-121.62
-108.69
-88.58
-63.76
-37.43
-12.56
8.87
26.06
39.13
48.70
55.48
60.25
63.69
66.44
69.03
71.75
74.42
76.50
77.23
76.00
72.70
67.73
61.92
56.18
51.27
47.56
45.00
43.16
41.52
39.57
36.99
33.67
29.63
24.90
19.49
13.39
6.71
-0.31
-7.20
-13.34
-17.98
-20.56
-20.72
-18.49
-14.22
-8.49
-1.97
4.76
11.23
17.06
21.94
25.59
27.74
28.25
27.18
24.87
21.84
18.75
16.10
14.11
12.70
11.58
10.37
8.85
7.06
5.21
3.52
2.08
0.66
-1.19
-3.97
-8.05
-13.51
-20.10
-27.31
-34.42
-40.59
-44.93
-46.79
-45.88
-42.35
-36.90
-30.42
-23.80
-17.65
-12.28
-7.79
-4.26
-1.82
-0.64
-0.84
-2.37
-5.11
-8.80
-13.21
-18.14
-23.39
-28.74
-33.95
-38.80
-43.11
-46.74
-49.51
-51.22
-51.57
-50.24
-46.99
-41.82
-35.00
-27.07
-18.71
-10.50
-2.77
4.50
11.65
19.13
27.26
36.08
45.37
54.69
63.59
71.59
78.40
83.82
87.77
90.32
91.65
91.92
91.27
89.76
87.46
84.52
81.24
77.93
74.84
71.98
69.14
66.03
62.43
58.30
53.73
48.89
43.88
38.72
33.43
28.01
22.45
16.68
10.60
4.11
-2.83
-10.04
-17.11
-23.43
-28.32
-31.21
-31.74
-29.85
-25.81
-20.11
-13.42
-6.42
0.26
6.21
11.19
15.14
18.17
20.39
21.85
22.51
22.29
21.17
19.32
17.18
15.26
13.94
13.36
13.32
13.42
13.25
12.58
11.36
9.60
7.32
4.51
1.16
-2.68
-6.93
-11.48
-16.18
-20.82
-25.10
-28.56
-30.68
-31.01
-29.29
-25.55
-20.12
-13.56
-6.55
0.24
6.30
11.31
15.20
18.05
20.03
21.24
21.75
21.63
21.03
20.21
19.44
18.90
18.65
18.58
18.46
18.07
17.23
15.89
14.12
12.11
10.08
8.13
6.22
4.15
1.64
-1.56
-5.53
-10.17
-15.27
-20.53
-25.62
-30.11
-33.52
-35.30
-35.02
-32.51
-27.94
-21.91
-15.21
-8.73
-3.15
1.17
4.20
6.21
7.59
8.68
9.68
10.62
11.48
12.21
12.87
13.52
14.18
14.73
14.97
14.71
13.96
12.96
12.08
11.66
11.77
12.13
12.31
11.88
10.65
8.79
6.62
4.49
2.61
0.98
-0.53
-2.15
-4.07
-6.48
-9.44
-12.85
-16.48
-19.97
-22.87
-24.75
-25.24
-24.11
-21.34
-17.12
-11.88
-6.22
-0.77
3.97
7.74
10.52
12.46
13.74
14.52
14.87
14.89
14.69
14.40
14.07
13.71
13.26
12.67
11.90
10.92
9.72
8.36
6.93
5.60
4.50
3.68
2.99
2.18
0.94
-0.92
-3.41
-6.38
-9.60
-12.87
-16.02
-18.90
-21.25
-22.79
-23.21
-22.38
-20.35
-17.43
-14.02
-10.59
-7.52
-5.02
-3.13
-1.73
-0.67
0.12
0.65
0.87
0.72
0.26
-0.40
-1.13
-1.78
-2.29
-2.61
-2.74
-2.80
-2.93
-3.37
-4.27
-5.61
-7.18
-8.72
-10.02
-11.12
-12.27
-13.80
-15.89
-18.47
-21.22
-23.77
-25.82
-27.24
-27.95
-27.87
-26.86
-24.83
-21.80
-18.01
-13.93
-10.05
-6.81
-4.39
-2.73
-1.63
-0.92
-0.49
-0.41
-0.74
-1.52
-2.70
-4.18
-5.84
-7.58
-9.35
-11.10
-12.82
-14.55
-16.37
-18.42
-20.81
-23.62
-26.78
-30.14
-33.56
-37.01
-40.59
-44.44
-48.70
-53.36
-58.26
-63.15
-67.58
-70.99
-72.73
-72.16
-68.82
-62.59
-53.80
-43.06
-31.12
-18.56
-5.74
7.13
19.81
31.90
42.78
51.78
58.44
62.57
64.39
64.29
62.81
60.39
57.45
54.30
51.22
48.37
45.74
43.19
40.50
37.48
34.11
30.54
27.03
23.77
20.85
18.14
15.41
12.37
8.86
4.86
0.53
-3.72
-7.38
-9.91
-10.90
-10.21
-8.03
-4.85
-1.30
2.05
4.96
7.41
9.62
11.80
14.00
16.05
17.68
18.59
18.72
18.30
17.75
17.56
18.04
19.22
20.84
22.51
23.87
24.74
25.08
25.09
25.22
26.07
28.29
32.13
37.05
41.47
42.97
38.97
27.77
9.43
-13.99
-38.91
-61.23
-77.57
-86.07
-86.55
-80.50
-70.23
-58.33
-47.13
-38.45
-33.34
-32.06
-34.11
-38.33
-43.66
-49.02
-53.62
-57.15
-59.70
-61.59
-63.06
-64.17
-64.34
-63.70
-62.26
-60.40
-58.82
-58.24
-58.92
-60.52
-61.99
-61.38
-57.97
-50.88
-39.54
-23.97
-4.99
15.59
35.13
51.08
62.87
70.39
76.02
83.10
93.91
108.49
124.74
139.66
146.51
149.87
149.86
147.70
144.52
140.48
135.29
128.99
122.35
116.72
114.18
114.24
116.01
118.27
119.03
115.77
105.91
87.52
59.29
25.79
-7.46
-37.95
-62.84
-81.11
-93.73
-102.96
-111.22
-120.03
-129.10
-138.30
-146.79
-153.28
-156.91
-157.35
-154.87
-150.22
-144.47
-138.27
-132.27
-126.16
-118.50
-108.06
-94.54
-79.10
-63.88
-50.99
-41.23
-33.99
-27.33
-18.80
-6.95
7.88
23.85
38.83
51.47
62.21
73.08
86.56
104.71
127.82
154.50
182.24
208.09
228.75
240.14
237.65
217.72
180.46
131.39
80.83
40.42
18.35
15.83
27.00
42.43
53.86
57.63
54.74
48.52
41.52
34.01
24.50
11.65
-4.28
-21.52
-37.43
-50.12
-59.06
-65.07
-69.98
-75.67
-83.52
-93.62
-104.80
-114.99
-122.05
-124.67
-123.01
-118.58
-113.61
-110.11
-109.03
-110.10
-112.00
-113.13
-112.32
-109.26
-104.50
-98.99
-93.58
-88.66
-84.28
-80.30
-76.68
-73.47
-70.72
-68.30
-65.74
-62.36
-57.32
-49.98
-40.06
-27.76
-13.73
1.11
15.78
29.47
41.60
51.85
60.05
66.13
70.13
72.12
72.36
71.09
68.62
65.25
61.24
56.89
52.52
48.48
45.00
42.15
39.73
37.47
35.07
32.37
29.47
26.60
23.98
21.65
19.44
16.97
13.91
10.13
5.80
1.35
-2.73
-6.03
-8.32
-9.53
-9.68
-8.86
-7.21
-5.03
-2.66
-0.49
1.19
2.28
2.80
2.87
2.57
1.94
0.97
-0.30
-1.71
-3.04
-4.05
-4.59
-4.71
-4.62
-4.62
-4.98
-5.77
-6.79
-7.72
-8.23
-8.23
-7.93
-7.75
-8.02
-8.87
-10.18
-11.64
-12.96
-13.80
-13.94
-13.12
-11.21
-8.28
-4.71
-1.04
2.18
4.71
6.66
8.36
10.10
11.84
13.24
13.84
13.41
12.13
10.55
9.30
8.72
8.80
9.18
9.46
9.40
9.06
8.67
8.40
8.25
7.92
7.07
5.38
2.72
-0.89
-5.37
-10.63
-16.58
-23.01
-29.55
-35.74
-41.14
-45.54
-49.09
-52.19
-55.29
-58.68
-62.44
-66.42
-70.37
-73.98
-76.96
-78.95
-79.64
-78.93
-77.02
-74.45
-71.90
-69.87
-68.42
-67.12
-65.28
-62.25
-57.67
-51.43
-43.49
-33.62
-21.41
-6.40
11.47
31.48
52.03
70.96
86.18
96.33
101.19
101.50
98.57
93.61
87.34
80.06
71.89
63.22
54.86
47.86
43.14
41.13
41.62
43.93
47.24
50.77
53.89
55.99
56.48
54.93
51.22
45.82
39.69
34.05
29.80
27.11
25.33
23.45
20.59
16.50
11.55
6.42
1.84
-1.84
-4.74
-7.23
-9.69
-12.31
-15.06
-17.80
-20.43
-22.76
-24.80
-26.90
-29.60
-33.26
-37.88
-43.01
-47.99
-52.32
-55.13
-55.88
-54.49
-51.33
-46.89
-41.67
-36.22
-31.13
-26.92
-22.80
-17.76
-11.40
-4.29
2.32
7.39
10.69
12.96
15.37
20.39
29.78
43.52
59.85
76.44
91.68
105.19
117.66
123.40
118.63
103.71
83.42
63.16
45.90
32.40
22.40
17.18
14.83
14.56
15.52
16.46
16.21
14.74
13.52
13.78
17.20
23.76
32.77
42.57
51.35
57.75
61.17
61.23
57.22
48.45
35.18
20.73
10.66
10.48
22.63
44.99
71.37
94.08
107.12
107.93
98.03
81.01
60.37
38.26
15.79
-6.25
-26.57
-43.55
-55.90
-63.18
-66.22
-66.86
-67.40
-69.76
-74.99
-82.99
-92.70
-102.64
-111.38
-117.91
-121.74
-122.77
-121.09
-116.87
-110.39
-102.03
-92.39
-82.10
-71.76
-61.76
-52.37
-43.71
-35.84
-28.78
-22.45
-16.75
-11.57
-6.90
-2.84
0.35
2.45
3.24
2.75
1.17
-1.16
-3.84
-6.51
-8.82
-10.58
-11.77
-12.55
-13.07
-13.34
-13.22
-12.65
-11.65
-10.47
-9.62
-9.64
-10.97
-13.52
-16.65
-19.58
-21.87
-23.69
-25.65
-28.82
-34.09
-42.14
-52.74
-64.45
-75.04
-82.14
-83.69
-78.43
-66.45
-48.79
-27.35
-3.87
20.58
45.53
70.53
95.15
119.04
141.52
162.09
177.63
184.03
179.59
166.84
150.40
133.97
120.72
109.90
101.19
94.78
91.20
90.94
94.83
102.77
114.50
129.67
147.09
164.23
177.00
181.41
175.73
161.51
142.87
124.95
111.85
105.40
105.87
112.65
125.28
142.90
162.92
180.09
187.69
180.04
154.71
113.44
60.55
0.76
-62.32
-126.40
-189.59
-248.93
-299.97
-337.83
-358.97
-363.17
-354.11
-338.28
-322.76
-312.81
-310.05
-312.27
-314.86
-313.03
-303.88
-287.41
-266.24
-244.24
-225.33
-212.53
-207.77
-211.75
-223.27
-238.81
-252.67
-258.62
-252.15
-232.40
-202.17
-166.25
-128.84
-92.01
-56.02
-21.03
11.38
38.04
55.81
63.73
64.16
62.08
62.71
68.94
80.13
92.82
102.87
107.75
107.84
106.06
106.38
111.84
122.95
137.66
152.32
163.53
169.82
172.04
172.42
173.02
174.39
175.45
174.44
170.18
162.91
154.07
145.43
138.11
132.14
126.71
120.78
113.69
105.49
96.73
88.15
80.24
73.10
66.43
59.81
52.92
45.71
38.47
31.68
25.76
20.84
16.75
13.04
9.28
5.16
0.64
-4.11
-8.81
-13.22
-17.14
-20.56
-23.62
-26.52
-29.51
-32.72
-36.10
-39.42
-42.36
-44.61
-46.01
-46.61
-46.70
-46.70
-47.03
-47.86
-49.13
-50.55
-51.74
-52.32
-52.02
-50.58
-47.80
-43.54
-37.81
-30.92
-23.42
-16.05
-9.62
-4.76
-1.87
-1.03
-1.95
-4.10
-6.77
-9.26
-11.17
-12.46
-13.42
-14.47
-15.91
-17.82
-20.10
-22.61
-25.28
-28.11
-31.03
-33.82
-36.10
-37.50
-37.89
-37.43
-36.42
-35.03
-32.99
-29.57
-23.91
-15.53
-4.73
7.29
18.70
27.86
34.09
38.10
41.78
47.27
55.87
67.28
79.70
90.58
97.83
100.52
99.08
94.68
88.50
81.22
73.09
64.38
55.97
49.38
46.33
47.85
53.70
62.28
71.08
77.70
80.54
79.28
74.68
67.99
60.41
52.82
45.65
39.04
32.91
27.05
21.05
14.44
7.01
-0.95
-8.59
-14.88
-19.07
-21.28
-22.57
-24.56
-28.78
-35.85
-45.03
-54.37
-61.43
-64.15
-61.60
-54.28
-43.71
-31.82
-20.25
-9.96
-1.34
5.40
9.94
11.93
11.15
7.90
3.00
-2.50
-7.63
-12.02
-16.03
-20.41
-25.89
-32.78
-40.85
-49.53
-58.10
-65.73
-71.92
-76.58
-80.14
-83.32
-86.91
-91.38
-96.74
-102.35
-106.70
-108.53
-107.65
-105.11
-102.66
-101.95
-103.94
-108.55
-114.78
-120.22
-122.95
-122.51
-119.83
-116.18
-112.29
-108.11
-103.13
-96.69
-86.58
-71.10
-49.85
-23.68
6.07
37.88
69.93
100.27
127.46
153.35
180.29
209.15
238.58
265.85
288.40
304.70
314.86
307.31
277.18
229.78
177.42
130.37
92.60
63.79
41.95
24.46
8.53
-6.04
-18.33
-28.43
-36.49
-42.34
-45.49
-45.94
-44.48
-42.39
-39.22
-34.50
-28.84
-23.11
-18.82
-16.86
-17.30
-19.63
-22.84
-24.89
-24.28
-20.95
-16.07
-11.29
-7.79
-6.07
-6.11
-7.48
-9.07
-10.09
-10.51
-11.19
-13.51
-18.77
-27.65
-39.92
-54.37
-68.93
-81.47
-90.59
-95.87
-97.74
-97.08
-94.76
-91.50
-87.84
-84.24
-81.05
-78.46
-76.30
-74.04
-70.99
-66.55
-60.43
-52.67
-43.52
-33.10
-21.28
-7.78
7.57
24.54
42.24
59.14
73.28
82.77
86.21
83.12
73.98
60.09
43.30
25.51
8.44
-6.57
-18.71
-27.71
-33.89
-38.05
-41.17
-43.97
-46.58
-48.29
-47.89
-44.19
-36.72
-26.02
-13.61
-1.36
9.02
16.58
21.27
23.71
24.80
25.35
25.86
26.46
27.09
27.63
27.97
27.98
27.47
26.34
24.85
23.68
23.81
26.09
30.63
36.61
42.48
46.60
47.89
46.15
41.94
36.00
28.84
20.65
11.54
1.99
-7.05
-14.30
-18.62
-19.50
-17.19
-12.63
-7.05
-1.66
2.72
5.77
7.61
8.60
9.03
9.06
8.66
7.76
6.35
4.59
2.75
1.10
-0.21
-1.25
-2.23
-3.45
-5.20
-7.62
-10.61
-13.84
-16.82
-19.05
-20.29
-20.62
-20.46
-20.35
-20.70
-21.50
-22.38
-22.67
-21.61
-18.62
-13.34
-5.79
3.64
14.11
24.37
32.94
38.34
39.56
36.21
28.57
17.54
4.51
-8.71
-20.03
-27.40
-29.38
-25.65
-17.39
-6.96
2.84
9.72
12.75
12.38
10.02
7.13
4.56
2.26
-0.36
-3.95
-8.76
-14.46
-20.33
-25.61
-29.77
-32.60
-34.11
-34.29
-33.00
-29.97
-25.05
-18.39
-10.66
-2.89
3.77
8.47
10.94
11.56
11.14
10.55
10.36
10.65
11.05
11.04
10.27
8.76
6.87
5.03
3.52
2.36
1.36
0.38
-0.53
-1.13
-1.18
-0.74
-0.28
-0.64
-2.60
-6.52
-12.03
-18.13
-23.46
-26.78
-27.38
-25.09
-20.26
-13.49
-5.45
3.17
11.73
19.61
26.47
32.43
38.10
44.26
51.42
59.35
67.03
72.98
75.92
75.30
71.46
65.25
57.58
48.98
39.69
29.89
20.09
11.11
3.81
-1.37
-4.58
-6.63
-8.54
-11.18
-15.03
-20.00
-25.58
-31.05
-35.63
-38.65
-39.65
-38.45
-35.16
-30.23
-24.27
-17.96
-11.84
-6.22
-1.16
3.37
7.45
11.06
14.09
16.44
18.08
19.13
19.82
20.36
20.85
21.24
21.37
21.11
20.46
19.56
18.64
17.91
17.42
17.06
16.56
15.68
14.25
12.26
9.84
7.12
4.23
1.21
-1.85
-4.88
-7.76
-10.44
-13.00
-15.68
-18.73
-22.28
-26.11
-29.68
-32.28
-33.24
-32.17
-28.99
-23.96
-17.47
-10.05
-2.26
5.23
11.75
16.77
20.08
21.89
22.71
23.10
23.43
23.73
23.79
23.37
22.41
21.10
19.79
18.81
18.31
18.25
18.41
18.54
18.49
18.18
17.61
16.78
15.69
14.31
12.61
10.51
7.96
4.95
1.48
-2.41
-6.66
-11.20
-15.92
-20.58
-24.91
-28.70
-31.99
-35.11
-38.59
-42.89
-48.23
-54.30
-60.40
-65.60
-69.02
-70.09
-68.57
-64.59
-58.70
-51.80
-44.99
-39.25
-35.01
-31.91
-28.92
-24.82
-18.71
-10.46
-0.70
9.65
19.78
29.28
38.16
46.51
54.24
61.03
66.49
70.40
72.85
74.14
74.60
74.36
73.38
71.49
68.65
64.95
60.62
55.99
51.28
46.62
42.04
37.52
33.01
28.53
24.15
19.93
15.89
11.95
7.91
3.49
-1.54
-7.22
-13.27
-19.05
-23.82
-26.87
-27.88
-26.91
-24.36
-20.79
-16.73
-12.62
-8.76
-5.28
-2.20
0.58
3.18
5.63
7.85
9.65
10.87
11.52
11.73
11.74
11.68
11.49
11.00
10.07
8.80
7.51
6.64
6.55
7.27
8.53
9.86
10.77
10.93
10.24
8.89
7.24
5.82
5.14
5.51
6.89
8.87
10.72
11.65
11.03
8.59
4.44
-0.94
-6.86
-12.61
-17.57
-21.27
-23.43
-23.93
-22.78
-20.17
-16.45
-12.11
-7.70
-3.71
-0.44
1.94
3.49
4.31
4.57
4.48
4.27
4.18
4.38
4.89
5.56
6.09
6.28
6.06
5.60
5.14
4.85
4.64
4.22
3.27
1.63
-0.55
-2.90
-5.01
-6.63
-7.77
-8.62
-9.36
-10.07
-10.76
-11.44
-12.25
-13.40
-15.09
-17.25
-19.53
-21.33
-22.09
-21.45
-19.41
-16.24
-12.39
-8.28
-4.26
-0.58
2.61
5.22
7.23
8.71
9.76
10.50
10.98
11.24
11.29
11.17
10.97
10.76
10.57
10.38
10.13
9.79
9.40
9.02
8.68
8.38
8.11
7.86
7.60
7.30
6.81
5.98
4.65
2.85
0.73
-1.40
-3.28
-4.80
-6.00
-7.05
-8.14
-9.49
-11.22
-13.43
-16.04
-18.86
-21.55
-23.66
-24.84
-24.91
-23.95
-22.20
-19.94
-17.37
-14.59
-11.62
-8.47
-5.20
-1.88
1.36
4.40
7.12
9.40
11.18
12.37
13.02
13.18
12.98
12.61
12.22
11.89
11.58
11.16
10.56
9.74
8.78
7.82
6.96
6.29
5.85
5.68
5.79
6.15
6.62
6.91
6.73
5.89
4.41
2.51
0.54
-1.19
-2.51
-3.43
-4.01
-4.37
-4.70
-5.25
-6.33
-8.20
-10.87
-14.05
-17.17
-19.54
-20.65
-20.29
-18.60
-15.97
-12.89
-9.78
-6.88
-4.25
-1.79
0.63
3.04
5.32
7.19
8.30
8.47
7.76
6.50
5.21
4.29
3.99
4.29
5.05
6.04
7.12
8.18
9.13
9.92
10.41
10.45
9.92
8.72
6.89
4.65
2.30
0.21
-1.36
-2.43
-3.22
-4.11
-5.35
-6.95
-8.62
-9.94
-10.58
-10.52
-10.06
-9.70
-9.83
-10.61
-11.91
-13.41
-14.78
-15.77
-16.24
-16.12
-15.33
-13.83
-11.59
-8.70
-5.37
-1.90
1.38
4.15
6.23
7.59
8.32
8.58
8.56
8.41
8.20
7.93
7.56
7.04
6.42
5.71
5.01
4.36
3.78
3.22
2.63
1.96
1.22
0.47
-0.22
-0.73
-1.05
-1.19
-1.20
-1.21
-1.32
-1.64
-2.27
-3.19
-4.31
-5.41
-6.23
-6.53
-6.24
-5.47
-4.55
-3.92
-3.98
-4.92
-6.58
-8.47
-10.02
-10.71
-10.35
-9.06
-7.13
-4.93
-2.80
-1.02
0.28
1.17
1.86
2.71
4.02
5.94
8.31
10.69
12.58
13.63
13.73
13.04
11.80
10.18
8.24
6.07
3.92
2.17
1.13
0.79
0.63
-0.14
-2.20
-5.65
-9.79
-13.40
-15.27
-14.91
-12.77
-9.99
-7.80
-6.93
-7.44
-8.80
-10.48
-12.21
-14.12
-16.40
-19.00
-21.40
-22.71
-22.03
-18.86
-13.39
-6.51
0.50
6.39
10.32
12.06
11.94
10.64
8.90
7.34
6.30
5.87
5.92
6.18
6.34
6.21
5.77
5.16
4.54
3.97
3.39
2.65
1.70
0.58
-0.59
-1.71
-2.88
-4.30
-6.17
-8.46
-10.88
-13.02
-14.55
-15.48
-16.11
-16.90
-18.12
-19.70
-21.24
-22.18
-22.06
-20.63
-18.00
-14.47
-10.47
-6.48
-2.88
0.10
2.42
4.21
5.67
6.99
8.25
9.38
10.25
10.75
10.84
10.54
9.89
8.97
7.82
6.51
5.18
3.96
3.03
2.52
2.46
2.75
3.20
3.54
3.59
3.25
2.53
1.55
0.42
-0.76
-1.94
-3.15
-4.39
-5.66
-6.94
-8.29
-9.80
-11.60
-13.71
-16.02
-18.27
-20.10
-21.20
-21.38
-20.60
-18.92
-16.51
-13.54
-10.19
-6.71
-3.36
-0.38
2.08
3.97
5.30
6.11
6.38
6.14
5.50
4.71
4.08
3.82
3.96
4.25
4.37
4.06
3.37
2.58
2.03
1.96
2.26
2.65
2.76
2.45
1.83
1.19
0.82
0.78
0.84
0.64
-0.15
-1.64
-3.60
-5.62
-7.27
-8.25
-8.55
-8.39
-8.18
-8.35
-9.23
-10.95
-13.36
-16.09
-18.67
-20.63
-21.64
-21.54
-20.33
-18.11
-15.03
-11.25
-6.99
-2.53
1.71
5.33
7.99
9.57
10.22
10.30
10.28
10.49
11.06
11.88
12.69
13.27
13.46
13.32
12.95
12.59
12.40
12.54
12.97
13.60
14.22
14.56
14.43
13.72
12.44
10.73
8.79
6.83
5.06
3.53
2.21
0.94
-0.44
-1.99
-3.64
-5.26
-6.69
-7.93
-9.14
-10.54
-12.28
-14.33
-16.58
-18.88
-21.10
-23.11
-24.63
-25.22
-24.30
-21.50
-16.94
-11.25
-5.46
-0.52
3.08
5.46
7.21
8.95
11.03
13.38
15.71
17.73
19.32
20.50
21.36
21.91
22.12
22.01
21.72
21.53
21.71
22.36
23.35
24.41
25.21
25.51
25.26
24.58
23.69
22.80
22.09
21.51
20.89
20.02
18.79
17.39
16.35
16.29
17.69
20.58
24.35
27.96
30.26
30.38
27.97
23.25
16.79
9.29
1.42
-6.19
-12.93
-18.17
-21.41
-22.40
-21.34
-18.82
-15.73
-12.84
-10.66
-9.27
-8.44
-7.83
-7.17
-6.39
-5.52
-4.68
-3.96
-3.39
-3.00
-2.76
-2.68
-2.63
-2.45
-2.00
-1.19
-0.12
1.00
1.94
2.57
2.85
2.86
2.61
2.05
1.13
-0.16
-1.71
-3.31
-4.76
-5.95
-6.88
-7.64
-8.31
-8.93
-9.61
-10.49
-11.76
-13.49
-15.58
-17.69
-19.36
-20.22
-20.06
-18.89
-16.83
-14.01
-10.55
-6.61
-2.44
1.61
5.16
7.89
9.69
10.64
10.96
10.91
10.72
10.52
10.35
10.17
9.94
9.59
9.07
8.40
7.65
6.93
6.37
6.06
6.01
6.14
6.25
6.15
5.67
4.71
3.30
1.49
-0.59
-2.80
-4.96
-6.91
-8.51
-9.70
-10.54
-11.21
-11.95
-13.04
-14.65
-16.79
-19.30
-21.77
-23.71
-24.59
-24.05
-21.96
-18.46
-13.86
-8.62
-3.26
1.68
5.69
8.41
9.74
9.91
9.42
8.84
8.51
8.44
8.37
7.97
7.06
5.76
4.34
3.14
2.36
2.09
2.29
2.94
3.99
5.30
6.68
7.83
8.51
8.58
8.10
7.23
6.17
5.05
3.97
2.99
2.14
1.40
0.71
-0.09
-1.15
-2.55
-4.17
-5.79
-7.18
-8.24
-9.11
-10.09
-11.50
-13.50
-15.94
-18.39
-20.31
-21.22
-20.88
-19.35
-16.90
-13.86
-10.56
-7.23
-4.09
-1.37
0.78
2.27
3.17
3.67
4.01
4.28
4.46
4.45
4.19
3.77
3.39
3.28
3.53
4.10
4.83
5.55
6.27
7.08
8.09
9.27
10.40
11.14
11.25
10.63
9.52
8.23
7.07
6.17
5.49
4.86
4.07
2.91
1.12
-1.57
-5.43
-10.50
-16.46
-22.49
-27.56
-30.71
-31.49
-30.21
-27.77
-25.32
-23.70
-23.17
-23.27
-23.20
-22.11
-19.50
-15.33
-9.94
-3.84
2.49
8.62
14.18
18.78
22.10
23.94
24.29
23.42
21.80
19.97
18.42
17.42
16.94
16.73
16.47
15.91
15.03
14.03
13.21
12.77
12.75
12.93
13.02
12.85
12.36
11.64
10.82
9.98
9.13
8.26
7.38
6.53
5.70
4.85
3.86
2.68
1.34
-0.06
-1.40
-2.55
-3.51
-4.35
-5.15
-5.99
-6.87
-7.80
-8.75
-9.72
-10.75
-11.85
-13.02
-14.26
-15.53
-16.79
-17.91
-18.68
-18.83
-18.10
-16.35
-13.59
-10.01
-5.92
-1.71
2.29
5.80
8.60
10.58
11.75
12.16
12.03
11.64
11.22
10.95
10.83
10.78
10.67
10.44
10.06
9.60
9.17
8.91
8.91
9.16
9.62
10.17
10.72
11.11
11.27
11.13
10.68
9.96
9.03
7.98
6.84
5.65
4.32
2.78
0.97
-1.07
-3.14
-4.99
-6.38
-7.19
-7.45
-7.39
-7.34
-7.66
-8.66
-10.48
-12.95
-15.64
-17.98
-19.37
-19.47
-18.26
-16.05
-13.30
-10.43
-7.70
-5.18
-2.88
-0.80
1.02
2.48
3.54
4.18
4.50
4.64
4.73
4.85
5.03
5.17
5.17
4.95
4.54
4.07
3.73
3.66
3.91
4.37
4.94
5.51
6.04
6.50
6.73
6.52
5.64
4.04
1.98
-0.07
-1.63
-2.49
-2.81
-3.08
-3.83
-5.38
-7.72
-10.56
-13.52
-16.24
-18.44
-19.91
-20.48
-20.10
-18.84
-16.99
-14.92
-12.94
-11.17
-9.50
-7.78
-5.86
-3.80
-1.81
-0.21
0.68
0.54
-0.86
-3.63
-7.64
-12.41
-17.10
-20.79
-22.70
-22.52
-20.52
-17.38
-13.89
-10.66
-7.95
-5.72
-3.78
-1.97
-0.28
1.21
2.37
3.06
3.19
2.74
1.77
0.50
-0.81
-1.90
-2.61
-2.97
-3.23
-3.77
-4.90
-6.75
-9.21
-11.89
-14.28
-15.89
-16.42
-15.77
-14.03
-11.42
-8.20
-4.64
-1.07
2.18
4.86
6.85
8.27
9.36
10.44
11.69
13.07
14.42
15.45
15.97
15.89
15.31
14.46
13.68
13.31
13.55
14.42
15.68
16.94
17.77
17.92
17.37
16.30
14.94
13.46
11.91
10.27
8.56
6.87
5.34
4.08
3.06
2.15
1.21
0.17
-0.93
-1.96
-2.82
-3.56
-4.34
-5.41
-7.01
-9.23
-11.99
-14.98
-17.78
-19.91
-20.97
-20.75
-19.28
-16.76
-13.55
-10.03
-6.59
-3.51
-1.00
0.84
2.08
2.89
3.56
4.36
5.44
6.81
8.32
9.70
10.73
11.26
11.27
10.94
10.49
10.22
10.32
10.87
11.72
12.65
13.40
13.81
13.78
13.26
12.27
10.84
9.02
6.95
4.82
2.82
1.15
-0.12
-0.96
-1.50
-1.91
-2.36
-3.02
-4.03
-5.45
-7.35
-9.71
-12.49
-15.50
-18.47
-21.01
-22.70
-23.23
-22.47
-20.54
-17.66
-14.10
-10.14
-6.04
-2.09
1.41
4.23
6.31
7.77
8.79
9.56
10.18
10.68
11.09
11.46
11.83
12.21
12.57
12.88
13.15
13.46
13.83
14.24
14.50
14.45
14.03
13.38
12.73
12.24
11.88
11.43
10.65
9.47
8.00
6.47
5.02
3.68
2.34
0.91
-0.65
-2.21
-3.61
-4.69
-5.38
-5.71
-5.91
-6.30
-7.31
-9.25
-12.14
-15.58
-18.83
-21.09
-21.76
-20.73
-18.31
-15.09
-11.66
-8.37
-5.33
-2.51
0.19
2.75
5.13
7.20
8.81
9.92
10.53
10.70
10.56
10.21
9.74
9.24
8.80
8.49
8.43
8.67
9.19
9.96
10.83
11.63
12.20
12.42
12.26
11.75
11.00
10.06
8.96
7.63
6.00
4.08
2.04
0.11
-1.46
-2.55
-3.28
-3.86
-4.60
-5.72
-7.34
-9.40
-11.69
-13.89
-15.63
-16.57
-16.57
-15.65
-13.97
-11.73
-9.05
-6.01
-2.71
0.62
3.68
6.15
7.88
8.90
9.42
9.63
9.62
9.35
8.72
7.70
6.45
5.26
4.48
4.36
4.93
5.94
7.04
7.86
8.22
8.11
7.68
7.05
6.22
5.06
3.48
1.53
-0.53
-2.35
-3.69
-4.51
-4.99
-5.47
-6.24
-7.46
-9.19
-11.30
-13.59
-15.77
-17.46
-18.31
-18.06
-16.65
-14.24
-11.12
-7.55
-3.76
0.10
3.85
7.29
10.20
12.46
14.09
15.28
16.24
17.07
17.75
18.10
18.01
17.51
16.80
16.19
15.97
16.25
16.96
17.89
18.75
19.18
18.90
17.73
15.74
13.27
10.86
8.96
7.76
7.06
6.41
5.35
3.66
1.46
-0.92
-3.11
-4.92
-6.32
-7.44
-8.41
-9.34
-10.36
-11.62
-13.21
-15.15
-17.29
-19.35
-20.98
-21.84
-21.75
-20.62
-18.56
-15.73
-12.37
-8.74
-5.06
-1.51
1.77
4.66
7.08
8.94
10.19
10.88
11.08
10.99
10.83
10.79
10.98
11.38
11.93
12.47
12.92
13.21
13.34
13.30
13.13
12.82
12.40
11.88
11.31
10.68
9.96
9.11
8.08
6.89
5.55
4.06
2.43
0.65
-1.22
-3.08
-4.80
-6.28
-7.54
-8.66
-9.79
-11.07
-12.54
-14.18
-15.93
-17.72
-19.49
-21.20
-22.81
-24.20
-25.21
-25.64
-25.33
-24.19
-22.23
-19.56
-16.34
-12.66
-8.59
-4.18
0.52
5.30
9.84
13.72
16.58
18.25
18.76
18.38
17.50
16.49
15.59
14.89
14.32
13.78
13.15
12.43
11.62
10.76
9.87
8.97
8.12
7.43
6.98
6.85
6.96
7.11
7.07
6.69
5.94
4.88
3.63
2.27
0.80
-0.76
-2.34
-3.83
-5.10
-6.01
-6.56
-6.81
-6.90
-7.00
-7.19
-7.50
-7.83
-7.95
-7.63
-6.66
-5.02
-2.86
-0.48
1.77
3.74
5.45
7.16
9.32
12.39
16.74
22.49
29.35
36.56
42.99
47.38
48.76
46.73
41.65
34.41
26.07
17.49
9.13
1.12
-6.54
-13.71
-19.95
-24.67
-27.33
-27.59
-25.52
-21.53
-16.33
-10.74
-5.50
-1.20
1.85
3.57
4.04
3.45
1.97
-0.24
-3.05
-6.30
-9.82
-13.34
-16.50
-18.88
-20.08
-19.92
-18.47
-16.09
-13.29
-10.57
-8.24
-6.37
-4.87
-3.54
-2.25
-0.92
0.44
1.76
2.90
3.71
4.00
3.62
2.56
0.90
-1.17
-3.46
-5.75
-7.84
-9.54
-10.66
-11.07
-10.67
-9.55
-7.88
-5.94
-4.03
-2.49
-1.64
-1.65
-2.56
-4.26
-6.53
-9.05
-11.57
-13.87
-15.79
-17.23
-18.09
-18.39
-18.22
-17.79
-17.28
-16.84
-16.49
-16.13
-15.58
-14.63
-13.08
-10.79
-7.70
-3.89
0.38
4.68
8.52
11.48
13.45
14.67
15.64
16.79
18.25
19.65
20.19
18.87
14.94
8.18
-0.92
-11.24
-21.40
-30.07
-36.24
-39.34
-39.17
-35.85
-29.78
-21.60
-12.26
-2.90
5.31
11.42
14.96
16.05
15.32
13.55
11.40
9.16
6.81
4.13
0.92
-2.77
-6.61
-9.97
-12.14
-12.50
-10.77
-7.07
-1.92
3.87
9.47
14.16
17.48
19.23
19.48
18.52
16.88
15.20
14.11
14.03
14.96
16.49
17.94
18.71
18.55
17.70
16.67
15.97
15.83
16.08
16.24
15.84
14.61
12.61
10.21
7.93
6.16
5.20
5.04
5.53
6.37
7.19
7.68
7.61
6.93
5.70
4.13
2.42
0.72
-0.87
-2.35
-3.72
-4.97
-6.10
-7.06
-7.85
-8.48
-8.96
-9.33
-9.58
-9.69
-9.64
-9.47
-9.23
-8.99
-8.77
-8.47
-7.90
-6.91
-5.49
-3.91
-2.64
-2.22
-3.04
-5.16
-8.24
-11.65
-14.69
-16.81
-17.79
-17.67
-16.70
-15.16
-13.24
-11.04
-8.67
-6.27
-4.09
-2.36
-1.29
-0.94
-1.17
-1.74
-2.34
-2.77
-2.97
-3.06
-3.24
-3.66
-4.31
-4.99
-5.39
-5.30
-4.66
-3.66
-2.59
-1.75
-1.27
-1.15
-1.31
-1.67
-2.23
-3.00
-3.98
-5.13
-6.32
-7.38
-8.20
-8.74
-9.07
-9.31
-9.57
-9.88
-10.16
-10.21
-9.83
-8.87
-7.38
-5.54
-3.65
-2.00
-0.76
0.06
0.56
0.86
1.02
1.00
0.74
0.23
-0.34
-0.67
-0.47
0.36
1.63
2.97
3.98
4.40
4.27
3.84
3.42
3.22
3.23
3.35
3.39
3.26
2.90
2.34
1.57
0.56
-0.76
-2.39
-4.26
-6.19
-7.92
-9.21
-9.92
-10.02
-9.62
-8.87
-7.93
-6.90
-5.82
-4.70
-3.56
-2.47
-1.55
-0.93
-0.71
-0.90
-1.45
-2.27
-3.23
-4.27
-5.34
-6.33
-7.05
-7.21
-6.63
-5.31
-3.52
-1.70
-0.34
0.31
0.24
-0.27
-0.87
-1.29
-1.48
-1.58
-1.81
-2.35
-3.19
-4.21
-5.23
-6.05
-6.61
-6.93
-7.10
-7.10
-6.90
-6.35
-5.27
-3.62
-1.45
1.04
3.54
5.76
7.44
8.41
8.66
8.32
7.64
6.89
6.31
6.02
5.98
6.13
6.36
6.63
6.91
7.19
7.41
7.52
7.50
7.40
7.28
7.19
7.11
6.89
6.36
5.42
4.05
2.41
0.73
-0.71
-1.73
-2.24
-2.36
-2.27
-2.20
-2.36
-2.82
-3.59
-4.60
-5.73
-6.80
-7.53
-7.67
-6.98
-5.41
-3.15
-0.60
1.79
3.62
4.67
4.91
4.47
3.55
2.41
1.34
0.72
0.84
1.86
3.66
5.86
7.91
9.27
9.57
8.75
7.07
5.03
3.14
1.78
1.07
0.87
0.92
1.03
1.09
1.13
1.10
0.91
0.40
-0.47
-1.62
-2.78
-3.68
-4.17
-4.37
-4.52
-4.88
-5.60
-6.72
-8.24
-10.09
-12.14
-14.12
-15.60
-16.15
-15.47
-13.57
-10.82
-7.74
-4.85
-2.47
-0.66
0.72
1.87
3.02
4.29
5.71
7.18
8.57
9.67
10.32
10.45
10.12
9.44
8.66
8.01
7.66
7.68
7.98
8.38
8.69
8.79
8.68
8.46
8.22
7.96
7.62
7.09
6.29
5.23
4.01
2.74
1.53
0.41
-0.62
-1.60
-2.58
-3.56
-4.51
-5.36
-6.06
-6.62
-7.10
-7.60
-8.17
-8.78
-9.29
-9.47
-9.19
-8.38
-7.16
-5.69
-4.13
-2.60
-1.10
0.39
1.91
3.43
4.85
6.00
6.73
6.94
6.66
6.05
5.32
4.68
4.29
4.19
4.38
4.81
5.39
6.02
6.56
6.87
6.88
6.54
5.91
5.16
4.40
3.73
3.17
2.69
2.19
1.61
0.86
-0.06
-1.10
-2.11
-2.91
-3.42
-3.66
-3.86
-4.35
-5.44
-7.20
-9.38
-11.51
-13.05
-13.65
-13.28
-12.19
-10.71
-9.10
-7.43
-5.64
-3.69
-1.64
0.33
1.99
3.22
4.00
4.41
4.57
4.57
4.48
4.36
4.24
4.16
4.10
4.04
3.99
3.93
3.91
3.95
4.07
4.28
4.56
4.90
5.21
5.38
5.27
4.82
4.02
3.06
2.11
1.30
0.59
-0.23
-1.31
-2.74
-4.43
-6.16
-7.73
-9.02
-9.98
-10.62
-10.85
-10.54
-9.55
-7.83
-5.46
-2.66
0.27
3.03
5.34
7.01
7.96
8.23
8.01
7.54
7.06
6.68
6.39
6.06
5.56
4.85
4.02
3.27
2.75
2.54
2.62
2.82
2.99
2.96
2.69
2.19
1.56
0.87
0.19
-0.53
-1.39
-2.55
-4.08
-5.96
-8.01
-10.01
-11.73
-13.13
-14.23
-15.10
-15.76
-16.08
-15.85
-14.85
-13.02
-10.48
-7.50
-4.40
-1.46
1.17
3.46
5.47
7.24
8.76
10.02
10.97
11.62
11.98
12.14
12.17
12.15
12.12
12.12
12.18
12.34
12.64
13.07
13.55
14.00
14.29
14.36
14.14
13.64
12.89
11.94
10.97
10.14
9.55
9.13
8.66
7.80
6.32
4.21
1.72
-0.75
-2.88
-4.59
-6.02
-7.41
-8.99
-10.78
-12.68
-14.47
-15.90
-16.74
-16.81
-15.95
-14.07
-11.18
-7.49
-3.43
0.41
3.38
5.09
5.56
5.18
4.59
4.36
4.75
5.61
6.58
7.29
7.56
7.47
7.20
6.93
6.70
6.51
6.28
6.04
5.87
5.83
5.96
6.24
6.54
6.67
6.45
5.72
4.50
2.97
1.38
-0.02
-1.13
-2.00
-2.74
-3.39
-3.92
-4.25
-4.32
-4.23
-4.18
-4.33
-4.80
-5.56
-6.52
-7.66
-8.96
-10.42
-11.95
-13.30
-14.18
-14.38
-13.81
-12.55
-10.74
-8.50
-5.95
-3.25
-0.61
1.76
3.72
5.28
6.55
7.66
8.67
9.47
9.94
9.98
9.65
9.14
8.67
8.37
8.27
8.31
8.38
8.42
8.39
8.26
8.00
7.61
7.09
6.47
5.80
5.14
4.51
3.90
3.25
2.53
1.66
0.64
-0.53
-1.77
-2.94
-3.90
-4.53
-4.83
-4.94
-5.05
-5.34
-5.86
-6.58
-7.42
-8.39
-9.56
-11.03
-12.76
-14.49
-15.82
-16.30
-15.68
-14.04
-11.67
-8.96
-6.21
-3.52
-0.87
1.74
4.22
6.37
7.97
8.89
9.15
8.95
8.54
8.17
7.96
7.94
8.00
8.05
8.04
7.96
7.86
7.77
7.68
7.51
7.21
6.76
6.21
5.68
5.26
4.98
4.77
4.49
4.03
3.31
2.37
1.25
-0.01
-1.39
-2.85
-4.39
-5.94
-7.38
-8.60
-9.51
-10.11
-10.48
-10.78
-11.23
-12.05
-13.34
-15.07
-17.09
-19.09
-20.70
-21.64
-21.74
-21.00
-19.54
-17.52
-15.09
-12.45
-9.77
-7.27
-5.15
-3.56
-2.58
-2.19
-2.32
-2.90
-3.83
-5.00
-6.24
-7.44
-8.51
-9.48
-10.50
-11.76
-13.33
-15.18
-17.11
-18.92
-20.47
-21.74
-22.82
-23.90
-25.16
-26.71
-28.55
-30.55
-32.37
-33.61
-33.80
-32.56
-29.68
-25.16
-19.18
-12.06
-4.20
3.87
11.63
18.55
24.20
28.39
31.13
32.67
33.36
33.53
33.45
33.23
32.96
32.70
32.54
32.52
32.63
32.71
32.57
32.00
30.88
29.25
27.29
25.28
23.46
21.95
20.73
19.66
18.60
17.44
16.20
14.99
13.92
13.01
12.21
11.39
10.49
9.57
8.77
8.21
7.88
7.61
7.14
6.31
5.11
3.71
2.32
1.07
-0.04
-1.08
-2.12
-3.17
-4.19
-5.20
-6.29
-7.57
-9.12
-10.86
-12.52
-13.77
-14.32
-13.99
-12.79
-10.85
-8.39
-5.62
-2.81
-0.20
2.04
3.83
5.17
6.19
6.95
7.44
7.65
7.54
7.24
6.96
6.92
7.24
7.87
8.59
9.17
9.49
9.54
9.42
9.25
9.09
8.99
8.98
9.07
9.20
9.23
8.99
8.35
7.33
6.16
5.10
4.31
3.76
3.21
2.44
1.29
-0.18
-1.81
-3.44
-4.96
-6.42
-7.89
-9.47
-11.20
-13.04
-14.87
-16.44
-17.52
-17.96
-17.68
-16.77
-15.32
-13.40
-11.01
-8.12
-4.85
-1.48
1.58
3.91
5.27
5.70
5.48
4.96
4.39
3.90
3.46
3.05
2.69
2.47
2.49
2.82
3.45
4.35
5.37
6.31
7.01
7.28
7.08
6.47
5.67
4.90
4.35
4.02
3.81
3.56
3.15
2.62
2.01
1.38
0.69
-0.15
-1.22
-2.45
-3.67
-4.70
-5.46
-6.05
-6.70
-7.65
-8.98
-10.62
-12.36
-14.03
-15.52
-16.79
-17.80
-18.43
-18.49
-17.82
-16.31
-14.01
-11.10
-7.89
-4.74
-2.00
0.07
1.44
2.27
2.89
3.65
4.73
6.03
7.29
8.20
8.64
8.70
8.65
8.73
9.00
9.34
9.57
9.58
9.46
9.41
9.56
9.89
10.20
10.25
9.89
9.18
8.31
7.48
6.75
6.02
5.15
4.05
2.76
1.46
0.27
-0.77
-1.74
-2.77
-3.88
-5.04
-6.15
-7.16
-8.07
-9.02
-10.11
-11.40
-12.89
-14.42
-15.82
-16.92
-17.63
-17.95
-17.92
-17.56
-16.80
-15.51
-13.51
-10.74
-7.30
-3.51
0.23
3.51
6.04
7.71
8.56
8.78
8.57
8.17
7.77
7.49
7.36
7.31
7.28
7.24
7.20
7.19
7.22
7.27
7.29
7.26
7.17
7.05
6.90
6.71
6.41
5.97
5.33
4.48
3.39
2.15
0.83
-0.43
-1.49
-2.33
-3.00
-3.65
-4.43
-5.38
-6.48
-7.64
-8.83
-10.09
-11.54
-13.27
-15.24
-17.31
-19.23
-20.70
-21.45
-21.30
-20.16
-18.04
-15.07
-11.46
-7.49
-3.49
0.15
3.12
5.18
6.31
6.69
6.64
6.53
6.57
6.80
7.04
7.09
6.86
6.37
5.85
5.50
5.46
5.72
6.17
6.68
7.15
7.49
7.63
7.52
7.08
6.33
5.35
4.21
3.05
1.88
0.72
-0.44
-1.58
-2.64
-3.59
-4.47
-5.41
-6.52
-7.87
-9.37
-10.88
-12.26
-13.47
-14.51
-15.40
-16.05
-16.21
-15.58
-13.93
-11.23
-7.71
-3.80
-0.01
3.26
5.81
7.68
9.08
10.22
11.24
12.12
12.70
12.84
12.51
11.86
11.18
10.77
10.77
11.11
11.59
12.00
12.22
12.31
12.32
12.28
12.09
11.58
10.65
9.31
7.70
6.04
4.50
3.12
1.88
0.69
-0.54
-1.82
-3.15
-4.50
-5.81
-7.03
-8.12
-9.11
-10.12
-11.34
-12.95
-15.04
-17.43
-19.71
-21.32
-21.81
-20.94
-18.76
-15.57
-11.79
-7.76
-3.69
0.31
4.16
7.71
10.73
12.98
14.31
14.75
14.48
13.79
12.96
12.21
11.71
11.56
11.78
12.33
13.04
13.68
14.01
13.92
13.45
12.77
12.07
11.44
10.86
10.18
9.34
8.30
7.11
5.82
4.43
2.91
1.24
-0.54
-2.27
-3.82
-5.06
-5.95
-6.58
-7.08
-7.63
-8.36
-9.39
-10.78
-12.55
-14.66
-16.99
-19.38
-21.60
-23.41
-24.53
-24.70
-23.71
-21.50
-18.19
-14.09
-9.61
-5.22
-1.22
2.20
5.03
7.31
9.08
10.32
11.06
11.34
11.31
11.15
11.04
11.05
11.19
11.39
11.61
11.82
12.00
12.13
12.17
12.09
11.92
11.70
11.47
11.21
10.79
10.09
9.10
7.88
6.55
5.19
3.75
2.14
0.35
-1.53
-3.20
-4.39
-4.99
-5.13
-5.11
-5.30
-5.92
-7.02
-8.51
-10.31
-12.36
-14.64
-17.03
-19.32
-21.19
-22.36
-22.60
-21.84
-20.08
-17.36
-13.79
-9.54
-4.95
-0.45
3.52
6.62
8.75
9.99
10.58
10.76
10.73
10.60
10.50
10.49
10.58
10.74
10.81
10.66
10.25
9.68
9.18
8.99
9.21
9.69
10.12
10.19
9.70
8.69
7.34
5.88
4.51
3.29
2.23
1.27
0.35
-0.57
-1.57
-2.67
-3.87
-5.09
-6.20
-7.11
-7.76
-8.24
-8.69
-9.27
-10.13
-11.39
-13.11
-15.25
-17.62
-19.90
-21.64
-22.39
-21.79
-19.73
-16.36
-12.11
-7.51
-3.07
0.79
3.86
6.08
7.51
8.28
8.58
8.64
8.70
8.94
9.38
9.90
10.22
10.10
9.48
8.55
7.69
7.27
7.46
8.16
9.04
9.71
9.85
9.39
8.46
7.32
6.19
5.20
4.29
3.37
2.32
1.10
-0.22
-1.54
-2.75
-3.87
-4.96
-6.08
-7.26
-8.46
-9.70
-11.07
-12.67
-14.57
-16.68
-18.65
-20.06
-20.47
-19.66
-17.67
-14.76
-11.36
-7.83
-4.45
-1.37
1.33
3.59
5.39
6.73
7.66
8.27
8.69
9.02
9.33
9.62
9.82
9.86
9.65
9.20
8.57
7.93
7.42
7.26
7.51
8.09
8.80
9.27
9.23
8.55
7.30
5.74
4.13
2.62
1.25
-0.03
-1.29
-2.55
-3.82
-5.12
-6.51
-8.10
-9.89
-11.82
-13.68
-15.24
-16.31
-16.79
-16.63
-15.77
-14.12
-11.65
-8.47
-4.86
-1.28
1.89
4.41
6.34
7.90
9.28
10.55
11.60
12.21
12.28
11.85
11.15
10.46
10.01
9.91
10.18
10.72
11.42
12.13
12.70
13.01
13.01
12.70
12.12
11.35
10.44
9.37
8.07
6.54
4.78
2.85
0.85
-1.08
-2.83
-4.30
-5.46
-6.35
-7.11
-7.90
-8.95
-10.43
-12.40
-14.75
-17.23
-19.47
-21.12
-21.89
-21.64
-20.31
-18.01
-14.87
-11.18
-7.30
-3.70
-0.77
1.30
2.61
3.54
4.55
5.93
7.68
9.46
10.83
11.50
11.46
11.01
10.54
10.33
10.45
10.73
10.98
11.06
11.03
11.06
11.25
11.59
11.87
11.81
11.20
10.02
8.45
6.77
5.20
3.84
2.62
1.44
0.18
-1.16
-2.49
-3.68
-4.66
-5.46
-6.20
-7.05
-8.13
-9.51
-11.16
-13.01
-14.97
-16.97
-18.95
-20.77
-22.18
-22.86
-22.44
-20.72
-17.71
-13.77
-9.45
-5.35
-1.90
0.75
2.74
4.31
5.69
6.96
8.05
8.89
9.45
9.83
10.16
10.50
10.83
10.99
10.84
10.35
9.71
9.20
9.09
9.46
10.13
10.78
11.05
10.76
9.98
8.97
8.02
7.31
6.79
6.25
5.49
4.38
2.98
1.41
-0.17
-1.68
-3.11
-4.45
-5.68
-6.72
-7.55
-8.19
-8.78
-9.47
-10.41
-11.71
-13.44
-15.55
-17.87
-20.07
-21.71
-22.32
-21.57
-19.45
-16.24
-12.46
-8.65
-5.16
-2.18
0.32
2.40
4.07
5.31
6.13
6.59
6.87
7.15
7.58
8.20
8.93
9.62
10.16
10.51
10.69
10.78
10.82
10.83
10.76
10.53
10.05
9.32
8.41
7.44
6.51
5.68
4.96
4.36
3.89
3.55
3.29
2.93
2.23
1.00
-0.79
-2.99
-5.25
-7.24
-8.76
-9.77
-10.43
-10.96
-11.62
-12.63
-14.13
-16.11
-18.42
-20.72
-22.50
-23.29
-22.76
-20.89
-17.96
-14.49
-11.03
-8.06
-5.79
-4.19
-3.02
-2.00
-0.88
0.42
1.84
3.24
4.48
5.48
6.20
6.62
6.78
6.73
6.53
6.32
6.23
6.36
6.74
7.29
7.83
8.17
8.20
7.90
7.38
6.76
6.14
5.52
4.83
3.99
3.06
2.18
1.53
1.19
1.07
0.96
0.60
-0.12
-1.17
-2.44
-3.83
-5.34
-7.02
-8.84
-10.64
-12.11
-12.95
-12.98
-12.22
-10.84
-9.08
-7.13
-5.13
-3.17
-1.37
0.18
1.41
2.25
2.70
2.78
2.55
2.14
1.70
1.42
1.43
1.83
2.60
3.71
5.03
6.47
7.88
9.14
10.14
10.86
11.30
11.44
11.20
10.48
9.18
7.33
5.12
2.93
1.09
-0.19
-0.94
-1.44
-2.01
-2.90
-4.16
-5.66
-7.19
-8.60
-9.85
-11.05
-12.20
-13.20
-13.70
-13.31
-11.76
-9.11
-5.79
-2.40
0.53
2.81
4.64
6.41
8.43
10.73
13.00
14.85
16.05
16.61
16.74
16.70
16.56
16.25
15.62
14.64
13.45
12.34
11.56
11.23
11.22
11.27
11.08
10.49
9.50
8.20
6.78
5.37
4.06
2.86
1.69
0.45
-0.87
-2.26
-3.60
-4.79
-5.81
-6.74
-7.68
-8.73
-9.90
-11.15
-12.43
-13.75
-15.18
-16.81
-18.62
-20.35
-21.62
-21.99
-21.23
-19.38
-16.72
-13.64
-10.47
-7.41
-4.51
-1.83
0.57
2.61
4.25
5.54
6.60
7.57
8.52
9.49
10.40
11.22
11.87
12.32
12.46
12.19
11.48
10.41
9.28
8.46
8.27
8.75
9.61
10.33
10.41
9.62
8.09
6.28
4.75
3.84
3.60
3.76
3.96
3.87
3.37
2.54
1.44
0.16
-1.31
-3.01
-4.90
-6.85
-8.70
-10.28
-11.59
-12.74
-13.92
-15.30
-16.95
-18.77
-20.59
-22.22
-23.52
-24.44
-25.00
-25.23
-25.17
-24.73
-23.74
-21.94
-19.11
-15.18
-10.31
-4.85
0.73
5.97
10.49
14.08
16.57
17.85
17.85
16.65
14.62
12.35
10.49
9.46
9.24
9.39
9.36
8.77
7.72
6.74
6.42
7.17
8.83
10.82
12.37
12.93
12.42
11.16
9.67
8.35
7.31
6.39
5.31
3.79
1.66
-1.06
-4.18
-7.26
-9.58
-10.39
-9.10
-5.69
-0.80
4.27
8.12
9.68
8.69
5.61
1.44
-2.81
-6.44
-9.14
-10.94
-12.00
-12.55
-12.77
-12.87
-12.97
-13.11
-13.18
-12.90
-11.99
-10.24
-7.72
-4.71
-1.68
0.93
2.85
4.01
4.56
4.69
4.64
4.58
4.62
4.82
5.21
5.75
6.33
6.77
6.88
6.48
5.53
4.19
2.68
1.31
0.26
-0.44
-0.95
-1.54
-2.42
-3.73
-5.41
-7.37
-9.47
-11.64
-13.85
-16.06
-18.12
-19.83
-20.97
-21.31
-20.73
-19.18
-16.71
-13.43
-9.53
-5.30
-1.09
2.66
5.62
7.59
8.60
8.88
8.75
8.46
8.14
7.79
7.34
6.79
6.17
5.64
5.31
5.26
5.45
5.76
6.09
6.42
6.71
6.94
6.99
6.68
5.84
4.40
2.42
0.16
-2.11
-4.16
-5.94
-7.56
-9.21
-11.04
-13.01
-14.95
-16.57
-17.61
-17.86
-17.20
-15.60
-13.10
-9.81
-6.01
-2.08
1.53
4.47
6.58
8.00
9.08
10.21
11.64
13.39
15.23
16.84
17.88
18.17
17.72
16.78
15.74
15.04
14.94
15.43
16.18
16.59
15.98
13.90
10.21
5.24
-0.33
-5.68
-10.04
-12.93
-14.24
-14.21
-13.33
-12.14
-11.13
-10.63
