1520264439.00
64.000000
-0.00
-0.00
-0.00
-0.00
-0.00
-0.00
-0.00
-0.00
-0.00
-0.00
0.00
0.01
0.01
-0.00
-0.03
-0.05
-0.05
0.00
0.13
0.36
0.66
1.01
1.37
1.72
2.06
2.40
2.79
3.24
3.80
4.42
5.06
5.66
6.20
6.68
7.15
7.68
8.31
9.14
10.09
11.04
11.88
12.56
13.14
13.76
14.65
15.96
17.91
20.32
22.90
25.38
27.58
29.57
31.68
34.32
37.81
42.54
48.15
54.10
59.83
64.97
69.58
74.14
79.34
85.71
93.76
103.00
112.62
121.73
129.77
136.75
143.30
150.75
157.77
166.64
177.95
191.79
206.97
220.57
228.25
225.36
208.53
176.87
132.76
80.05
23.07
-34.94
-92.44
-149.16
-205.23
-260.37
-313.74
-363.87
-409.83
-450.91
-486.50
-515.74
-537.23
-549.22
-549.96
-538.37
-514.21
-478.67
-433.88
-382.45
-327.02
-269.84
-212.63
-156.66
-102.95
-52.37
-5.90
35.58
71.43
101.35
125.50
144.38
158.69
169.15
176.37
180.75
182.57
182.07
179.51
175.23
169.65
163.18
156.15
148.81
141.30
133.69
126.02
118.33
110.69
103.16
95.80
88.68
81.83
75.25
68.95
62.95
57.25
51.86
46.78
42.03
37.59
33.45
29.61
26.07
22.81
19.83
17.11
14.67
12.48
10.54
8.83
7.35
6.07
4.97
4.05
3.27
2.62
2.09
1.65
1.30
1.01
0.79
0.61
0.48
0.37
0.29
0.24
0.20
0.18
0.18
0.18
0.20
0.22
0.25
0.28
0.32
0.36
0.40
0.45
0.49
0.55
0.59
0.65
0.70
0.76
0.83
0.90
0.97
1.06
1.15
1.25
1.37
1.50
1.65
1.81
2.00
2.20
2.43
2.68
2.96
3.27
3.60
3.97
4.38
4.81
5.29
5.80
6.35
6.95
7.58
8.26
8.99
9.75
10.57
11.43
12.34
13.29
14.30
15.37
16.50
17.70
18.95
20.25
21.54
22.78
23.88
24.74
25.24
25.24
24.64
23.33
21.29
18.50
15.05
11.01
6.59
1.99
-2.58
-6.92
-10.85
-14.24
-16.99
-19.03
-20.34
-20.91
-20.83
-20.20
-19.16
-17.87
-16.44
-14.99
-13.55
-12.09
-10.57
-8.99
-7.38
-5.77
-4.23
-2.83
-1.57
-0.41
0.80
2.24
3.90
5.74
7.60
9.29
10.62
11.52
12.08
12.64
13.61
15.03
16.83
18.76
20.40
21.35
21.45
20.89
20.20
20.13
20.77
22.03
23.45
24.30
23.90
21.90
18.53
14.47
10.73
7.46
4.59
1.56
-2.61
-9.27
-20.02
-36.58
-60.79
-89.09
-118.60
-145.35
-164.94
-173.88
-170.92
-157.57
-137.50
-115.04
-93.52
-75.08
-59.91
-47.19
-36.18
-26.65
-18.72
-12.46
-7.45
-2.83
1.73
6.35
10.66
13.93
15.44
14.84
12.37
8.76
5.02
1.74
-0.68
-2.15
-2.79
-2.72
-1.89
-0.08
2.98
7.40
12.81
18.57
23.85
27.97
30.50
31.49
31.34
30.64
29.88
29.28
28.79
28.23
27.47
26.46
25.27
24.00
22.67
21.27
19.76
18.16
16.58
15.15
13.91
12.82
11.67
10.23
8.30
5.75
2.63
-0.91
-4.68
-8.53
-12.35
-16.12
-19.80
-23.20
-25.94
-27.50
-27.44
-25.49
-21.76
-16.74
-11.06
-5.35
0.01
4.87
9.27
13.29
16.86
19.77
21.74
22.51
22.01
20.43
18.12
15.58
13.27
11.51
10.45
10.06
10.16
10.55
11.00
11.33
11.39
11.05
10.23
8.91
7.17
5.26
3.44
1.93
0.66
-0.73
-2.80
-6.07
-10.73
-16.45
-22.42
-27.59
-30.93
-31.81
-30.09
-26.19
-20.84
-14.86
-8.93
-3.49
1.25
5.27
8.63
11.43
13.81
15.91
17.87
19.78
21.62
23.28
24.58
25.38
25.64
25.38
24.69
23.71
22.54
21.27
19.93
18.50
16.91
15.07
12.91
10.44
7.75
5.02
2.42
0.04
-2.21
-4.52
-7.17
-10.41
-14.24
-18.41
-22.35
-25.33
-26.64
-25.84
-22.87
-18.11
-12.23
-6.03
-0.15
5.02
9.40
13.05
16.09
18.57
20.47
21.73
22.36
22.49
22.34
22.11
21.96
21.91
21.91
21.86
21.67
21.34
20.91
20.44
19.95
19.41
18.75
17.82
16.57
14.98
13.13
11.18
9.28
7.47
5.67
3.66
1.19
-1.93
-5.73
-10.02
-14.46
-18.57
-21.80
-23.66
-23.78
-22.10
-18.82
-14.47
-9.74
-5.25
-1.41
1.66
4.11
6.19
8.12
10.00
11.79
13.41
14.77
15.88
16.78
17.54
18.21
18.80
19.24
19.45
19.34
18.91
18.18
17.25
16.22
15.14
14.04
12.90
11.60
10.01
8.06
5.76
3.29
0.93
-1.06
-2.55
-3.65
-4.63
-5.86
-7.62
-10.01
-12.87
-15.77
-18.15
-19.39
-19.06
-16.98
-13.33
-8.66
-3.67
0.92
4.58
7.08
8.54
9.26
9.68
10.13
10.82
11.72
12.66
13.45
13.91
14.02
13.82
13.40
12.82
12.12
11.35
10.58
9.97
9.63
9.57
9.61
9.50
8.94
7.78
6.08
4.05
2.00
0.15
-1.42
-2.82
-4.27
-6.00
-8.15
-10.68
-13.41
-16.03
-18.11
-19.23
-19.05
-17.41
-14.45
-10.59
-6.47
-2.70
0.24
2.26
3.53
4.43
5.31
6.31
7.38
8.36
9.13
9.67
10.06
10.42
10.79
11.19
11.56
11.92
12.34
12.89
13.61
14.38
14.95
15.02
14.39
13.03
11.12
8.98
6.92
5.13
3.58
2.10
0.44
-1.60
-4.08
-6.87
-9.67
-12.07
-13.66
-14.08
-13.20
-11.11
-8.14
-4.76
-1.37
1.76
4.53
7.04
9.36
11.55
13.56
15.31
16.72
17.79
18.66
19.50
20.48
21.71
23.12
24.58
25.94
27.12
28.17
29.31
30.75
32.51
34.33
35.54
35.23
32.41
26.37
16.83
4.04
-11.24
-27.96
-44.84
-60.55
-73.82
-83.59
-89.21
-90.53
-87.97
-82.35
-74.70
-66.12
-57.61
-49.99
-43.83
-39.43
-36.69
-35.20
-34.31
-33.36
-31.87
-29.63
-26.70
-23.34
-19.84
-16.51
-13.58
-11.17
-9.27
-7.79
-6.60
-5.57
-4.62
-3.68
-2.65
-1.45
-0.07
1.33
2.44
2.93
2.59
1.50
0.03
-1.35
-2.30
-2.73
-2.89
-3.20
-4.04
-5.65
-7.95
-10.63
-13.18
-15.02
-15.72
-14.98
-12.82
-9.49
-5.49
-1.34
2.44
5.51
7.79
9.38
10.53
11.49
12.38
13.18
13.78
14.06
14.08
14.01
14.06
14.36
14.81
15.20
15.26
14.83
13.98
12.90
11.84
10.95
10.21
9.44
8.47
7.16
5.57
3.87
2.31
1.03
0.00
-0.96
-2.17
-3.91
-6.33
-9.36
-12.63
-15.58
-17.53
-17.92
-16.44
-13.19
-8.57
-3.23
2.23
7.44
12.33
17.03
21.71
26.44
31.17
35.83
40.34
44.73
48.94
52.82
56.07
58.35
59.39
59.12
57.75
55.69
53.38
51.19
49.27
47.50
45.58
43.15
40.03
36.24
32.06
27.84
23.82
19.94
15.88
11.09
5.03
-2.86
-13.05
-25.89
-41.38
-58.91
-77.00
-93.49
-105.93
-112.31
-111.63
-104.19
-91.39
-75.23
-57.90
-41.37
-27.19
-16.19
-8.23
-2.12
4.13
12.61
24.63
40.14
57.64
74.79
89.19
99.10
103.67
102.77
96.84
86.66
73.50
59.05
45.25
33.86
25.92
21.55
20.01
20.14
20.82
21.33
21.42
21.08
20.35
19.06
16.88
13.35
8.17
1.30
-6.97
-16.04
-25.19
-33.68
-40.84
-46.14
-49.28
-50.22
-49.26
-47.01
-44.24
-41.70
-39.90
-38.99
-38.85
-39.23
-39.90
-40.84
-42.10
-43.78
-45.88
-48.23
-50.56
-52.64
-54.26
-55.37
-55.91
-55.86
-55.06
-53.30
-50.27
-45.66
-39.21
-30.78
-20.48
-8.78
3.47
15.10
24.90
31.88
35.54
35.85
33.05
27.40
18.95
7.58
-6.77
-23.91
-43.30
-64.04
-84.93
-104.54
-121.10
-132.68
-137.43
-134.22
-123.17
-105.96
-85.46
-65.04
-47.49
-34.43
-26.07
-21.47
-19.11
-17.41
-15.06
-11.20
-5.44
2.12
10.96
20.27
29.16
36.78
42.52
46.06
47.39
46.81
44.83
42.05
38.97
35.87
32.75
29.40
25.57
21.15
16.18
10.82
5.29
-0.20
-5.46
-10.23
-14.14
-16.67
-17.22
-15.24
-10.49
-3.26
5.57
14.71
22.94
29.50
34.38
38.19
41.75
45.65
50.00
54.50
58.70
62.28
65.03
66.79
67.31
66.31
63.75
60.03
55.98
52.51
50.21
48.98
48.05
46.38
43.15
38.19
31.99
25.48
19.45
14.30
9.82
5.48
0.75
-4.58
-10.30
-15.86
-20.61
-23.99
-25.70
-25.73
-24.31
-21.90
-19.01
-16.14
-13.67
-11.79
-10.43
-9.33
-8.18
-6.67
-4.76
-2.60
-0.55
1.06
2.00
2.27
2.14
1.92
1.88
2.12
2.54
2.98
3.25
3.23
2.86
2.09
0.86
-0.88
-3.10
-5.68
-8.40
-11.04
-13.48
-15.80
-18.26
-21.21
-24.86
-29.12
-33.49
-37.18
-39.26
-39.03
-36.27
-31.29
-24.90
-18.05
-11.58
-6.02
-1.53
2.00
4.77
7.00
8.85
10.41
11.76
12.97
14.08
15.11
15.99
16.64
16.97
16.95
16.62
16.05
15.40
14.79
14.27
13.76
12.99
11.67
9.57
6.72
3.41
0.11
-2.75
-5.06
-7.00
-9.05
-11.71
-15.20
-19.38
-23.62
-27.06
-28.81
-28.26
-25.23
-20.04
-13.47
-6.53
-0.18
4.93
8.57
10.92
12.41
13.48
14.44
15.40
16.30
17.05
17.61
18.00
18.26
18.39
18.28
17.88
17.20
16.38
15.64
15.11
14.79
14.51
13.99
12.96
11.35
9.22
6.76
4.18
1.58
-1.08
-3.95
-7.18
-10.85
-14.87
-18.93
-22.55
-25.15
-26.24
-25.46
-22.76
-18.43
-13.01
-7.21
-1.67
3.10
6.87
9.65
11.59
12.90
13.79
14.42
14.93
15.38
15.81
16.16
16.36
16.33
16.06
15.59
15.02
14.51
14.11
13.78
13.40
12.77
11.75
10.33
8.60
6.70
4.79
2.89
0.99
-1.01
-3.16
-5.50
-8.03
-10.82
-13.89
-17.21
-20.58
-23.48
-25.28
-25.37
-23.50
-19.86
-15.06
-9.93
-5.19
-1.27
1.79
4.21
6.26
8.14
9.88
11.42
12.74
13.79
14.59
15.11
15.31
15.14
14.70
14.12
13.62
13.37
13.44
13.76
14.12
14.22
13.84
12.85
11.24
9.14
6.70
4.12
1.57
-0.84
-3.10
-5.25
-7.41
-9.74
-12.31
-15.14
-18.00
-20.47
-21.96
-21.92
-20.05
-16.50
-11.80
-6.71
-1.96
2.01
5.11
7.45
9.25
10.66
11.75
12.51
13.00
13.32
13.55
13.75
13.91
13.99
13.95
13.83
13.64
13.33
12.82
11.97
10.75
9.21
7.49
5.73
4.01
2.32
0.64
-1.02
-2.59
-4.01
-5.34
-6.72
-8.38
-10.55
-13.32
-16.54
-19.81
-22.49
-23.90
-23.53
-21.23
-17.32
-12.48
-7.53
-3.09
0.55
3.40
5.62
7.39
8.72
9.63
10.18
10.56
10.96
11.50
12.13
12.69
13.03
13.11
13.04
12.95
12.90
12.81
12.49
11.75
10.52
8.86
6.91
4.82
2.73
0.75
-0.98
-2.33
-3.29
-4.04
-4.92
-6.33
-8.50
-11.44
-14.75
-17.81
-19.92
-20.51
-19.28
-16.32
-12.05
-7.13
-2.34
1.68
4.57
6.34
7.33
7.97
8.61
9.37
10.18
10.83
11.21
11.27
11.06
10.70
10.24
9.72
9.14
8.55
8.03
7.70
7.62
7.73
7.83
7.67
7.05
5.93
4.43
2.80
1.28
0.00
-1.04
-1.98
-3.01
-4.34
-6.12
-8.43
-11.12
-13.83
-15.93
-16.79
-15.93
-13.34
-9.45
-5.03
-0.91
2.34
4.52
5.78
6.46
6.88
7.21
7.51
7.76
7.94
8.08
8.24
8.41
8.54
8.47
8.10
7.41
6.54
5.73
5.21
5.04
5.04
4.95
4.48
3.48
1.92
-0.04
-2.28
-4.60
-6.83
-8.80
-10.39
-11.61
-12.65
-13.82
-15.44
-17.61
-20.10
-22.43
-23.98
-24.28
-23.13
-20.68
-17.35
-13.61
-9.95
-6.69
-4.02
-1.98
-0.48
0.55
1.24
1.60
1.59
1.09
0.01
-1.67
-3.81
-6.19
-8.53
-10.60
-12.38
-13.96
-15.53
-17.08
-18.35
-18.74
-17.54
-14.28
-8.95
-2.14
5.25
12.34
18.67
24.28
29.50
34.68
39.92
45.07
49.95
54.55
59.16
64.28
70.36
77.60
85.85
94.68
103.45
111.48
118.09
122.69
124.77
123.97
120.11
113.22
103.64
91.96
79.00
65.60
52.50
40.15
28.63
17.70
7.01
-3.82
-14.96
-26.39
-38.01
-49.66
-61.22
-72.59
-83.60
-93.93
-103.19
-110.86
-116.46
-119.62
-120.19
-118.25
-114.13
-108.32
-101.39
-93.88
-86.20
-78.66
-71.52
-65.02
-59.38
-54.66
-50.71
-47.13
-43.38
-38.99
-33.79
-27.86
-21.49
-15.09
-9.10
-4.17
-1.08
-0.72
-3.79
-10.42
-19.99
-31.18
-42.36
-52.01
-59.10
-63.10
-63.83
-61.34
-55.82
-47.68
-37.66
-26.70
-15.72
-5.42
3.84
11.90
18.59
23.61
26.59
27.30
25.85
22.73
18.64
14.25
10.08
6.54
3.92
2.46
2.15
2.50
2.61
1.45
-1.60
-6.30
-11.56
-15.83
-17.72
-16.59
-12.66
-6.80
-0.11
6.34
11.68
15.21
16.47
15.44
12.65
9.18
6.31
5.06
5.77
8.01
10.90
13.51
15.33
16.31
16.72
16.85
16.71
16.07
14.67
12.44
9.64
6.85
4.68
3.53
3.42
4.00
4.74
5.22
5.24
4.81
4.10
3.22
2.19
0.89
-0.81
-3.04
-5.74
-8.67
-11.50
-13.82
-15.31
-15.81
-15.36
-14.11
-12.27
-10.01
-7.48
-4.76
-1.97
0.72
3.19
5.34
7.11
8.49
9.42
9.89
9.93
9.68
9.34
9.17
9.28
9.71
10.32
10.93
11.34
11.43
11.15
10.54
9.73
8.87
8.13
7.51
6.94
6.20
5.08
3.46
1.42
-0.81
-3.03
-5.12
-7.14
-9.20
-11.43
-13.88
-16.45
-19.04
-21.48
-23.60
-25.18
-25.89
-25.44
-23.55
-20.23
-15.79
-10.79
-5.90
-1.68
1.62
4.00
5.67
6.87
7.68
8.17
8.32
8.23
8.04
8.03
8.39
9.12
10.08
10.98
11.56
11.72
11.49
11.01
10.44
9.86
9.29
8.69
7.98
7.14
6.09
4.77
3.13
1.15
-1.09
-3.41
-5.58
-7.46
-9.08
-10.69
-12.61
-15.13
-18.19
-21.43
-24.16
-25.64
-25.36
-23.18
-19.43
-14.74
-9.88
-5.46
-1.83
0.97
3.15
5.00
6.78
8.56
10.27
11.72
12.80
13.50
13.97
14.41
14.93
15.55
16.12
16.46
16.43
15.93
15.00
13.79
12.53
11.40
10.45
9.59
8.58
7.17
5.25
2.91
0.39
-2.03
-4.17
-6.07
-7.87
-9.74
-11.78
-14.01
-16.47
-19.20
-22.15
-25.11
-27.57
-28.90
-28.51
-26.16
-22.05
-16.83
-11.29
-6.10
-1.61
2.14
5.32
8.09
10.54
12.60
14.20
15.30
15.95
16.25
16.42
16.63
16.99
17.49
18.02
18.41
18.54
18.40
18.06
17.65
17.24
16.81
16.24
15.36
14.07
12.37
10.38
8.24
6.06
3.85
1.57
-0.78
-3.16
-5.41
-7.42
-9.19
-10.92
-12.93
-15.51
-18.70
-22.22
-25.49
-27.78
-28.48
-27.27
-24.21
-19.67
-14.24
-8.55
-3.11
1.70
5.68
8.81
11.13
12.79
13.94
14.77
15.45
16.10
16.75
17.38
17.94
18.36
18.64
18.79
18.86
18.87
18.78
18.56
18.16
17.57
16.79
15.87
14.85
13.78
12.70
11.59
10.38
8.98
7.28
5.26
3.00
0.68
-1.53
-3.50
-5.27
-6.94
-8.71
-10.78
-13.26
-16.10
-19.05
-21.64
-23.23
-23.21
-21.24
-17.44
-12.42
-7.05
-2.21
1.59
4.24
6.00
7.23
8.16
8.86
9.27
9.34
9.16
8.92
8.88
9.24
10.03
11.07
12.12
12.86
13.11
12.85
12.28
11.70
11.36
11.28
11.25
10.87
9.83
8.08
5.84
3.57
1.67
0.35
-0.53
-1.35
-2.53
-4.38
-6.97
-10.10
-13.39
-16.34
-18.49
-19.45
-18.99
-17.06
-13.81
-9.60
-4.99
-0.58
3.08
5.71
7.33
8.24
8.81
9.32
9.80
10.10
10.08
9.75
9.30
9.03
9.17
9.75
10.62
11.51
12.22
12.64
12.76
12.59
12.12
11.31
10.11
8.56
6.77
4.91
3.11
1.46
-0.04
-1.42
-2.78
-4.23
-5.95
-8.04
-10.49
-13.14
-15.64
-17.53
-18.32
-17.69
-15.56
-12.15
-7.96
-3.60
0.34
3.44
5.55
6.81
7.51
7.99
8.42
8.77
8.90
8.68
8.15
7.51
7.04
6.93
7.10
7.34
7.38
7.11
6.63
6.19
5.94
5.83
5.59
4.88
3.56
1.75
-0.17
-1.78
-2.82
-3.32
-3.56
-3.88
-4.60
-5.92
-7.87
-10.31
-12.98
-15.42
-17.10
-17.55
-16.48
-14.00
-10.52
-6.70
-3.15
-0.21
2.02
3.68
4.95
5.91
6.59
6.97
7.10
7.10
7.12
7.26
7.51
7.82
8.13
8.37
8.55
8.63
8.58
8.32
7.84
7.14
6.30
5.36
4.33
3.22
1.98
0.67
-0.68
-1.99
-3.22
-4.42
-5.66
-7.09
-8.82
-10.92
-13.35
-15.86
-18.02
-19.29
-19.23
-17.65
-14.73
-10.97
-7.01
-3.43
-0.57
1.54
3.01
4.05
4.81
5.39
5.84
6.18
6.45
6.70
6.99
7.36
7.85
8.46
9.13
9.73
10.10
10.09
9.64
8.79
7.74
6.70
5.78
4.97
4.12
3.07
1.75
0.22
-1.32
-2.68
-3.81
-4.80
-5.87
-7.27
-9.13
-11.44
-14.07
-16.72
-19.03
-20.56
-20.92
-19.88
-17.49
-14.09
-10.26
-6.60
-3.52
-1.19
0.50
1.83
3.05
4.33
5.71
7.15
8.58
9.94
11.15
12.12
12.75
13.00
12.88
12.52
12.05
11.58
11.17
10.79
10.37
9.87
9.29
8.67
8.03
7.29
6.31
4.93
3.12
1.00
-1.16
-3.05
-4.48
-5.45
-6.18
-6.94
-7.99
-9.44
-11.30
-13.46
-15.73
-17.85
-19.50
-20.34
-20.04
-18.52
-15.89
-12.57
-9.07
-5.89
-3.30
-1.39
-0.02
1.06
2.10
3.30
4.70
6.27
7.87
9.34
10.53
11.35
11.81
11.96
11.90
11.73
11.53
11.37
11.25
11.15
11.01
10.73
10.19
9.32
8.16
6.87
5.69
4.78
4.18
3.70
3.05
1.92
0.26
-1.73
-3.65
-5.14
-6.03
-6.45
-6.74
-7.29
-8.37
-10.09
-12.39
-15.07
-17.83
-20.27
-21.90
-22.28
-21.14
-18.53
-14.90
-10.87
-7.09
-3.97
-1.63
0.01
1.16
2.02
2.76
3.52
4.42
5.49
6.67
7.78
8.68
9.27
9.59
9.73
9.73
9.58
9.24
8.74
8.24
7.97
8.08
8.53
9.09
9.37
9.05
8.05
6.47
4.58
2.65
0.90
-0.64
-1.95
-3.11
-4.22
-5.35
-6.54
-7.74
-8.89
-9.94
-10.94
-12.06
-13.51
-15.46
-17.89
-20.52
-22.83
-24.26
-24.36
-23.03
-20.42
-17.02
-13.37
-9.94
-7.02
-4.70
-2.93
-1.59
-0.54
0.33
1.14
1.96
2.86
3.87
4.96
6.03
6.97
7.73
8.28
8.66
8.95
9.27
9.70
10.30
10.97
11.53
11.77
11.47
10.58
9.24
7.71
6.28
5.10
4.18
3.36
2.44
1.25
-0.24
-1.96
-3.79
-5.58
-7.25
-8.75
-10.19
-11.69
-13.42
-15.46
-17.75
-19.99
-21.78
-22.65
-22.24
-20.45
-17.46
-13.72
-9.73
-6.03
-3.01
-0.79
0.70
1.76
2.73
3.89
5.33
6.94
8.48
9.71
10.48
10.84
10.93
10.92
10.88
10.82
10.73
10.64
10.63
10.77
11.02
11.25
11.26
10.86
10.03
8.89
7.59
6.26
4.80
3.04
0.83
-1.79
-4.61
-7.31
-9.72
-11.94
-14.27
-17.05
-20.44
-24.16
-27.62
-30.06
-30.86
-29.77
-26.98
-23.02
-18.53
-14.10
-10.06
-6.49
-3.25
-0.20
2.75
5.53
7.98
9.88
11.13
11.78
12.05
12.19
12.43
12.83
13.30
13.66
13.74
13.50
13.02
12.48
12.04
11.77
11.55
11.21
10.57
9.52
8.06
6.26
4.20
1.98
-0.34
-2.71
-5.10
-7.53
-10.01
-12.63
-15.40
-18.35
-21.36
-24.13
-26.28
-27.31
-26.85
-24.72
-21.10
-16.48
-11.51
-6.86
-2.96
0.01
2.14
3.63
4.71
5.59
6.44
7.37
8.42
9.59
10.77
11.80
12.48
12.69
12.43
11.85
11.19
10.65
10.35
10.29
10.34
10.27
9.87
8.93
7.37
5.26
2.84
0.46
-1.55
-3.07
-4.24
-5.45
-7.18
-9.80
-13.36
-17.56
-21.77
-25.20
-27.11
-26.97
-24.63
-20.39
-14.96
-9.25
-4.12
-0.12
2.68
4.64
6.28
8.00
9.94
11.86
13.46
14.48
14.92
14.94
14.79
14.65
14.53
14.39
14.20
14.02
13.93
13.91
13.84
13.48
12.60
11.09
9.06
6.72
4.34
2.14
0.21
-1.44
-2.88
-4.23
-5.68
-7.40
-9.62
-12.45
-15.81
-19.39
-22.57
-24.59
-24.77
-22.78
-18.75
-13.38
-7.64
-2.50
1.41
3.97
5.47
6.47
7.45
8.69
10.21
11.89
13.56
15.09
16.43
17.55
18.43
19.01
19.20
18.99
18.39
17.57
16.73
16.06
15.58
15.19
14.63
13.67
12.15
10.10
7.69
5.16
2.74
0.57
-1.29
-2.92
-4.48
-6.20
-8.36
-11.13
-14.50
-18.13
-21.45
-23.75
-24.43
-23.18
-20.10
-15.65
-10.50
-5.32
-0.60
3.34
6.44
8.81
10.72
12.50
14.46
16.72
19.16
21.47
23.31
24.49
25.07
25.32
25.50
25.71
25.89
25.84
25.47
24.81
24.02
23.25
22.53
21.75
20.75
19.42
17.78
15.93
13.99
12.05
10.10
8.10
5.94
3.61
1.15
-1.34
-3.70
-5.85
-7.81
-9.75
-11.90
-14.47
-17.50
-20.82
-24.01
-26.53
-27.79
-27.34
-25.03
-21.08
-16.07
-10.80
-6.04
-2.32
0.21
1.75
2.72
3.55
4.54
5.83
7.40
9.17
11.04
12.85
14.43
15.56
16.07
15.95
15.40
14.81
14.58
14.99
15.98
17.17
18.03
18.15
17.40
15.99
14.33
12.77
11.51
10.49
9.60
8.69
7.70
6.62
5.42
4.01
2.32
0.36
-1.71
-3.68
-5.37
-6.75
-7.97
-9.28
-10.92
-12.97
-15.34
-17.81
-20.02
-21.59
-22.16
-21.48
-19.49
-16.41
-12.67
-8.81
-5.33
-2.53
-0.46
0.99
2.02
2.80
3.46
4.08
4.74
5.49
6.30
7.08
7.67
7.95
7.89
7.58
7.20
6.96
7.00
7.37
8.01
8.77
9.45
9.87
9.94
9.62
9.00
8.18
7.28
6.38
5.54
4.80
4.15
3.48
2.67
1.55
0.06
-1.72
-3.60
-5.31
-6.66
-7.63
-8.34
-9.01
-9.87
-11.04
-12.54
-14.30
-16.14
-17.79
-18.91
-19.18
-18.37
-16.45
-13.64
-10.38
-7.17
-4.48
-2.54
-1.31
-0.57
0.02
0.73
1.67
2.76
3.80
4.57
4.99
5.10
5.06
5.01
4.99
5.02
5.05
5.10
5.21
5.48
5.92
6.41
6.80
6.88
6.54
5.75
4.64
3.37
2.17
1.19
0.52
0.14
-0.11
-0.40
-0.89
-1.57
-2.36
-3.15
-3.86
-4.56
-5.36
-6.35
-7.51
-8.70
-9.78
-10.70
-11.57
-12.63
-14.03
-15.74
-17.47
-18.75
-19.12
-18.29
-16.31
-13.48
-10.26
-7.10
-4.31
-2.07
-0.42
0.64
1.19
1.35
1.30
1.26
1.38
1.76
2.38
3.12
3.83
4.34
4.54
4.40
4.01
3.53
3.16
3.05
3.21
3.54
3.80
3.81
3.48
2.87
2.10
1.27
0.45
-0.36
-1.19
-2.01
-2.77
-3.44
-4.00
-4.48
-4.99
-5.59
-6.28
-6.94
-7.45
-7.65
-7.51
-7.10
-6.62
-6.30
-6.36
-6.93
-8.03
-9.59
-11.48
-13.41
-15.00
-15.83
-15.55
-14.05
-11.53
-8.47
-5.49
-3.07
-1.46
-0.57
-0.14
0.10
0.32
0.53
0.70
0.80
0.93
1.25
1.85
2.69
3.62
4.43
4.98
5.29
5.43
5.57
5.74
5.92
6.01
5.92
5.55
4.89
3.98
2.90
1.74
0.64
-0.29
-1.00
-1.53
-2.04
-2.70
-3.60
-4.72
-5.89
-6.96
-7.83
-8.55
-9.30
-10.24
-11.48
-12.95
-14.44
-15.64
-16.26
-16.11
-15.13
-13.37
-11.03
-8.35
-5.65
-3.23
-1.31
0.02
0.81
1.25
1.56
1.87
2.20
2.48
2.60
2.55
2.40
2.35
2.59
3.20
4.09
5.03
5.74
6.07
6.00
5.70
5.38
5.16
5.01
4.71
4.07
2.92
1.35
-0.42
-2.12
-3.52
-4.58
-5.42
-6.25
-7.29
-8.62
-10.22
-11.98
-13.83
-15.64
-17.31
-18.57
-19.09
-18.53
-16.77
-13.98
-10.71
-7.61
-5.20
-3.64
-2.74
-2.08
-1.35
-0.46
0.39
0.96
1.09
0.90
0.64
0.62
0.98
1.70
2.55
3.27
3.65
3.63
3.27
2.70
2.03
1.37
0.75
0.20
-0.33
-0.92
-1.64
-2.54
-3.61
-4.81
-6.14
-7.63
-9.42
-11.60
-14.21
-17.07
-19.81
-21.95
-23.02
-22.76
-21.19
-18.57
-15.34
-11.95
-8.76
-5.95
-3.60
-1.67
-0.10
1.13
2.03
2.56
2.71
2.56
2.30
2.20
2.46
3.21
4.37
5.69
6.82
7.48
7.57
7.16
6.50
5.86
5.35
4.92
4.36
3.47
2.15
0.49
-1.30
-2.99
-4.51
-5.90
-7.39
-9.19
-11.48
-14.35
-17.66
-21.21
-24.56
-27.20
-28.57
-28.26
-26.15
-22.49
-17.89
-13.06
-8.65
-5.03
-2.24
-0.05
1.84
3.66
5.45
7.13
8.52
9.55
10.23
10.65
10.93
11.19
11.48
11.84
12.29
12.84
13.44
14.01
14.46
14.69
14.65
14.27
13.47
12.16
10.33
8.05
5.52
2.98
0.59
-1.64
-3.78
-6.01
-8.45
-11.18
-14.20
-17.49
-20.94
-24.33
-27.25
-29.14
-29.48
-27.94
-24.62
-19.97
-14.69
-9.50
-4.90
-1.08
2.07
4.83
7.50
10.28
13.13
15.88
18.32
20.22
21.57
22.48
23.18
23.86
24.60
25.31
25.81
25.94
25.66
25.07
24.35
23.69
23.11
22.49
21.62
20.27
18.38
16.07
13.54
10.99
8.50
6.04
3.53
0.96
-1.66
-4.25
-6.81
-9.48
-12.50
-16.11
-20.31
-24.78
-28.83
-31.58
-32.21
-30.31
-26.06
-20.16
-13.64
-7.47
-2.28
1.83
5.11
7.93
10.57
13.09
15.45
17.55
19.46
21.25
23.00
24.71
26.24
27.42
28.10
28.31
28.19
28.02
28.05
28.44
29.12
29.81
30.10
29.63
28.27
26.20
23.83
21.55
19.60
17.89
16.22
14.34
12.14
9.65
6.99
4.26
1.49
-1.26
-3.88
-6.20
-8.11
-9.69
-11.26
-13.33
-16.36
-20.50
-25.40
-30.20
-33.80
-35.20
-33.90
-30.10
-24.61
-18.53
-12.86
-8.18
-4.58
-1.77
0.65
3.00
5.42
7.93
10.51
13.15
15.83
18.40
20.67
22.40
23.47
23.95
24.05
24.04
24.17
24.52
25.02
25.48
25.67
25.46
24.82
23.82
22.60
21.28
19.95
18.63
17.37
16.20
15.14
14.16
13.11
11.74
9.83
7.30
4.29
1.18
-1.65
-3.94
-5.67
-7.07
-8.49
-10.27
-12.65
-15.76
-19.54
-23.77
-27.98
-31.48
-33.52
-33.50
-31.19
-26.90
-21.38
-15.61
-10.50
-6.59
-3.98
-2.34
-1.14
0.21
2.04
4.43
7.18
9.97
12.48
14.51
16.00
16.96
17.47
17.59
17.41
17.08
16.78
16.69
16.90
17.38
18.00
18.51
18.69
18.39
17.58
16.30
14.72
13.06
11.52
10.20
9.10
8.07
6.95
5.59
3.93
1.99
-0.17
-2.47
-4.81
-7.06
-9.08
-10.78
-12.14
-13.30
-14.49
-15.96
-17.88
-20.21
-22.70
-24.91
-26.30
-26.40
-24.91
-21.89
-17.75
-13.16
-8.81
-5.23
-2.63
-0.86
0.43
1.56
2.74
3.99
5.26
6.50
7.71
8.90
10.07
11.08
11.84
12.30
12.53
12.69
12.96
13.41
13.99
14.51
14.76
14.58
14.00
13.13
12.17
11.27
10.53
9.88
9.22
8.31
7.06
5.43
3.54
1.59
-0.20
-1.69
-2.86
-3.83
-4.80
-5.97
-7.54
-9.51
-11.78
-14.10
-16.15
-17.73
-18.85
-19.76
-20.90
-22.66
-25.11
-27.89
-30.28
-31.41
-30.64
-27.76
-23.17
-17.68
-12.24
-7.67
-4.36
-2.33
-1.30
-0.81
-0.43
0.18
1.19
2.64
4.43
6.42
8.41
10.26
11.83
13.01
13.71
13.88
13.55
12.89
12.14
11.52
11.10
10.76
10.29
9.46
8.21
6.70
5.16
3.84
2.83
2.05
1.34
0.49
-0.63
-2.04
-3.71
-5.53
-7.38
-9.23
-11.06
-12.90
-14.79
-16.77
-18.77
-20.79
-22.76
-24.68
-26.43
-27.85
-28.67
-28.60
-27.44
-25.21
-22.11
-18.46
-14.61
-10.79
-7.11
-3.56
-0.13
3.13
6.08
8.55
10.37
11.51
12.06
12.18
12.09
11.94
11.86
11.95
12.33
13.08
14.19
15.50
16.71
17.48
17.56
16.92
15.72
14.26
12.77
11.34
9.89
8.30
6.54
4.70
2.95
1.43
0.08
-1.27
-2.84
-4.76
-6.91
-9.02
-10.86
-12.36
-13.71
-15.28
-17.33
-19.83
-22.36
-24.24
-24.80
-23.70
-21.06
-17.41
-13.51
-9.97
-7.10
-4.91
-3.15
-1.60
-0.12
1.27
2.47
3.38
4.00
4.46
4.91
5.55
6.43
7.51
8.61
9.54
10.14
10.42
10.48
10.45
10.45
10.45
10.38
10.14
9.71
9.10
8.38
7.51
6.41
5.02
3.33
1.46
-0.39
-2.05
-3.44
-4.66
-5.87
-7.26
-8.96
-10.99
-13.31
-15.81
-18.28
-20.41
-21.76
-21.92
-20.62
-17.84
-13.94
-9.52
-5.27
-1.75
0.79
2.39
3.31
3.83
4.18
4.46
4.71
4.96
5.31
5.83
6.55
7.40
8.21
8.78
9.02
8.92
8.57
8.06
7.49
6.91
6.37
5.91
5.60
5.46
5.44
5.41
5.22
4.69
3.75
2.32
0.46
-1.76
-4.17
-6.57
-8.78
-10.72
-12.48
-14.26
-16.29
-18.69
-21.30
-23.71
-25.33
-25.60
-24.23
-21.34
-17.43
-13.21
-9.30
-6.08
-3.57
-1.55
0.26
2.04
3.79
5.36
6.64
7.60
8.32
8.93
9.48
9.94
10.23
10.30
10.22
10.15
10.24
10.55
10.96
11.24
11.12
10.36
8.94
6.96
4.65
2.28
0.09
-1.72
-3.09
-4.09
-4.94
-5.99
-7.62
-10.07
-13.34
-17.11
-20.86
-23.94
-25.80
-26.08
-24.71
-21.83
-17.86
-13.32
-8.79
-4.77
-1.55
0.81
2.46
3.66
4.67
5.68
6.77
7.91
9.05
10.11
11.00
11.67
12.07
12.19
12.05
11.71
11.33
11.04
11.00
11.23
11.67
12.10
12.26
11.89
10.86
9.18
7.02
4.65
2.36
0.33
-1.39
-2.88
-4.29
-5.78
-7.47
-9.53
-12.07
-15.15
-18.59
-21.98
-24.68
-25.96
-25.36
-22.80
-18.73
-13.89
-9.12
-5.03
-1.91
0.32
1.91
3.20
4.46
5.84
7.39
9.04
10.67
12.21
13.60
14.80
15.81
16.57
17.07
17.30
17.32
17.21
17.01
16.70
16.23
15.57
14.76
13.91
13.11
12.38
11.59
10.55
9.03
6.97
4.47
1.81
-0.76
-3.06
-5.07
-6.94
-8.93
-11.30
-14.19
-17.55
-21.11
-24.37
-26.74
-27.70
-26.94
-24.52
-20.80
-16.37
-11.78
-7.52
-3.85
-0.88
1.42
3.21
4.73
6.21
7.88
9.81
11.93
14.03
15.84
17.18
17.99
18.35
18.42
18.36
18.24
18.11
17.93
17.59
16.97
15.98
14.60
12.92
11.13
9.43
7.91
6.54
5.17
3.65
1.98
0.28
-1.25
-2.51
-3.63
-4.93
-6.75
-9.34
-12.61
-16.24
-19.68
-22.42
-24.05
-24.36
-23.34
-21.16
-18.09
-14.49
-10.72
-7.09
-3.82
-0.97
1.49
3.69
5.74
7.65
9.33
10.58
11.29
11.48
11.37
11.30
11.52
12.09
12.85
13.56
14.05
14.33
14.50
14.64
14.70
14.50
13.86
12.72
11.26
9.76
8.44
7.36
6.36
5.16
3.57
1.55
-0.74
-3.03
-5.06
-6.73
-8.15
-9.62
-11.43
-13.80
-16.70
-19.90
-23.00
-25.53
-27.06
-27.25
-25.91
-23.04
-18.89
-13.98
-8.98
-4.55
-1.09
1.36
3.12
4.60
6.15
7.89
9.68
11.35
12.69
13.62
14.16
14.39
14.43
14.40
14.38
14.42
14.54
14.70
14.89
15.13
15.43
15.73
15.87
15.63
14.83
13.46
11.76
10.09
8.73
7.80
7.10
6.33
5.16
3.48
1.36
-0.96
-3.24
-5.34
-7.23
-9.01
-10.80
-12.73
-14.90
-17.35
-20.06
-22.92
-25.61
-27.65
-28.52
-27.79
-25.33
-21.44
-16.71
-11.80
-7.30
-3.54
-0.62
1.50
2.93
3.84
4.43
4.98
5.73
6.76
8.00
9.23
10.24
10.97
11.51
12.03
12.67
13.47
14.36
15.23
15.99
16.62
17.03
17.16
16.89
16.15
14.98
13.51
11.96
10.48
9.14
7.92
6.75
5.59
4.43
3.28
2.14
0.95
-0.38
-1.88
-3.54
-5.26
-6.96
-8.58
-10.12
-11.66
-13.32
-15.29
-17.69
-20.53
-23.65
-26.59
-28.68
-29.23
-27.80
-24.44
-19.71
-14.53
-9.78
-6.03
-3.40
-1.55
-0.03
1.57
3.45
5.54
7.64
9.56
11.10
12.19
12.82
13.11
13.20
13.29
13.50
13.88
14.36
14.82
15.17
15.32
15.28
15.04
14.63
14.06
13.36
12.62
11.91
11.27
10.67
10.02
9.22
8.25
7.15
5.97
4.73
3.35
1.73
-0.18
-2.32
-4.42
-6.20
-7.46
-8.27
-8.92
-9.82
-11.34
-13.63
-16.58
-19.87
-23.05
-25.67
-27.30
-27.59
-26.32
-23.44
-19.20
-14.04
-8.65
-3.72
0.26
3.12
5.08
6.61
8.19
10.09
12.33
14.65
16.73
18.31
19.36
20.00
20.43
20.78
21.09
21.30
21.37
21.31
21.15
20.92
20.64
20.30
19.88
19.34
18.66
17.75
16.47
14.66
12.20
9.13
5.67
2.19
-0.96
-3.60
-5.81
-7.87
-10.05
-12.55
-15.41
-18.52
-21.73
-24.88
-27.90
-30.74
-33.36
-35.77
-38.03
-40.23
-42.44
-44.57
-46.40
-47.50
-47.36
-45.63
-42.23
-37.39
-31.66
-25.72
-20.15
-15.36
-11.46
-8.37
-5.84
-3.66
-1.64
0.28
2.09
3.74
5.19
6.47
7.64
8.72
9.68
10.47
11.07
11.51
11.95
12.55
13.37
14.36
15.29
15.83
15.77
15.02
13.73
12.17
10.64
9.39
8.48
7.80
7.14
6.18
4.73
2.74
0.37
-2.08
-4.32
-6.21
-7.80
-9.30
-10.92
-12.76
-14.78
-16.90
-19.03
-21.18
-23.31
-25.25
-26.62
-26.94
-25.74
-22.88
-18.63
-13.60
-8.52
-3.99
-0.33
2.44
4.49
6.01
7.20
8.19
9.07
9.89
10.66
11.35
11.93
12.37
12.71
13.01
13.32
13.67
13.99
14.23
14.36
14.38
14.27
14.02
13.57
12.89
12.04
11.07
10.11
9.16
8.22
7.20
6.00
4.60
2.97
1.15
-0.82
-2.87
-4.92
-6.87
-8.63
-10.21
-11.69
-13.19
-14.84
-16.60
-18.25
-19.42
-19.70
-18.80
-16.66
-13.51
-9.72
-5.79
-2.13
1.00
3.48
5.35
6.77
7.92
8.99
10.11
11.33
12.59
13.74
14.63
15.21
15.48
15.56
15.58
15.65
15.78
15.96
16.17
16.35
16.44
16.30
15.77
14.73
13.19
11.29
9.31
7.50
6.01
4.82
3.74
2.56
1.12
-0.59
-2.45
-4.24
-5.76
-6.96
-7.97
-9.11
-10.72
-13.00
-15.92
-19.11
-22.03
-24.10
-24.89
-24.19
-22.11
-18.93
-15.09
-11.02
-7.11
-3.68
-0.87
1.34
3.09
4.62
6.15
7.79
9.53
11.22
12.68
13.75
14.43
14.84
15.15
15.50
15.89
16.19
16.27
16.08
15.70
15.34
15.16
15.16
15.19
14.97
14.28
13.07
11.46
9.74
8.09
6.62
5.25
3.88
2.40
0.82
-0.78
-2.31
-3.76
-5.20
-6.75
-8.55
-10.70
-13.24
-16.10
-19.03
-21.66
-23.47
-23.99
-22.95
-20.41
-16.76
-12.59
-8.47
-4.81
-1.77
0.65
2.56
4.10
5.39
6.55
7.72
8.91
10.10
11.19
12.05
12.64
12.93
13.01
13.01
13.05
13.19
13.45
13.77
14.09
14.30
14.31
14.04
13.39
12.35
10.99
9.49
8.07
6.90
6.01
5.24
4.33
3.10
1.55
-0.14
-1.67
-2.88
-3.80
-4.64
-5.72
-7.22
-9.19
-11.51
-13.99
-16.40
-18.48
-19.91
-20.34
-19.54
-17.46
-14.32
-10.55
-6.66
-3.13
-0.25
1.89
3.35
4.33
5.05
5.71
6.38
7.02
7.55
7.88
8.05
8.19
8.46
8.93
9.51
10.06
10.46
10.71
10.92
11.17
11.45
11.64
11.59
11.23
10.60
9.81
8.93
7.99
7.02
6.01
4.97
3.92
2.81
1.56
0.09
-1.58
-3.33
-5.02
-6.55
-7.90
-9.14
-10.35
-11.55
-12.71
-13.87
-15.08
-16.39
-17.76
-18.91
-19.38
-18.73
-16.75
-13.65
-10.00
-6.49
-3.68
-1.74
-0.46
0.51
1.53
2.73
4.00
5.11
5.85
6.16
6.15
6.04
6.03
6.23
6.60
7.01
7.31
7.45
7.45
7.46
7.64
8.02
8.53
8.99
9.16
8.91
8.22
7.24
6.18
5.21
4.42
3.78
3.20
2.55
1.74
0.78
-0.30
-1.43
-2.57
-3.70
-4.85
-6.05
-7.35
-8.81
-10.46
-12.32
-14.29
-16.16
-17.65
-18.49
-18.44
-17.40
-15.46
-12.82
-9.84
-6.86
-4.21
-2.07
-0.46
0.77
1.89
3.08
4.40
5.70
6.79
7.50
7.82
7.93
8.11
8.54
9.25
10.09
10.81
11.15
11.03
10.49
9.75
9.02
8.41
7.92
7.39
6.67
5.71
4.55
3.31
2.07
0.83
-0.48
-1.94
-3.50
-4.97
-6.19
-7.00
-7.47
-7.83
-8.39
-9.44
-11.08
-13.23
-15.62
-17.81
-19.31
-19.70
-18.77
-16.59
-13.49
-9.99
-6.62
-3.81
-1.76
-0.44
0.34
0.84
1.29
1.86
2.61
3.56
4.62
5.72
6.75
7.63
8.29
8.75
9.02
9.19
9.33
9.50
9.69
9.85
9.98
10.04
10.04
9.92
9.63
9.07
8.20
7.09
5.86
4.75
3.96
3.59
3.56
3.62
3.47
2.80
1.51
-0.32
-2.45
-4.57
-6.44
-7.98
-9.30
-10.60
-12.10
-13.84
-15.84
-17.98
-20.13
-22.15
-23.80
-24.78
-24.75
-23.49
-20.96
-17.40
-13.30
-9.27
-5.90
-3.57
-2.37
-2.05
-2.20
-2.30
-1.97
-1.04
0.45
2.28
4.20
6.00
7.55
8.82
9.77
10.43
10.80
10.93
10.90
10.76
10.58
10.42
10.33
10.35
10.45
10.54
10.48
10.11
9.38
8.34
7.12
5.86
4.64
3.46
2.19
0.73
-0.91
-2.64
-4.34
-5.91
-7.34
-8.70
-10.02
-11.31
-12.49
-13.47
-14.27
-15.02
-15.99
-17.42
-19.44
-21.94
-24.57
-26.80
-28.07
-27.96
-26.34
-23.35
-19.43
-15.14
-11.03
-7.42
-4.47
-2.16
-0.38
0.99
2.00
2.78
3.46
4.24
5.30
6.70
8.33
9.94
11.22
11.99
12.28
12.32
12.39
12.70
13.22
13.74
14.05
14.03
13.73
13.23
12.65
11.96
11.15
10.18
9.16
8.21
7.37
6.58
5.69
4.53
3.10
1.50
-0.08
-1.51
-2.79
-4.05
-5.38
-6.81
-8.22
-9.46
-10.46
-11.33
-12.33
-13.80
-16.00
-19.02
-22.62
-26.32
-29.48
-31.48
-31.88
-30.56
-27.74
-23.89
-19.61
-15.51
-12.04
-9.40
-7.52
-6.08
-4.72
-3.15
-1.24
0.92
3.14
5.23
7.10
8.77
10.33
11.84
13.30
14.68
15.94
17.07
18.09
18.98
19.71
20.23
20.46
20.36
19.91
19.09
17.87
16.30
14.48
12.58
10.77
9.17
7.78
6.47
5.07
3.41
1.48
-0.60
-2.63
-4.49
-6.16
-7.83
-9.72
-12.02
-14.78
-17.89
-21.18
-24.49
-27.59
-30.25
-32.05
-32.52
-31.28
-28.27
-23.83
-18.67
-13.59
-9.22
-5.83
-3.31
-1.31
0.54
2.42
4.31
6.02
7.36
8.31
9.01
9.68
10.51
11.52
12.57
13.46
14.02
14.31
14.48
14.72
15.11
15.50
15.70
15.47
14.76
13.70
12.51
11.41
10.45
9.54
8.49
7.13
5.40
3.39
1.30
-0.70
-2.53
-4.29
-6.15
-8.32
-10.90
-13.91
-17.23
-20.66
-23.93
-26.61
-28.21
-28.23
-26.40
-22.80
-17.98
-12.76
-7.94
-4.09
-1.31
0.63
2.14
3.56
5.06
6.64
8.22
9.74
11.16
12.44
13.51
14.37
14.97
15.37
15.69
16.06
16.55
17.16
17.78
18.22
18.28
17.82
16.84
15.42
13.70
11.80
9.79
7.70
5.60
3.55
1.64
-0.08
-1.65
-3.23
-5.05
-7.30
-10.09
-13.37
-16.87
-20.14
-22.67
-23.96
-23.68
-21.82
-18.66
-14.67
-10.46
-6.53
-3.20
-0.56
1.46
3.07
4.53
6.05
7.70
9.39
10.94
12.14
12.91
13.29
13.42
13.52
13.74
14.11
14.55
14.92
15.05
14.92
14.52
13.92
13.21
12.38
11.40
10.16
8.61
6.74
4.67
2.57
0.61
-1.13
-2.72
-4.30
-6.08
-8.26
-10.95
-14.12
-17.54
-20.87
-23.64
-25.42
-25.81
-24.64
-21.95
-18.00
-13.27
-8.34
-3.81
-0.08
2.69
4.66
6.18
7.67
9.43
11.53
13.81
16.02
17.94
19.46
20.62
21.55
22.38
23.11
23.73
24.15
24.35
24.40
24.43
24.56
24.82
25.10
25.20
24.89
23.98
22.41
20.23
17.51
14.43
11.16
7.84
4.57
1.35
-1.94
-5.45
-9.31
-13.53
-17.98
-22.42
-26.54
-30.01
-32.49
-33.69
-33.43
-31.67
-28.66
-24.86
-20.90
-17.37
-14.60
-12.66
-11.27
-10.09
-8.81
-7.30
-5.61
-3.88
-2.21
-0.65
0.88
2.45
4.16
5.98
7.78
9.32
10.30
10.45
9.71
8.26
6.53
5.00
3.99
3.58
3.50
3.40
2.99
2.24
1.29
0.37
-0.44
-1.16
-1.94
-2.88
-3.98
-5.18
-6.49
-8.10
-10.29
-13.31
-17.10
-21.23
-24.94
-27.46
-28.21
-27.04
-24.20
-20.21
-15.65
-10.99
-6.54
-2.39
1.41
4.88
8.00
10.79
13.26
15.49
17.54
19.44
21.13
22.43
23.12
23.06
22.31
21.13
19.91
19.02
18.66
18.80
19.18
19.50
19.53
19.16
18.41
17.35
16.04
14.58
13.10
11.82
10.90
10.43
10.26
10.12
9.69
8.81
7.54
6.07
4.59
3.08
1.33
-0.90
-3.72
-6.88
-9.84
-11.98
-12.81
-12.23
-10.52
-8.18
-5.79
-3.77
-2.32
-1.42
-0.85
-0.32
0.46
1.74
3.63
6.05
8.73
11.28
13.27
14.44
14.76
14.41
13.71
12.98
12.45
12.23
12.31
12.64
13.14
13.68
14.06
14.11
13.67
12.71
11.34
9.74
8.11
6.56
5.09
3.62
2.06
0.37
-1.41
-3.23
-5.06
-6.96
-9.01
-11.29
-13.70
-15.94
-17.57
-18.13
-17.33
-15.22
-12.21
-8.93
-6.02
-3.92
-2.82
-2.63
-3.00
-3.48
-3.56
-2.83
-1.14
1.40
4.35
7.17
9.35
10.68
11.25
11.35
11.28
11.18
11.06
10.90
10.75
10.76
11.00
11.44
11.81
11.76
11.04
9.72
8.08
6.54
5.30
4.29
3.24
1.82
-0.03
-2.21
-4.51
-6.86
-9.34
-12.06
-15.02
-17.92
-20.28
-21.61
-21.69
-20.59
-18.71
-16.48
-14.25
-12.16
-10.18
-8.18
-6.02
-3.55
-0.71
2.52
6.07
9.72
13.25
16.42
19.06
21.08
22.49
23.33
23.68
23.68
23.46
23.18
22.86
22.48
21.91
21.03
19.75
18.11
16.23
14.25
12.30
10.42
8.60
6.81
5.04
3.28
1.47
-0.54
-2.98
-6.05
-9.85
-14.15
-18.49
-22.23
-24.82
-26.01
-25.86
-24.75
-23.18
-21.58
-20.23
-19.21
-18.46
-17.84
-17.21
-16.46
-15.48
-14.18
-12.52
-10.53
-8.33
-6.13
-4.22
-2.84
-2.16
-2.14
-2.55
-3.03
-3.25
-3.03
-2.43
-1.69
-1.13
-0.98
-1.30
-1.99
-2.85
-3.65
-4.32
-4.89
-5.52
-6.44
-7.79
-9.65
-11.95
-14.55
-17.23
-19.70
-21.63
-22.66
-22.53
-21.12
-18.55
-15.20
-11.54
-8.03
-5.00
-2.53
-0.59
0.96
2.25
3.33
4.23
4.90
5.35
5.58
5.69
5.80
6.03
6.39
6.73
6.76
6.09
4.50
1.95
-1.29
-4.73
-7.86
-10.26
-11.74
-12.39
-12.49
-12.40
-12.39
-12.60
-12.95
-13.22
-13.23
-12.88
-12.28
-11.66
-11.28
-11.29
-11.74
-12.52
-13.47
-14.30
-14.69
-14.31
-12.94
-10.55
-7.38
-3.86
-0.49
2.32
4.45
5.98
7.12
8.04
8.83
9.44
9.81
9.94
9.87
9.70
9.42
8.97
8.26
7.25
6.09
5.02
4.34
4.26
4.77
5.71
6.74
7.58
8.07
8.21
8.16
8.09
8.17
8.42
8.75
9.06
9.20
9.09
8.73
8.10
7.18
5.79
3.74
0.90
-2.66
-6.52
-10.01
-12.42
-13.26
-12.48
-10.52
-8.06
-5.77
-4.07
-2.98
-2.30
-1.75
-1.13
-0.43
0.27
0.85
1.23
1.38
1.38
1.32
1.32
1.50
1.88
2.42
3.00
3.49
3.81
3.94
3.89
3.67
3.32
2.91
2.54
2.28
2.17
2.17
2.18
2.11
1.91
1.59
1.19
0.64
-0.08
-1.01
-2.11
-3.28
-4.43
-5.54
-6.69
-7.96
-9.36
-10.66
-11.54
-11.63
-10.76
-9.04
-6.83
-4.61
-2.75
-1.37
-0.37
0.50
1.43
2.53
3.74
4.90
5.88
6.64
7.19
7.60
7.89
8.03
7.96
7.64
7.15
6.61
6.20
6.06
6.22
6.58
6.98
7.20
7.12
6.73
6.11
5.41
4.72
4.06
3.31
2.40
1.25
-0.08
-1.46
-2.80
-4.05
-5.29
-6.63
-8.14
-9.84
-11.67
-13.54
-15.33
-16.85
-17.88
-18.13
-17.44
-15.79
-13.44
-10.76
-8.11
-5.71
-3.59
-1.70
0.01
1.48
2.63
3.39
3.87
4.29
4.90
5.84
7.09
8.47
9.70
10.55
10.90
10.80
10.41
9.88
9.40
9.00
8.65
8.26
7.78
7.15
6.40
5.53
4.51
3.36
2.13
0.93
-0.09
-0.84
-1.35
-1.74
-2.20
-2.85
-3.72
-4.71
-5.74
-6.73
-7.71
-8.77
-10.03
-11.53
-13.23
-14.94
-16.39
-17.24
-17.22
-16.25
-14.41
-11.99
-9.34
-6.78
-4.50
-2.54
-0.87
0.51
1.63
2.51
3.20
3.73
4.12
4.34
4.38
4.26
4.11
4.12
4.43
5.09
6.00
7.01
7.95
8.67
9.10
9.21
8.94
8.28
7.26
5.97
4.55
3.22
2.19
1.60
1.45
1.60
1.78
1.72
1.23
0.28
-0.99
-2.41
-3.83
-5.20
-6.55
-7.98
-9.53
-11.25
-13.21
-15.44
-17.88
-20.25
-22.08
-22.80
-22.01
-19.61
-15.95
-11.65
-7.41
-3.73
-0.85
1.25
2.71
3.61
4.07
4.19
4.15
4.16
4.37
4.83
5.44
6.09
6.70
7.29
7.96
8.72
9.53
10.21
10.67
10.89
10.96
11.01
11.06
11.00
10.62
9.76
8.41
6.79
5.23
4.06
3.41
3.19
3.04
2.56
1.47
-0.22
-2.20
-4.02
-5.31
-5.99
-6.31
-6.73
-7.72
-9.52
-12.06
-15.03
-18.04
-20.67
-22.59
-23.55
-23.38
-22.02
-19.59
-16.32
-12.61
-8.87
-5.46
-2.65
-0.51
0.99
2.01
2.78
3.52
4.37
5.38
6.48
7.54
8.48
9.22
9.75
10.11
10.32
10.44
10.51
10.55
10.51
10.32
9.93
9.29
8.43
7.41
6.25
4.99
3.59
2.06
0.45
-1.13
-2.56
-3.75
-4.74
-5.60
-6.45
-7.40
-8.49
-9.78
-11.32
-13.16
-15.25
-17.42
-19.38
-20.77
-21.27
-20.68
-18.94
-16.17
-12.63
-8.74
-4.99
-1.82
0.47
1.89
2.69
3.26
3.95
4.84
5.82
6.68
7.27
7.69
8.15
8.90
10.01
11.30
12.48
13.26
13.53
13.33
12.82
12.18
11.49
10.76
9.93
8.96
7.78
6.40
4.79
3.00
1.08
-0.87
-2.79
-4.65
-6.49
-8.41
-10.53
-12.97
-15.73
-18.72
-21.69
-24.26
-25.98
-26.44
-25.38
-22.81
-19.02
-14.56
-10.06
-6.02
-2.74
-0.22
1.71
3.28
4.60
5.66
6.44
6.91
7.21
7.54
8.08
8.88
9.79
10.54
10.89
10.76
10.30
9.79
9.53
9.65
9.99
10.19
9.85
8.67
6.64
4.07
1.43
-0.82
-2.47
-3.55
-4.36
-5.27
-6.59
-8.51
-11.06
-14.14
-17.54
-20.88
-23.64
-25.26
-25.30
-23.64
-20.53
-16.57
-12.46
-8.79
-5.78
-3.38
-1.34
0.57
2.42
4.14
5.63
6.87
7.93
8.98
10.11
11.26
12.27
12.94
13.14
12.95
12.56
12.22
12.12
12.27
12.52
12.61
12.28
11.35
9.77
7.68
5.33
3.02
0.95
-0.81
-2.41
-4.15
-6.41
-9.50
-13.51
-18.22
-23.13
-27.48
-30.43
-31.33
-29.86
-26.21
-21.01
-15.17
-9.56
-4.77
-0.98
1.98
4.40
6.59
8.68
10.67
12.44
13.92
15.04
15.88
16.53
17.14
17.76
18.37
18.86
19.10
19.03
18.72
18.35
18.06
17.89
17.71
17.24
16.22
14.55
12.32
9.86
7.52
5.50
3.79
2.17
0.29
-2.15
-5.34
-9.34
-14.01
-19.10
-24.20
-28.76
-32.10
-33.59
-32.84
-29.87
-25.14
-19.44
-13.59
-8.22
-3.62
0.25
3.60
6.69
9.69
12.66
15.58
18.37
20.89
22.98
24.56
25.63
26.30
26.74
27.09
27.42
27.69
27.84
27.82
27.63
27.28
26.69
25.71
24.17
21.97
19.20
16.17
13.25
10.68
8.50
6.52
4.47
2.20
-0.26
-2.69
-4.89
-6.77
-8.50
-10.38
-12.76
-15.88
-19.75
-24.06
-28.26
-31.67
-33.59
-33.55
-31.45
-27.60
-22.64
-17.32
-12.27
-7.84
-4.11
-0.93
1.96
4.81
7.75
10.83
13.93
16.84
19.36
21.33
22.73
23.64
24.21
24.57
24.84
24.99
24.98
24.75
24.28
23.63
22.93
22.31
21.80
21.30
20.65
19.66
18.31
16.68
15.00
13.39
11.88
10.31
8.48
6.28
3.77
1.15
-1.34
-3.50
-5.35
-7.06
-8.88
-11.11
-13.96
-17.49
-21.60
-25.94
-29.95
-32.93
-34.19
-33.31
-30.21
-25.32
-19.40
-13.34
-7.96
-3.69
-0.58
1.67
3.52
5.41
7.58
10.01
12.48
14.73
16.53
17.83
18.78
19.56
20.33
21.15
21.96
22.67
23.18
23.43
23.44
23.25
22.89
22.37
21.62
20.57
19.18
17.45
15.50
13.51
11.66
10.11
8.86
7.82
6.87
5.83
4.59
3.05
1.16
-1.06
-3.58
-6.31
-9.19
-12.19
-15.26
-18.43
-21.67
-24.94
-28.07
-30.78
-32.70
-33.45
-32.76
-30.59
-27.16
-22.89
-18.31
-13.88
-9.86
-6.31
-3.15
-0.22
2.60
5.37
8.04
10.58
12.90
14.93
16.62
17.88
18.64
18.87
18.68
18.24
17.80
17.54
17.53
17.66
17.78
17.72
17.41
16.86
16.15
15.37
14.56
13.69
12.69
11.46
9.90
7.97
5.68
3.17
0.69
-1.52
-3.28
-4.60
-5.72
-6.97
-8.70
-11.08
-14.12
-17.57
-21.01
-23.87
-25.58
-25.68
-23.92
-20.47
-15.87
-10.89
-6.30
-2.60
0.12
2.12
3.77
5.34
6.86
8.19
9.16
9.74
10.05
10.29
10.67
11.23
11.91
12.58
13.13
13.48
13.65
13.65
13.48
13.14
12.57
11.73
10.62
9.28
7.82
6.35
4.98
3.73
2.56
1.39
0.15
-1.19
-2.58
-4.01
-5.47
-6.98
-8.58
-10.25
-11.96
-13.67
-15.41
-17.31
-19.47
-21.91
-24.36
-26.34
-27.24
-26.62
-24.37
-20.75
-16.36
-11.83
-7.68
-4.16
-1.30
1.03
2.99
4.69
6.18
7.46
8.47
9.16
9.50
9.54
9.39
9.25
9.25
9.52
10.03
10.64
11.19
11.47
11.38
10.87
10.01
8.91
7.70
6.50
5.42
4.50
3.75
3.13
2.57
1.93
1.12
0.08
-1.19
-2.62
-4.11
-5.55
-6.92
-8.25
-9.69
-11.36
-13.38
-15.77
-18.40
-20.95
-22.98
-24.00
-23.59
-21.62
-18.28
-14.12
-9.81
-5.98
-2.99
-0.89
0.52
1.55
2.46
3.41
4.42
5.48
6.52
7.50
8.37
9.15
9.83
10.41
10.89
11.23
11.43
11.51
11.53
11.51
11.36
10.92
10.01
8.58
6.72
4.75
3.02
1.78
1.05
0.61
0.16
-0.55
-1.63
-3.03
-4.59
-6.14
-7.56
-8.82
-9.97
-11.15
-12.54
-14.32
-16.57
-19.21
-21.93
-24.23
-25.55
-25.46
-23.80
-20.79
-16.94
-12.89
-9.15
-6.04
-3.54
-1.46
0.42
2.26
4.04
5.66
7.02
8.07
8.83
9.42
9.88
10.29
10.63
10.86
10.94
10.82
10.47
9.96
9.41
8.96
8.69
8.55
8.40
8.05
7.38
6.40
5.25
4.14
3.25
2.65
2.22
1.77
1.08
-0.05
-1.62
-3.52
-5.49
-7.24
-8.60
-9.65
-10.67
-12.01
-13.99
-16.68
-19.91
-23.33
-26.41
-28.61
-29.42
-28.49
-25.78
-21.65
-16.77
-11.94
-7.82
-4.70
-2.49
-0.84
0.62
2.11
3.63
5.11
6.53
7.89
9.24
10.55
11.72
12.59
13.09
13.28
13.31
13.35
13.53
13.83
14.17
14.42
14.49
14.31
13.87
13.15
12.12
10.77
9.17
7.47
5.86
4.57
3.67
3.08
2.57
1.85
0.71
-0.88
-2.76
-4.66
-6.36
-7.76
-8.93
-10.07
-11.37
-12.94
-14.84
-17.06
-19.55
-22.22
-24.87
-27.12
-28.44
-28.35
-26.54
-23.12
-18.62
-13.85
-9.57
-6.30
-4.07
-2.57
-1.40
-0.20
1.13
2.55
3.93
5.25
6.54
7.85
9.14
10.25
11.00
11.31
11.31
11.28
11.50
12.10
12.95
13.80
14.39
14.55
14.30
13.73
12.93
11.98
10.93
9.89
8.99
8.30
7.80
7.30
6.58
5.54
4.23
2.81
1.40
-0.05
-1.66
-3.54
-5.66
-7.79
-9.63
-11.05
-12.14
-13.24
-14.72
-16.83
-19.56
-22.64
-25.65
-28.09
-29.54
-29.65
-28.31
-25.60
-21.85
-17.59
-13.35
-9.58
-6.52
-4.21
-2.51
-1.22
-0.17
0.80
1.78
2.83
3.94
5.10
6.21
7.21
8.06
8.73
9.32
9.88
10.46
11.11
11.82
12.58
13.37
14.09
14.59
14.69
14.25
13.27
11.88
10.31
8.76
7.35
6.05
4.78
3.50
2.20
0.93
-0.27
-1.46
-2.71
-4.10
-5.65
-7.25
-8.80
-10.23
-11.59
-13.07
-14.88
-17.19
-19.99
-23.07
-26.00
-28.22
-29.21
-28.60
-26.30
-22.54
-17.84
-12.85
-8.17
-4.19
-1.05
1.34
3.16
4.58
5.68
6.50
7.06
7.42
7.72
8.07
8.54
9.14
9.82
10.53
11.26
12.00
12.75
13.43
13.91
14.05
13.75
12.96
11.78
10.38
8.99
7.78
6.74
5.74
4.58
3.07
1.20
-0.91
-2.97
-4.74
-6.09
-7.08
-7.92
-8.83
-10.05
-11.65
-13.70
-16.12
-18.80
-21.49
-23.75
-25.07
-24.93
-23.11
-19.72
-15.31
-10.64
-6.42
-3.09
-0.72
0.88
2.03
3.00
3.93
4.87
5.77
6.62
7.39
8.10
8.75
9.34
9.87
10.28
10.54
10.60
10.51
10.34
10.23
10.23
10.28
10.22
9.82
8.94
7.60
5.90
4.04
2.15
0.29
-1.53
-3.30
-4.97
-6.47
-7.84
-9.22
-10.83
-12.88
-15.48
-18.47
-21.46
-23.88
-25.16
-24.89
-22.99
-19.70
-15.57
-11.27
-7.40
-4.34
-2.21
-0.88
-0.08
0.49
1.10
1.91
3.00
4.34
5.84
7.34
8.69
9.74
10.40
10.67
10.59
10.32
10.03
9.86
9.90
10.11
10.33
10.30
9.72
8.40
6.32
3.69
0.87
-1.72
-3.80
-5.33
-6.52
-7.79
-9.63
-12.47
-16.38
-21.10
-25.94
-30.01
-32.39
-32.47
-30.16
-25.93
-20.57
-15.01
-9.94
-5.72
-2.37
0.30
2.50
4.48
6.39
8.35
10.39
12.46
14.39
16.00
17.11
17.67
17.78
17.66
17.56
17.61
17.81
18.05
18.17
18.06
17.68
17.05
16.20
15.11
13.68
11.85
9.61
7.13
4.68
2.54
0.93
-0.21
-1.09
-2.11
-3.70
-6.25
-9.94
-14.65
-19.92
-24.93
-28.74
-30.53
-29.88
-26.93
-22.30
-16.88
-11.50
-6.71
-2.78
0.35
2.86
5.02
7.08
9.24
11.65
14.26
16.93
19.41
21.46
22.95
23.89
24.41
24.73
25.08
25.62
26.41
27.37
28.31
28.90
28.87
28.08
26.53
24.44
22.10
19.79
17.68
15.84
14.17
12.48
10.55
8.21
5.43
2.35
-0.80
-3.77
-6.49
-9.05
-11.73
-14.78
-18.38
-22.45
-26.72
-30.71
-33.78
-35.27
-34.66
-31.75
-26.84
-20.73
-14.42
-8.82
-4.40
-1.09
1.53
3.97
6.57
9.37
12.23
15.00
17.57
19.93
22.06
23.88
25.28
26.22
26.77
27.10
27.49
28.13
29.03
30.09
30.99
31.42
31.12
30.01
28.18
25.85
23.29
20.78
18.53
16.64
15.15
13.97
12.97
11.88
10.50
8.64
6.26
3.53
0.73
-1.84
-3.94
-5.61
-7.11
-8.87
-11.29
-14.56
-18.54
-22.77
-26.56
-29.21
-30.19
-29.26
-26.56
-22.57
-17.94
-13.38
-9.43
-6.34
-4.04
-2.20
-0.43
1.57
3.82
6.15
8.28
10.00
11.30
12.33
13.30
14.28
15.17
15.79
16.03
15.98
15.93
16.16
16.81
17.67
18.38
18.54
17.99
16.81
15.26
13.65
12.16
10.81
9.56
8.35
7.13
5.90
4.66
3.42
2.20
1.03
-0.09
-1.24
-2.52
-4.08
-5.95
-8.11
-10.45
-12.87
-15.31
-17.80
-20.32
-22.70
-24.62
-25.57
-25.17
-23.27
-20.08
-16.09
-11.92
-8.05
-4.73
-1.97
0.38
2.42
4.20
5.72
7.03
8.24
9.52
10.92
12.42
13.84
14.97
15.66
15.87
15.70
15.36
15.04
14.89
14.92
15.03
15.00
14.61
13.72
12.31
10.56
8.74
7.15
6.02
5.43
5.24
5.19
4.99
4.40
3.36
1.99
0.50
-0.93
-2.25
-3.53
-4.94
-6.59
-8.54
-10.75
-13.18
-15.75
-18.32
-20.57
-22.00
-22.14
-20.72
-17.91
-14.33
-10.78
-7.97
-6.20
-5.29
-4.80
-4.20
-3.22
-1.85
-0.30
1.21
2.56
3.76
4.86
5.83
6.54
6.89
6.81
6.39
5.82
5.38
5.19
5.25
5.38
5.37
5.01
4.27
3.23
2.08
0.97
-0.01
-0.89
-1.75
-2.71
-3.84
-5.10
-6.35
-7.48
-8.37
-9.06
-9.66
-10.38
-11.43
-12.95
-14.89
-16.97
-18.72
-19.65
-19.40
-17.92
-15.48
-12.58
-9.72
-7.28
-5.45
-4.22
-3.46
-2.97
-2.50
-1.80
-0.71
0.76
2.39
3.77
4.56
4.62
4.08
3.31
2.75
2.68
3.16
4.02
4.98
5.79
6.27
6.35
6.05
5.46
4.68
3.88
3.17
2.59
2.10
1.58
0.91
-0.01
-1.16
-2.51
-3.99
-5.56
-7.19
-8.84
-10.46
-12.01
-13.52
-15.07
-16.69
-18.28
-19.58
-20.15
-19.63
-17.90
-15.16
-11.92
-8.80
-6.27
-4.53
-3.48
-2.86
-2.39
-1.91
-1.38
-0.83
-0.28
0.28
0.91
1.64
2.49
3.39
4.22
4.87
5.25
5.42
5.48
5.60
5.88
6.37
6.92
7.32
7.36
6.92
6.08
5.04
3.97
2.96
1.89
0.57
-1.13
-3.15
-5.27
-7.19
-8.71
-9.84
-10.71
-11.54
-12.49
-13.67
-15.18
-17.06
-19.28
-21.62
-23.65
-24.78
-24.57
-22.89
-19.98
-16.40
-12.78
-9.56
-6.95
-4.93
-3.44
-2.35
-1.56
-0.84
0.01
1.23
2.85
4.70
6.44
7.72
8.39
8.49
8.26
8.00
7.89
7.97
8.19
8.46
8.72
8.91
8.98
8.81
8.26
7.25
5.80
4.10
2.41
1.01
0.05
-0.48
-0.77
-1.04
-1.50
-2.24
-3.22
-4.30
-5.38
-6.36
-7.25
-8.14
-9.12
-10.23
-11.53
-13.01
-14.66
-16.37
-17.94
-19.04
-19.37
-18.69
-17.06
-14.74
-12.12
-9.55
-7.20
-5.07
-3.10
-1.24
0.45
1.93
3.17
4.21
5.15
6.00
6.74
7.31
7.70
8.00
8.35
8.79
9.20
9.40
9.21
8.68
8.07
7.70
7.77
8.19
8.64
8.75
8.34
7.47
6.40
5.42
4.66
4.03
3.41
2.71
2.03
1.51
1.25
1.11
0.84
0.18
-0.97
-2.50
-4.13
-5.64
-7.00
-8.36
-10.06
-12.32
-15.13
-18.14
-20.75
-22.28
-22.29
-20.69
-17.80
-14.26
-10.74
-7.77
-5.50
-3.85
-2.51
-1.19
0.28
1.94
3.71
5.51
7.21
8.68
9.78
10.40
10.53
10.28
9.84
9.38
9.04
8.85
8.78
8.82
8.97
9.20
9.43
9.46
9.11
8.29
7.09
5.77
4.62
3.81
3.33
2.96
2.41
1.44
-0.00
-1.86
-3.94
-6.07
-8.11
-10.00
-11.77
-13.52
-15.41
-17.58
-20.08
-22.76
-25.27
-27.11
-27.77
-26.93
-24.58
-21.04
-16.89
-12.72
-8.99
-5.96
-3.67
-1.97
-0.66
0.52
1.77
3.24
4.95
6.83
8.73
10.41
11.67
12.41
12.68
12.72
12.82
13.27
14.16
15.36
16.56
17.37
17.56
17.08
16.07
14.80
13.43
12.06
10.69
9.28
7.84
6.39
4.96
3.50
1.95
0.24
-1.58
-3.41
-5.16
-6.76
-8.31
-10.01
-12.07
-14.64
-17.71
-21.03
-24.22
-26.82
-28.35
-28.48
-27.12
-24.46
-20.91
-17.06
-13.44
-10.39
-7.97
-5.98
-4.14
-2.18
0.02
2.41
4.80
7.00
8.84
10.25
11.25
11.89
12.29
12.56
12.81
13.06
13.31
13.51
13.59
13.56
13.41
13.14
12.71
12.02
11.04
9.82
8.50
7.25
6.14
5.12
4.02
2.67
0.99
-0.94
-3.00
-5.05
-7.08
-9.13
-11.29
-13.57
-15.92
-18.25
-20.45
-22.37
-23.76
-24.31
-23.72
-21.84
-18.74
-14.75
-10.33
-5.92
-1.85
1.73
4.75
7.22
9.14
10.58
11.62
12.41
13.12
13.85
14.65
15.47
16.26
16.97
17.59
18.14
18.65
19.10
19.40
19.47
19.27
18.83
18.25
17.61
16.93
16.17
15.23
14.03
12.52
10.70
8.61
6.30
3.84
1.31
-1.22
-3.74
-6.30
-9.00
-11.94
-15.12
-18.43
-21.57
-24.15
-25.71
-25.86
-24.39
-21.37
-17.16
-12.35
-7.55
-3.29
0.25
3.11
5.59
7.95
10.37
12.74
14.81
16.29
17.04
17.17
17.00
16.93
17.23
17.95
18.85
19.61
19.91
19.64
18.90
17.93
16.99
16.17
15.46
14.70
13.73
12.44
10.82
8.95
6.88
4.70
2.51
0.43
-1.37
-2.78
-3.81
-4.60
-5.39
-6.50
-8.10
-10.24
-12.76
-15.30
-17.36
-18.45
-18.16
-16.35
-13.24
-9.30
-5.18
-1.41
1.72
4.16
6.09
7.71
9.23
10.71
12.20
13.65
14.96
16.03
16.70
16.94
16.75
16.22
15.53
14.89
14.44
14.25
14.33
14.51
14.63
14.48
13.97
13.12
12.08
11.08
10.21
9.51
8.81
7.96
6.85
5.49
4.00
2.51
1.09
-0.32
-1.87
-3.74
-6.06
-8.86
-12.00
-15.14
-17.78
-19.46
-19.78
-18.68
-16.41
-13.46
-10.34
-7.47
-5.03
-3.02
-1.28
0.36
2.09
3.98
6.05
8.11
9.92
11.17
11.70
11.53
10.94
10.35
10.07
10.20
10.63
11.08
11.32
11.25
10.92
10.47
10.01
9.55
9.05
8.42
7.61
6.66
5.68
4.75
3.93
3.16
2.33
1.32
0.03
-1.56
-3.41
-5.42
-7.51
-9.58
-11.51
-13.17
-14.40
-15.01
-14.85
-13.84
-12.07
-9.79
-7.34
-5.08
-3.22
-1.77
-0.56
0.64
2.00
3.53
5.10
6.48
7.46
7.94
7.93
7.57
7.14
6.93
7.15
7.87
8.93
10.02
10.79
11.03
10.76
10.13
9.35
8.56
7.78
6.94
6.03
5.07
4.08
3.03
1.80
0.28
-1.61
-3.75
-5.95
-7.99
-9.77
-11.34
-12.86
-14.43
-16.03
-17.42
-18.29
-18.39
-17.63
-16.19
-14.43
-12.68
-11.12
-9.72
-8.26
-6.53
-4.46
-2.20
-0.06
1.65
2.74
3.21
3.19
2.86
2.47
2.22
2.33
3.01
4.32
6.12
8.10
9.78
10.83
11.04
10.46
9.32
7.93
6.55
5.31
4.21
3.23
2.28
1.33
0.37
-0.59
-1.53
-2.46
-3.43
-4.51
-5.78
-7.29
-9.05
-10.99
-12.97
-14.76
-16.07
-16.67
-16.44
-15.50
-14.09
-12.50
-10.96
-9.57
-8.27
-6.92
-5.42
-3.69
-1.74
0.35
2.43
4.30
5.77
6.71
7.09
7.00
6.67
6.34
6.24
6.46
6.95
7.57
8.10
8.34
8.19
7.62
6.70
5.58
4.40
3.33
2.54
2.13
2.15
2.50
2.94
3.16
2.85
1.90
0.33
-1.65
-3.83
-6.01
-8.12
-10.19
-12.22
-14.22
-16.12
-17.73
-18.80
-19.05
-18.30
-16.58
-14.18
-11.55
-9.14
-7.25
-5.85
-4.77
-3.73
-2.57
-1.33
-0.18
0.71
1.27
1.58
1.86
2.31
3.10
4.21
5.49
6.69
7.52
7.79
7.47
6.69
5.68
4.72
4.00
3.59
3.46
3.49
3.58
3.61
3.54
3.30
2.85
2.14
1.13
-0.15
-1.59
-3.02
-4.27
-5.17
-5.70
-5.97
-6.18
-6.56
-7.30
-8.46
-9.99
-11.64
-13.10
-14.03
-14.14
-13.32
-11.69
-9.55
-7.28
-5.25
-3.62
-2.46
-1.61
-0.90
-0.16
0.69
1.62
2.57
3.43
4.11
4.58
4.88
5.06
5.23
5.46
5.82
6.31
6.92
7.59
8.22
8.69
8.85
8.55
7.70
6.33
4.59
2.76
1.20
0.12
-0.43
-0.74
-1.35
-2.79
-5.36
-8.92
-12.96
-16.86
-20.24
-23.19
-26.19
-29.85
-34.53
-40.11
-46.02
-51.40
-55.49
-57.82
-58.23
-56.93
-54.35
-51.13
-48.07
-45.96
-45.25
-45.75
-46.53
-46.05
-42.78
-35.75
-25.10
-12.07
1.49
13.79
23.77
31.26
36.78
40.99
44.27
46.63
47.83
47.72
46.40
44.22
41.67
39.12
36.89
35.28
34.72
35.77
38.85
44.00
50.75
58.19
65.26
71.12
75.35
78.07
79.71
80.87
82.13
83.83
85.98
88.19
89.75
89.85
87.80
83.37
76.81
68.71
59.69
50.14
40.13
29.57
18.47
7.20
-3.60
-13.14
-20.79
-26.25
-29.57
-31.09
-31.25
-30.51
-29.37
-28.39
-28.07
-28.80
-30.64
-33.26
-36.11
-38.55
-40.22
-41.12
-41.61
-42.14
-43.07
-44.54
-46.42
-48.42
-50.16
-51.19
-51.02
-49.22
-45.62
-40.46
-34.49
-28.82
-24.55
-22.35
-22.21
-23.47
-25.13
-26.29
-26.48
-25.74
-24.44
-22.98
-21.56
-20.13
-18.41
-16.11
-13.07
-9.24
-4.69
0.36
5.47
9.94
12.90
13.40
10.74
4.67
-4.51
-16.06
-29.02
-42.38
-55.19
-66.53
-75.49
-81.22
-83.10
-81.01
-75.35
-67.05
-57.37
-47.56
-38.62
-31.03
-24.59
-18.58
-11.97
-3.88
5.96
17.14
28.69
39.51
48.79
56.06
61.17
63.89
63.80
60.48
53.84
44.51
33.84
23.52
14.97
8.84
4.83
2.03
-0.63
-3.83
-7.59
-11.35
-14.29
-15.70
-15.34
-13.48
-10.74
-7.75
-4.99
-2.64
-0.71
0.83
1.95
2.56
2.60
2.13
1.36
0.53
-0.13
-0.47
-0.42
-0.01
0.79
1.92
3.29
4.83
6.42
7.93
9.18
9.98
10.11
9.42
7.94
5.91
3.69
1.66
0.04
-1.13
-1.99
-2.77
-3.68
-4.89
-6.52
-8.64
-11.32
-14.51
-18.04
-21.50
-24.40
-26.23
-26.69
-25.78
-23.79
-21.17
-18.34
-15.61
-13.04
-10.59
-8.21
-5.92
-3.81
-1.90
-0.20
1.32
2.50
2.93
1.99
-0.82
-5.55
-11.54
-17.49
-21.86
-23.43
-21.71
-17.06
-10.48
-3.13
4.06
10.55
16.15
20.78
24.35
26.69
27.67
27.29
25.85
23.83
21.80
20.18
19.11
18.49
18.04
17.51
16.84
16.14
15.58
15.28
15.14
14.88
14.19
12.83
10.81
8.31
5.65
3.12
1.01
-0.49
-1.23
-1.17
-0.46
0.62
1.65
2.23
2.11
1.28
0.00
-1.39
-2.57
-3.33
-3.66
-3.61
-3.25
-2.61
-1.68
-0.45
1.03
2.62
4.15
5.53
6.77
8.00
9.41
11.04
12.85
14.64
16.26
17.59
18.59
19.23
19.47
19.33
18.83
18.16
17.52
17.06
16.74
16.35
15.64
14.47
12.95
11.35
10.05
9.29
9.20
9.79
11.04
12.93
15.42
18.41
21.64
24.80
27.53
29.50
30.59
30.84
30.42
29.56
28.32
26.47
23.52
18.86
12.12
3.51
-6.10
-15.39
-23.00
-28.00
-30.22
-30.09
-28.41
-26.01
-23.49
-21.25
-19.57
-18.71
-18.82
-19.81
-21.28
-22.57
-23.02
-22.19
-20.14
-17.40
-14.81
-13.20
-13.05
-14.29
-16.23
-17.82
-18.07
-16.42
-12.97
-8.49
-3.99
-0.51
1.10
0.16
-3.80
-10.90
-20.58
-31.38
-41.10
-47.39
-48.72
-44.85
-36.86
-26.56
-15.48
-4.43
6.53
17.46
27.95
36.90
42.83
44.66
42.29
36.66
29.46
22.43
16.77
12.90
10.55
9.21
8.43
8.06
8.13
8.67
9.51
10.28
10.58
10.23
9.31
8.11
6.89
5.76
4.53
2.95
0.86
-1.67
-4.32
-6.64
-8.26
-9.01
-9.14
-9.31
-10.46
-13.72
-19.86
-28.87
-39.61
-49.95
-57.32
-59.59
-55.90
-46.80
-33.96
-19.38
-4.75
8.92
21.01
30.94
37.95
41.23
40.41
35.94
29.10
21.61
15.08
10.45
7.87
6.89
6.77
6.88
6.85
6.57
6.20
5.94
6.00
6.44
7.16
7.90
8.40
8.46
8.08
7.37
6.50
5.60
4.72
3.88
3.15
2.65
2.54
2.86
3.53
4.31
5.01
5.62
6.32
7.41
9.08
11.30
13.78
16.10
17.87
