1520270308.00
64.000000
-0.00
-0.00
-0.00
-0.00
-0.00
-0.00
-0.00
-0.00
-0.00
-0.00
0.00
0.01
0.01
-0.00
-0.03
-0.05
-0.05
0.00
0.13
0.36
0.66
1.01
1.37
1.72
2.06
2.40
2.79
3.24
3.80
4.42
5.06
5.66
6.20
6.68
7.15
7.68
8.31
9.14
10.09
11.04
11.88
12.56
13.14
13.76
14.65
15.96
17.91
20.32
22.90
25.38
27.58
29.57
31.68
34.32
37.81
42.54
48.15
54.10
59.83
64.97
69.58
74.14
79.34
85.71
93.76
103.00
112.62
121.73
129.77
136.75
143.30
150.75
157.77
166.64
177.95
191.79
206.97
220.57
228.25
225.36
208.53
176.87
132.76
80.05
23.07
-34.94
-92.44
-149.16
-205.23
-260.37
-313.74
-363.87
-409.83
-450.91
-486.50
-515.74
-537.23
-549.22
-549.96
-538.37
-514.21
-478.67
-433.87
-382.42
-326.98
-269.81
-212.65
-156.75
-103.15
-52.67
-6.28
35.17
71.02
100.96
125.12
143.97
158.21
168.55
175.66
179.96
181.76
181.28
178.78
174.52
168.88
162.22
154.94
147.34
139.65
132.00
124.42
116.84
109.20
101.44
93.58
85.77
78.20
71.12
64.66
58.80
53.34
48.00
42.49
36.73
30.87
25.27
20.34
16.35
13.29
10.78
8.28
5.29
1.60
-2.56
-6.63
-9.99
-12.19
-13.21
-13.47
-13.58
-14.22
-15.92
-18.99
-23.36
-28.37
-32.61
-34.12
-31.07
-22.57
-9.37
6.20
21.00
32.32
38.80
40.74
39.67
37.47
35.60
34.67
34.49
34.43
33.83
32.26
29.69
26.39
22.83
19.47
16.45
13.73
11.18
8.85
6.96
5.85
5.65
6.12
6.65
6.55
5.40
3.33
0.84
-1.32
-2.54
-2.61
-1.79
-0.63
0.25
0.46
-0.07
-1.13
-2.30
-3.18
-3.54
-3.32
-2.60
-1.56
-0.38
0.82
1.98
3.12
4.31
5.59
6.94
8.30
9.56
10.66
11.59
12.44
13.29
14.18
15.07
15.88
16.45
16.64
16.32
15.37
13.77
11.56
9.00
6.17
3.20
0.19
-2.86
-5.92
-8.89
-11.57
-13.67
-15.02
-15.66
-15.78
-15.67
-15.55
-15.51
-15.46
-15.25
-14.76
-13.99
-13.00
-11.94
-10.90
-9.98
-9.26
-8.78
-8.57
-8.56
-8.59
-8.37
-7.65
-6.34
-4.53
-2.55
-0.79
0.48
1.21
1.57
1.80
2.05
2.30
2.43
2.31
1.99
1.64
1.47
1.58
1.93
2.37
2.73
2.95
3.05
3.11
3.22
3.39
3.57
3.64
3.55
3.30
2.95
2.61
2.39
2.31
2.24
2.00
1.50
0.70
-0.30
-1.29
-2.09
-2.68
-3.21
-3.93
-5.04
-6.53
-8.21
-9.80
-11.00
-11.65
-11.73
-11.26
-10.30
-8.89
-7.07
-4.93
-2.61
-0.31
1.79
3.50
4.72
5.45
5.78
5.87
5.87
5.92
6.06
6.29
6.58
6.88
7.19
7.46
7.65
7.68
7.49
7.09
6.51
5.86
5.22
4.63
4.10
3.58
2.98
2.27
1.40
0.39
-0.71
-1.86
-3.03
-4.25
-5.57
-7.02
-8.55
-10.04
-11.35
-12.31
-12.84
-12.90
-12.47
-11.57
-10.21
-8.45
-6.34
-4.02
-1.63
0.66
2.70
4.37
5.58
6.33
6.73
6.91
7.00
7.10
7.22
7.31
7.31
7.18
6.93
6.58
6.21
5.86
5.57
5.31
5.03
4.66
4.12
3.38
2.47
1.44
0.30
-0.91
-2.18
-3.46
-4.68
-5.75
-6.69
-7.60
-8.66
-10.07
-11.90
-14.04
-16.19
-17.97
-19.01
-19.06
-18.07
-16.11
-13.42
-10.27
-6.97
-3.79
-0.96
1.38
3.17
4.43
5.26
5.81
6.24
6.70
7.22
7.77
8.23
8.49
8.50
8.30
8.07
7.93
7.92
7.96
7.88
7.53
6.88
6.01
5.06
4.16
3.34
2.54
1.68
0.66
-0.54
-1.91
-3.40
-4.93
-6.44
-7.90
-9.39
-10.99
-12.79
-14.77
-16.74
-18.34
-19.21
-19.06
-17.87
-15.81
-13.16
-10.23
-7.22
-4.26
-1.46
1.11
3.35
5.15
6.51
7.46
8.08
8.48
8.71
8.80
8.77
8.64
8.50
8.47
8.60
8.88
9.18
9.32
9.16
8.71
8.08
7.44
6.87
6.35
5.71
4.80
3.54
2.01
0.34
-1.31
-2.85
-4.31
-5.77
-7.32
-9.00
-10.82
-12.74
-14.70
-16.61
-18.32
-19.63
-20.29
-20.09
-18.89
-16.74
-13.86
-10.60
-7.32
-4.26
-1.52
0.92
3.05
4.84
6.20
7.07
7.48
7.61
7.66
7.80
8.08
8.43
8.77
9.04
9.21
9.28
9.25
9.08
8.77
8.36
7.91
7.50
7.17
6.84
6.41
5.70
4.63
3.18
1.49
-0.27
-1.89
-3.30
-4.59
-5.97
-7.67
-9.73
-11.97
-13.98
-15.31
-15.65
-14.95
-13.41
-11.29
-8.88
-6.31
-3.64
-1.00
1.44
3.44
4.81
5.48
5.55
5.21
4.64
4.01
3.41
2.87
2.43
2.11
1.88
1.71
1.52
1.23
0.77
0.08
-0.88
-2.18
-3.89
-5.99
-8.40
-10.95
-13.45
-15.74
-17.72
-19.39
-20.76
-21.82
-22.51
-22.75
-22.54
-21.92
-20.96
-19.70
-18.04
-15.78
-12.67
-8.59
-3.66
1.75
7.18
12.16
16.40
19.82
22.48
24.44
25.75
26.40
26.41
25.87
24.93
23.86
22.88
22.13
21.62
21.22
20.78
20.18
19.40
18.52
17.65
16.89
16.24
15.62
14.93
14.05
12.91
11.50
9.83
8.00
6.10
4.23
2.46
0.79
-0.84
-2.54
-4.37
-6.41
-8.73
-11.36
-14.30
-17.40
-20.35
-22.75
-24.20
-24.50
-23.66
-21.91
-19.59
-16.94
-14.15
-11.34
-8.65
-6.27
-4.37
-3.07
-2.33
-2.07
-2.17
-2.54
-3.14
-3.87
-4.63
-5.27
-5.66
-5.80
-5.76
-5.72
-5.87
-6.37
-7.28
-8.57
-10.10
-11.72
-13.28
-14.70
-16.07
-17.53
-19.24
-21.26
-23.54
-25.88
-28.09
-29.97
-31.40
-32.32
-32.71
-32.59
-32.01
-31.05
-29.65
-27.66
-24.65
-20.05
-13.33
-4.22
7.06
19.76
32.75
44.89
55.30
63.63
70.00
74.81
78.49
81.25
83.10
83.92
83.63
82.35
80.31
77.79
74.98
71.86
68.27
63.98
58.87
53.05
46.82
40.67
35.02
30.03
25.54
21.12
16.28
10.79
4.78
-1.20
-6.46
-10.37
-12.70
-13.63
-13.66
-13.38
-13.27
-13.60
-14.37
-15.36
-16.28
-16.83
-16.75
-15.87
-14.12
-11.57
-8.42
-4.97
-1.66
1.00
2.56
2.67
1.26
-1.44
-4.91
-8.44
-11.26
-12.72
-12.34
-9.90
-5.44
0.62
7.49
14.00
18.86
20.95
19.74
15.40
8.77
1.03
-6.68
-13.57
-19.25
-23.62
-26.67
-28.41
-28.85
-28.10
-26.40
-24.17
-21.96
-20.30
-19.58
-19.92
-21.09
-22.57
-23.71
-23.94
-23.00
-21.04
-18.50
-15.96
-13.82
-12.21
-10.92
-9.60
-7.90
-5.65
-2.94
-0.05
2.69
5.07
7.02
8.62
9.97
11.04
11.70
11.77
11.22
10.17
8.83
7.41
5.95
4.39
2.62
0.63
-1.49
-3.55
-5.40
-7.00
-8.42
-9.71
-10.86
-11.77
-12.27
-12.26
-11.79
-10.99
-10.15
-9.57
-9.54
-10.28
-11.83
-14.03
-16.44
-18.49
-19.60
-19.43
-18.03
-15.79
-13.29
-11.00
-9.04
-7.17
-4.96
-2.07
1.59
5.80
10.26
14.70
18.98
22.97
26.39
28.78
29.61
28.56
25.74
21.73
17.38
13.51
10.63
8.85
7.97
7.64
7.54
7.43
7.15
6.64
5.86
4.88
3.76
2.64
1.59
0.64
-0.25
-1.15
-2.15
-3.30
-4.59
-5.95
-7.26
-8.47
-9.63
-10.87
-12.42
-14.39
-16.80
-19.47
-22.10
-24.32
-25.82
-26.43
-26.12
-25.02
-23.35
-21.35
-19.26
-17.25
-15.49
-14.11
-13.19
-12.76
-12.65
-12.61
-12.35
-11.64
-10.41
-8.76
-6.84
-4.75
-2.57
-0.37
1.73
3.54
4.86
5.64
5.99
6.11
6.19
6.26
6.23
5.95
5.39
4.72
4.18
3.96
4.06
4.26
4.28
3.88
3.03
1.96
1.02
0.56
0.86
2.03
4.04
6.77
10.03
13.53
16.97
20.03
22.39
23.79
24.11
23.37
21.73
19.51
17.10
14.86
13.06
11.85
11.23
11.07
11.20
11.40
11.51
11.41
11.05
10.48
9.85
9.36
9.14
9.17
9.18
8.72
7.31
4.68
0.86
-3.74
-8.54
-12.88
-16.26
-18.34
-19.02
-18.45
-17.05
-15.55
-14.85
-15.75
-18.67
-23.38
-29.07
-34.61
-38.93
-41.42
-41.97
-40.91
-38.77
-35.95
-32.76
-29.32
-25.67
-21.91
-18.08
-14.25
-10.40
-6.47
-2.38
1.85
6.15
10.33
14.18
17.50
20.18
22.15
23.45
24.17
24.44
24.43
24.32
24.22
24.19
24.19
24.13
23.95
23.66
23.37
23.22
23.35
23.81
24.51
25.23
25.62
25.34
24.07
21.68
18.21
13.89
9.13
4.41
0.19
-3.19
-5.59
-7.05
-7.74
-7.84
-7.56
-7.14
-6.87
-7.15
-8.41
-10.96
-14.96
-20.33
-26.88
-34.34
-42.45
-50.84
-59.04
-66.42
-72.33
-76.29
-78.18
-78.26
-77.10
-75.32
-73.46
-71.78
-70.26
-68.72
-66.96
-64.84
-62.38
-59.73
-57.04
-54.44
-51.94
-49.40
-46.56
-43.08
-38.55
-32.69
-25.46
-17.28
-9.02
-1.88
3.03
5.08
4.33
1.54
-2.15
-5.62
-8.07
-9.10
-8.61
-6.71
-3.62
0.36
4.85
9.50
14.08
18.51
22.78
26.87
30.63
33.78
36.06
37.32
37.68
37.41
36.83
36.23
35.77
35.56
35.64
35.95
36.30
36.37
35.78
34.29
31.89
28.88
25.70
22.78
20.36
18.46
16.89
15.37
13.72
11.88
9.90
7.90
5.89
3.79
1.44
-1.32
-4.54
-8.15
-11.90
-15.51
-18.59
-20.74
-21.56
-20.68
-17.98
-13.59
-7.99
-1.85
4.21
9.73
14.51
18.47
21.62
23.90
25.27
25.76
25.54
24.90
24.14
23.45
22.89
22.44
22.04
21.71
21.54
21.60
21.84
22.12
22.20
21.87
21.02
19.70
18.06
16.27
14.44
12.61
10.78
8.92
7.02
5.04
2.86
0.36
-2.61
-6.03
-9.67
-13.11
-15.84
-17.42
-17.54
-16.11
-13.24
-9.19
-4.31
0.96
6.15
10.78
14.48
17.03
18.42
18.79
18.40
17.50
16.36
15.16
14.07
13.22
12.70
12.53
12.63
12.88
13.09
13.10
12.82
12.23
11.40
10.42
9.33
8.11
6.69
5.02
3.11
1.07
-1.00
-2.99
-4.97
-7.11
-9.63
-12.64
-16.01
-19.31
-21.90
-23.17
-22.69
-20.40
-16.59
-11.79
-6.58
-1.45
3.31
7.54
11.20
14.20
16.44
17.79
18.24
17.92
17.12
16.19
15.46
15.09
15.07
15.28
15.62
16.05
16.58
17.24
17.95
18.54
18.81
18.60
17.81
16.50
14.76
12.73
10.54
8.33
6.18
4.13
2.07
-0.17
-2.82
-6.02
-9.70
-13.52
-16.94
-19.33
-20.18
-19.22
-16.51
-12.42
-7.47
-2.25
2.73
7.13
10.75
13.53
15.47
16.67
17.27
17.45
17.42
17.30
17.14
16.90
16.47
15.77
14.84
13.82
12.94
12.41
12.29
12.44
12.61
12.50
11.93
10.85
9.37
7.67
5.92
4.22
2.59
0.96
-0.72
-2.59
-4.75
-7.34
-10.36
-13.64
-16.75
-19.11
-20.12
-19.35
-16.75
-12.64
-7.63
-2.43
2.37
6.38
9.48
11.71
13.20
14.12
14.54
14.53
14.14
13.46
12.65
11.88
11.31
11.05
11.06
11.21
11.35
11.31
11.01
10.45
9.66
8.73
7.72
6.67
5.54
4.30
2.88
1.24
-0.61
-2.64
-4.85
-7.27
-9.95
-12.85
-15.70
-18.02
-19.22
-18.80
-16.62
-12.95
-8.38
-3.57
0.94
4.87
8.17
10.86
12.96
14.39
15.11
15.14
14.62
13.76
12.81
11.95
11.29
10.86
10.64
10.61
10.72
10.91
11.08
11.10
10.87
10.28
9.31
7.97
6.37
4.64
2.91
1.28
-0.24
-1.75
-3.38
-5.27
-7.49
-9.96
-12.41
-14.43
-15.58
-15.52
-14.12
-11.51
-8.02
-4.13
-0.28
3.19
6.13
8.49
10.31
11.58
12.31
12.50
12.22
11.61
10.89
10.23
9.73
9.35
9.03
8.70
8.36
8.11
8.08
8.30
8.66
8.91
8.75
7.99
6.65
4.95
3.24
1.78
0.63
-0.32
-1.29
-2.50
-4.02
-5.83
-7.84
-9.94
-12.05
-14.05
-15.76
-16.91
-17.24
-16.55
-14.79
-12.12
-8.80
-5.15
-1.50
1.86
4.70
6.80
8.02
8.38
7.98
7.07
5.95
4.92
4.19
3.86
3.89
4.15
4.48
4.74
4.86
4.82
4.65
4.34
3.90
3.35
2.70
1.99
1.25
0.44
-0.47
-1.54
-2.78
-4.13
-5.51
-6.86
-8.22
-9.66
-11.25
-12.93
-14.45
-15.44
-15.56
-14.60
-12.64
-9.98
-6.98
-4.01
-1.29
1.08
3.07
4.63
5.69
6.15
5.99
5.31
4.32
3.32
2.55
2.15
2.16
2.46
2.90
3.30
3.57
3.63
3.50
3.18
2.71
2.08
1.28
0.34
-0.71
-1.81
-2.89
-3.87
-4.75
-5.56
-6.37
-7.28
-8.36
-9.63
-11.10
-12.74
-14.49
-16.21
-17.71
-18.75
-19.10
-18.60
-17.18
-14.93
-12.02
-8.71
-5.27
-1.99
0.91
3.28
5.03
6.15
6.69
6.74
6.40
5.84
5.26
4.82
4.63
4.69
4.93
5.21
5.44
5.61
5.70
5.72
5.58
5.22
4.57
3.70
2.71
1.77
0.99
0.37
-0.15
-0.70
-1.40
-2.29
-3.36
-4.55
-5.76
-6.93
-8.07
-9.27
-10.65
-12.34
-14.38
-16.62
-18.71
-20.18
-20.58
-19.63
-17.36
-14.11
-10.39
-6.78
-3.67
-1.24
0.56
1.90
2.98
3.87
4.59
5.07
5.30
5.34
5.30
5.30
5.34
5.37
5.29
5.02
4.62
4.23
4.02
4.05
4.27
4.48
4.51
4.27
3.79
3.20
2.60
2.06
1.56
1.04
0.45
-0.25
-1.07
-2.05
-3.18
-4.50
-5.99
-7.58
-9.15
-10.60
-11.89
-13.05
-14.19
-15.37
-16.48
-17.25
-17.33
-16.42
-14.47
-11.71
-8.54
-5.36
-2.47
-0.02
1.95
3.40
4.27
4.56
4.34
3.79
3.16
2.61
2.26
2.10
2.12
2.31
2.61
2.99
3.34
3.55
3.58
3.45
3.25
3.06
2.91
2.74
2.49
2.10
1.54
0.84
0.03
-0.87
-1.85
-2.89
-3.99
-5.09
-6.16
-7.18
-8.21
-9.29
-10.43
-11.57
-12.52
-13.06
-12.97
-12.13
-10.55
-8.36
-5.79
-3.15
-0.67
1.45
3.12
4.32
5.06
5.35
5.19
4.57
3.53
2.22
0.86
-0.29
-1.02
-1.22
-0.97
-0.46
0.11
0.55
0.77
0.76
0.55
0.17
-0.31
-0.81
-1.30
-1.75
-2.23
-2.82
-3.62
-4.63
-5.79
-6.98
-8.12
-9.21
-10.35
-11.66
-13.19
-14.81
-16.25
-17.18
-17.33
-16.57
-14.97
-12.74
-10.15
-7.51
-5.01
-2.79
-0.91
0.66
1.92
2.86
3.48
3.82
3.90
3.83
3.70
3.61
3.63
3.80
4.08
4.39
4.62
4.69
4.57
4.28
3.88
3.43
2.97
2.52
2.06
1.58
1.05
0.38
-0.55
-1.80
-3.37
-5.10
-6.72
-8.04
-9.02
-9.82
-10.70
-11.93
-13.58
-15.48
-17.28
-18.54
-18.90
-18.17
-16.38
-13.78
-10.68
-7.43
-4.28
-1.40
1.12
3.22
4.83
5.91
6.48
6.63
6.51
6.29
6.06
5.87
5.71
5.60
5.54
5.59
5.75
5.98
6.17
6.23
6.06
5.65
5.01
4.22
3.34
2.44
1.60
0.84
0.15
-0.53
-1.28
-2.20
-3.32
-4.59
-5.92
-7.21
-8.44
-9.65
-11.01
-12.62
-14.46
-16.33
-17.85
-18.56
-18.14
-16.42
-13.54
-9.88
-5.94
-2.24
0.83
3.08
4.59
5.57
6.30
6.97
7.64
8.24
8.69
8.95
9.05
9.07
9.07
9.07
9.07
9.06
9.10
9.23
9.41
9.55
9.49
9.10
8.38
7.42
6.37
5.34
4.40
3.54
2.71
1.84
0.86
-0.31
-1.66
-3.16
-4.73
-6.24
-7.67
-9.08
-10.62
-12.44
-14.55
-16.72
-18.57
-19.67
-19.70
-18.59
-16.42
-13.45
-9.94
-6.14
-2.35
1.15
4.05
6.12
7.30
7.76
7.77
7.64
7.61
7.72
7.92
8.12
8.23
8.27
8.28
8.33
8.43
8.58
8.73
8.82
8.81
8.65
8.34
7.89
7.32
6.66
5.93
5.10
4.15
3.06
1.88
0.65
-0.52
-1.57
-2.51
-3.45
-4.61
-6.15
-8.15
-10.51
-12.87
-14.79
-15.79
-15.59
-14.18
-11.81
-8.89
-5.78
-2.77
0.06
2.69
5.09
7.16
8.74
9.71
10.08
10.00
9.71
9.40
9.17
8.97
8.76
8.50
8.25
8.11
8.16
8.38
8.67
8.88
8.90
8.68
8.22
7.56
6.69
5.65
4.45
3.20
1.99
0.85
-0.24
-1.40
-2.74
-4.29
-5.98
-7.68
-9.30
-10.83
-12.34
-13.93
-15.58
-17.10
-18.23
-18.64
-18.13
-16.64
-14.27
-11.26
-7.87
-4.39
-1.04
1.98
4.58
6.70
8.31
9.39
9.93
10.01
9.74
9.32
8.95
8.75
8.71
8.77
8.83
8.85
8.88
8.99
9.16
9.33
9.35
9.10
8.56
7.83
7.05
6.29
5.53
4.66
3.58
2.24
0.73
-0.81
-2.25
-3.47
-4.52
-5.45
-6.39
-7.43
-8.67
-10.17
-11.96
-13.97
-16.02
-17.78
-18.85
-18.91
-17.79
-15.56
-12.52
-9.00
-5.36
-1.89
1.23
3.84
5.83
7.19
8.02
8.45
8.70
8.93
9.20
9.50
9.77
9.94
10.01
9.99
9.96
9.99
10.12
10.34
10.61
10.82
10.87
10.68
10.24
9.60
8.86
8.08
7.26
6.39
5.40
4.26
2.97
1.57
0.14
-1.23
-2.47
-3.52
-4.40
-5.24
-6.22
-7.57
-9.42
-11.72
-14.24
-16.58
-18.26
-18.89
-18.24
-16.30
-13.27
-9.57
-5.73
-2.26
0.49
2.45
3.81
4.86
5.84
6.77
7.55
8.04
8.20
8.16
8.12
8.18
8.35
8.50
8.54
8.49
8.50
8.71
9.17
9.73
10.16
10.20
9.74
8.84
7.66
6.43
5.30
4.34
3.52
2.73
1.89
0.94
-0.11
-1.22
-2.34
-3.47
-4.63
-5.93
-7.45
-9.22
-11.21
-13.25
-15.14
-16.66
-17.63
-17.92
-17.49
-16.31
-14.39
-11.80
-8.71
-5.39
-2.15
0.72
3.08
4.93
6.35
7.38
7.96
8.01
7.47
6.49
5.40
4.57
4.28
4.60
5.38
6.33
7.18
7.75
7.94
7.78
7.34
6.73
6.09
5.53
5.08
4.71
4.30
3.72
2.87
1.74
0.37
-1.12
-2.60
-3.94
-5.05
-5.97
-6.81
-7.77
-8.99
-10.47
-12.01
-13.27
-13.87
-13.57
-12.31
-10.20
-7.49
-4.45
-1.34
1.58
4.12
6.12
7.50
8.23
8.39
8.13
7.66
7.16
6.80
6.65
6.71
6.93
7.27
7.67
8.10
8.48
8.68
8.59
8.16
7.43
6.56
5.74
5.11
4.70
4.41
4.06
3.48
2.53
1.21
-0.38
-2.07
-3.68
-5.05
-6.13
-7.01
-7.87
-8.88
-10.19
-11.83
-13.72
-15.72
-17.61
-19.08
-19.85
-19.60
-18.18
-15.61
-12.16
-8.27
-4.44
-1.11
1.44
3.18
4.26
4.89
5.33
5.75
6.21
6.71
7.22
7.65
7.96
8.12
8.11
7.96
7.72
7.49
7.37
7.44
7.69
8.00
8.22
8.20
7.89
7.31
6.50
5.50
4.34
3.04
1.66
0.25
-1.11
-2.40
-3.63
-4.83
-6.03
-7.22
-8.41
-9.67
-11.10
-12.78
-14.69
-16.60
-18.12
-18.84
-18.46
-16.94
-14.55
-11.65
-8.63
-5.73
-3.02
-0.45
2.01
4.27
6.11
7.32
7.80
7.68
7.25
6.87
6.80
7.10
7.67
8.33
8.91
9.32
9.54
9.57
9.42
9.12
8.70
8.21
7.74
7.30
6.89
6.45
5.94
5.32
4.56
3.64
2.54
1.27
-0.13
-1.55
-2.86
-3.97
-4.88
-5.70
-6.62
-7.82
-9.41
-11.38
-13.62
-15.87
-17.82
-19.13
-19.50
-18.77
-16.96
-14.27
-11.05
-7.65
-4.36
-1.34
1.33
3.60
5.39
6.62
7.23
7.27
6.89
6.33
5.82
5.51
5.45
5.61
5.95
6.43
7.01
7.63
8.17
8.49
8.47
8.09
7.45
6.74
6.12
5.69
5.40
5.10
4.62
3.87
2.86
1.70
0.51
-0.65
-1.77
-2.89
-4.06
-5.30
-6.60
-7.98
-9.45
-11.02
-12.62
-14.07
-15.12
-15.47
-14.89
-13.28
-10.71
-7.41
-3.75
-0.15
3.04
5.56
7.34
8.42
8.96
9.07
8.88
8.44
7.85
7.28
6.91
6.86
7.16
7.69
8.25
8.67
8.88
8.90
8.83
8.72
8.57
8.34
7.93
7.28
6.40
5.33
4.15
2.90
1.61
0.26
-1.18
-2.69
-4.19
-5.60
-6.81
-7.81
-8.71
-9.65
-10.79
-12.25
-14.01
-15.96
-17.89
-19.47
-20.39
-20.35
-19.17
-16.85
-13.59
-9.74
-5.73
-1.95
1.35
4.01
6.00
7.33
8.06
8.30
8.21
7.97
7.73
7.58
7.56
7.63
7.76
7.94
8.20
8.55
8.97
9.42
9.84
10.14
10.26
10.14
9.74
9.04
8.09
6.98
5.82
4.69
3.60
2.47
1.22
-0.23
-1.80
-3.41
-4.89
-6.14
-7.14
-8.00
-8.95
-10.23
-12.04
-14.41
-17.14
-19.80
-21.82
-22.71
-22.20
-20.30
-17.31
-13.68
-9.87
-6.23
-2.93
-0.04
2.45
4.58
6.36
7.79
8.83
9.47
9.72
9.67
9.48
9.32
9.34
9.59
10.05
10.62
11.18
11.61
11.86
11.88
11.69
11.31
10.76
10.07
9.26
8.39
7.50
6.67
5.90
5.09
4.13
2.89
1.32
-0.50
-2.35
-4.01
-5.34
-6.32
-7.11
-7.94
-9.05
-10.58
-12.58
-14.92
-17.31
-19.39
-20.75
-21.06
-20.14
-17.98
-14.77
-10.86
-6.67
-2.64
0.88
3.72
5.84
7.36
8.44
9.22
9.78
10.09
10.16
10.01
9.76
9.55
9.47
9.54
9.73
9.95
10.12
10.22
10.27
10.28
10.26
10.16
9.89
9.36
8.54
7.52
6.43
5.40
4.48
3.59
2.61
1.43
0.05
-1.41
-2.82
-4.10
-5.28
-6.50
-7.88
-9.52
-11.40
-13.46
-15.54
-17.44
-18.84
-19.40
-18.82
-16.97
-13.98
-10.22
-6.18
-2.34
0.98
3.64
5.62
6.98
7.83
8.22
8.24
7.95
7.41
6.74
6.08
5.58
5.37
5.51
5.94
6.49
6.94
7.19
7.20
7.10
7.03
7.08
7.20
7.22
6.94
6.20
5.01
3.46
1.74
0.02
-1.65
-3.26
-4.87
-6.52
-8.26
-10.09
-11.98
-13.89
-15.73
-17.35
-18.55
-19.09
-18.77
-17.45
-15.13
-11.98
-8.27
-4.41
-0.78
2.31
4.74
6.53
7.82
8.76
9.41
9.80
9.91
9.82
9.65
9.57
9.69
9.99
10.35
10.66
10.85
10.97
11.09
11.26
11.42
11.42
11.11
10.44
9.45
8.30
7.16
6.13
5.16
4.14
2.93
1.47
-0.20
-1.93
-3.59
-5.09
-6.41
-7.64
-8.86
-10.16
-11.61
-13.26
-15.15
-17.28
-19.51
-21.53
-22.94
-23.33
-22.42
-20.18
-16.80
-12.69
-8.29
-4.04
-0.27
2.80
5.05
6.51
7.34
7.77
8.05
8.37
8.80
9.28
9.69
9.97
10.08
10.10
10.11
10.18
10.32
10.51
10.69
10.80
10.77
10.55
10.09
9.38
8.47
7.45
6.38
5.32
4.23
3.03
1.65
0.10
-1.53
-3.12
-4.56
-5.86
-7.10
-8.47
-10.09
-12.07
-14.37
-16.81
-19.08
-20.81
-21.62
-21.25
-19.63
-16.85
-13.26
-9.25
-5.25
-1.60
1.51
4.04
6.07
7.70
8.98
9.90
10.42
10.51
10.25
9.80
9.42
9.28
9.49
9.97
10.58
11.10
11.39
11.38
11.11
10.66
10.13
9.58
9.00
8.36
7.60
6.68
5.59
4.37
3.05
1.66
0.23
-1.26
-2.81
-4.41
-6.05
-7.78
-9.62
-11.65
-13.89
-16.28
-18.59
-20.48
-21.48
-21.21
-19.47
-16.35
-12.25
-7.77
-3.53
-0.03
2.52
4.16
5.18
5.90
6.53
7.12
7.57
7.75
7.59
7.18
6.69
6.35
6.30
6.59
7.15
7.82
8.45
8.90
9.06
8.90
8.43
7.71
6.85
5.94
5.03
4.11
3.13
2.04
0.82
-0.51
-1.90
-3.31
-4.73
-6.16
-7.65
-9.24
-10.98
-12.94
-15.06
-17.18
-18.95
-19.95
-19.74
-18.06
-14.95
-10.79
-6.13
-1.60
2.34
5.45
7.69
9.17
9.99
10.28
10.13
9.71
9.19
8.78
8.62
8.75
9.10
9.56
10.03
10.48
10.92
11.38
11.81
12.10
12.11
11.73
10.97
9.95
8.83
7.77
6.82
5.94
5.01
3.92
2.61
1.08
-0.61
-2.41
-4.25
-6.08
-7.86
-9.54
-11.10
-12.58
-14.11
-15.86
-17.90
-20.16
-22.35
-24.00
-24.63
-23.91
-21.76
-18.38
-14.13
-9.50
-4.93
-0.77
2.73
5.46
7.42
8.71
9.46
9.84
9.97
9.98
9.98
10.06
10.28
10.61
10.96
11.22
11.32
11.26
11.13
11.03
10.98
10.93
10.77
10.40
9.76
8.89
7.85
6.70
5.49
4.23
2.91
1.53
0.08
-1.42
-2.93
-4.40
-5.77
-7.04
-8.33
-9.83
-11.72
-14.05
-16.69
-19.22
-21.11
-21.88
-21.19
-19.03
-15.62
-11.41
-6.89
-2.48
1.52
4.99
7.95
10.46
12.58
14.30
15.56
16.37
16.79
16.98
17.15
17.48
18.08
18.89
19.81
20.72
21.52
22.11
22.46
22.52
22.32
21.90
21.34
20.70
19.92
18.82
17.12
14.64
11.36
7.55
3.65
0.16
-2.57
-4.43
-5.55
-6.12
-6.24
-5.82
-4.65
-2.54
0.54
4.36
8.51
12.56
16.23
19.42
22.25
24.91
27.58
30.39
33.42
36.65
40.06
43.47
46.59
49.07
50.59
51.02
50.39
48.93
46.83
44.21
41.01
37.12
32.42
26.89
20.65
13.81
6.42
-1.50
-9.93
-18.72
-27.52
-35.80
-43.01
-48.76
-52.93
-55.66
-57.24
-57.88
-57.62
-56.27
-53.56
-49.35
-43.70
-37.04
-29.95
-23.02
-16.64
-10.97
-5.94
-1.46
2.47
5.80
8.47
10.56
12.34
14.22
16.57
19.58
23.15
26.89
30.33
32.97
34.52
34.83
33.99
32.09
29.31
25.77
21.63
17.15
12.67
8.56
5.05
2.14
-0.35
-2.69
-5.07
-7.42
-9.52
-11.17
-12.43
-13.79
-15.99
-19.80
-25.72
-33.71
-43.29
-53.66
-63.97
-73.54
-81.90
-88.81
-94.15
-97.91
-100.21
-101.27
-101.45
-101.10
-100.45
-99.48
-97.96
-95.52
-91.81
-86.64
-80.13
-72.63
-64.65
-56.71
-49.21
-42.37
-36.21
-30.63
-25.48
-20.63
-15.99
-11.49
-7.06
-2.64
1.81
6.27
10.60
14.67
18.43
21.87
25.09
28.14
31.02
33.70
36.19
38.66
41.38
44.66
48.69
53.42
58.56
63.65
68.21
71.87
74.39
75.78
76.22
76.00
75.45
74.77
73.98
72.91
71.31
69.01
66.03
62.57
58.94
55.50
52.48
50.00
47.99
46.32
44.74
43.11
41.32
39.32
37.13
34.65
31.70
28.04
23.48
18.11
12.33
6.76
2.06
-1.41
-3.68
-5.14
-6.34
-7.77
-9.70
-12.18
-15.11
-18.31
-21.52
-24.36
-26.42
-27.39
-27.22
-26.26
-25.10
-24.35
-24.27
-24.73
-25.23
-25.21
-24.33
-22.60
-20.39
-18.19
-16.51
-15.78
-16.43
-18.83
-23.30
-29.86
-38.07
-46.94
-55.06
-60.95
-63.46
-62.14
-57.31
-49.83
-40.85
-31.33
-21.97
-13.10
-4.83
2.74
9.58
15.64
21.06
26.05
30.90
35.87
41.01
46.04
50.45
53.54
54.67
53.53
50.23
45.38
39.83
34.39
29.49
25.07
20.66
15.72
9.94
3.48
-3.11
-9.07
-13.81
-17.14
-19.27
-20.69
-21.94
-23.34
-24.96
-26.56
-27.85
-28.55
-28.51
-27.76
-26.44
-24.72
-22.85
-21.02
-19.36
-17.81
-16.18
-14.10
-11.13
-6.97
-1.58
4.74
11.35
17.49
22.44
25.70
27.10
26.82
25.32
23.21
21.10
19.44
18.37
17.71
17.05
15.94
14.08
11.47
8.40
5.24
2.30
-0.35
-2.86
-5.38
-7.99
-10.52
-12.71
-14.35
-15.46
-16.27
-17.05
-17.91
-18.66
-18.87
-18.11
-16.23
-13.52
-10.55
-7.96
-6.15
-5.14
-4.63
-4.25
-3.78
-3.21
-2.76
-2.59
-2.78
-3.21
-3.68
-4.03
-4.19
-4.18
-4.08
-3.95
-3.83
-3.70
-3.59
-3.55
-3.61
-3.82
-4.15
