1520871421.00
64.000000
-0.00
-0.00
-0.00
-0.00
-0.00
-0.00
-0.00
-0.00
-0.00
-0.00
0.00
0.01
0.01
-0.00
-0.03
-0.05
-0.05
0.00
0.13
0.36
0.66
1.01
1.37
1.72
2.06
2.40
2.79
3.24
3.80
4.42
5.06
5.66
6.20
6.68
7.15
7.68
8.31
9.14
10.09
11.04
11.88
12.56
13.14
13.76
14.65
15.96
17.91
20.32
22.90
25.38
27.58
29.57
31.68
34.32
37.81
42.54
48.15
54.10
59.83
64.97
69.58
74.14
79.34
85.71
93.76
103.00
112.62
121.73
129.77
136.75
143.30
150.75
157.77
166.64
177.95
191.79
206.97
220.57
228.25
225.36
208.53
176.87
132.76
80.05
23.07
-34.94
-92.44
-149.16
-205.23
-260.37
-313.74
-363.87
-409.83
-450.91
-486.50
-515.74
-537.23
-549.22
-549.96
-538.37
-514.21
-478.67
-433.88
-382.45
-327.02
-269.84
-212.63
-156.66
-102.95
-52.37
-5.90
35.58
71.43
101.35
125.50
144.38
158.69
169.15
176.37
180.75
182.57
182.07
179.51
175.23
169.65
163.18
156.16
148.83
141.34
133.75
126.10
118.45
110.84
103.35
96.04
88.97
82.16
75.63
69.39
63.44
57.80
52.47
47.46
42.76
38.39
34.33
30.57
27.12
23.95
21.07
18.47
16.15
14.11
12.33
10.80
9.52
8.46
7.62
6.97
6.49
6.18
6.02
5.99
6.08
6.28
6.58
6.97
7.45
8.00
8.63
9.33
10.09
10.92
11.81
12.76
13.77
14.83
15.96
17.15
18.43
19.78
21.21
22.69
24.19
25.67
27.04
28.20
29.01
29.33
29.04
28.01
26.19
23.54
20.12
15.98
11.29
6.25
1.09
-3.94
-8.63
-12.77
-16.21
-18.85
-20.67
-21.67
-21.93
-21.53
-20.61
-19.27
-17.64
-15.79
-13.81
-11.72
-9.55
-7.34
-5.09
-2.83
-0.54
1.77
4.13
6.56
9.09
11.77
14.52
17.34
20.21
23.14
26.13
29.22
32.44
35.86
39.58
43.47
47.50
51.62
55.86
60.24
64.80
69.60
74.74
80.36
86.24
92.30
98.45
104.68
110.97
117.32
123.74
130.31
137.13
143.83
150.16
155.86
160.65
164.17
165.89
165.11
160.74
154.74
147.74
140.15
132.21
124.11
115.94
107.80
99.76
91.97
84.65
77.62
70.82
64.25
57.88
51.67
45.57
39.58
33.75
28.31
23.17
18.38
13.98
9.89
5.92
1.79
-2.72
-7.66
-12.84
-18.09
-23.12
-27.74
-32.01
-36.30
-41.13
-46.97
-54.00
-61.95
-70.31
-78.43
-85.88
-92.71
-99.52
-107.20
-116.56
-127.94
-141.03
-155.07
-169.08
-182.41
-194.90
-207.02
-219.65
-233.92
-251.07
-272.13
-297.35
-325.51
-353.51
-376.61
-389.73
-389.18
-374.05
-346.74
-311.89
-274.63
-238.86
-206.44
-177.51
-151.51
-128.04
-107.22
-89.32
-74.30
-61.54
-50.01
-38.74
-27.27
-15.70
-4.74
4.82
12.41
17.94
21.83
24.82
27.68
30.87
34.34
37.62
40.01
41.01
40.44
38.61
36.08
33.43
31.02
28.84
26.58
23.83
20.28
15.86
10.74
5.21
-0.43
-5.95
-11.10
-15.54
-18.71
-19.94
-18.66
-14.64
-8.17
0.01
8.86
17.45
25.16
31.72
37.17
41.63
45.21
47.91
49.71
50.63
50.78
50.31
49.45
48.38
47.25
46.14
45.10
44.12
43.17
42.19
41.06
39.68
38.00
36.02
33.81
31.45
28.98
26.39
23.62
20.64
17.46
14.11
10.63
7.05
3.42
-0.25
-3.94
-7.65
-11.45
-15.54
-20.17
-25.45
-31.13
-36.52
-40.55
-42.18
-40.71
-36.12
-29.06
-20.57
-11.75
-3.36
4.24
11.03
17.11
22.51
27.10
30.66
33.08
34.37
34.77
34.61
34.21
33.77
33.29
32.71
31.93
31.03
30.14
29.45
29.02
28.72
28.23
27.20
25.47
23.13
20.42
17.63
14.90
12.16
9.19
5.80
1.95
-2.14
-6.15
-9.77
-12.87
-15.58
-18.22
-21.23
-24.90
-29.32
-34.28
-39.22
-43.41
-46.02
-46.34
-43.92
-38.78
-31.31
-22.30
-12.72
-3.44
4.91
12.05
17.93
22.61
26.12
28.47
29.70
29.95
29.54
28.91
28.46
28.42
28.75
29.22
29.47
29.24
28.44
27.20
25.77
24.44
23.39
22.61
21.96
21.14
19.83
17.79
14.92
11.31
7.23
3.04
-0.93
-4.46
-7.55
-10.39
-13.26
-16.49
-20.25
-24.57
-29.22
-33.72
-37.36
-39.34
-38.99
-35.95
-30.30
-22.59
-13.64
-4.41
4.34
12.06
18.48
23.57
27.41
30.16
31.98
33.06
33.52
33.45
32.90
31.97
30.84
29.77
29.03
28.77
28.95
29.32
29.52
29.18
28.12
26.37
24.20
21.91
19.72
17.66
15.55
13.17
10.31
6.89
2.96
-1.31
-5.71
-10.06
-14.23
-18.09
-21.64
-24.96
-28.36
-32.22
-36.92
-42.45
-48.33
-53.55
-56.85
-57.09
-53.72
-46.93
-37.58
-26.94
-16.21
-6.27
2.46
9.92
16.25
21.58
25.94
29.26
31.52
32.76
33.20
33.14
32.90
32.68
32.52
32.39
32.24
32.03
31.80
31.56
31.24
30.72
29.81
28.42
26.54
24.24
21.68
18.96
16.15
13.20
10.08
6.69
2.99
-0.97
-5.08
-9.13
-12.90
-16.27
-19.30
-22.21
-25.33
-29.03
-33.51
-38.82
-44.71
-50.62
-55.69
-58.93
-59.39
-56.54
-50.51
-41.99
-32.13
-22.06
-12.65
-4.27
3.00
9.32
14.78
19.46
23.38
26.54
28.90
30.41
31.00
30.77
29.92
28.80
27.72
26.88
26.25
25.64
24.86
23.80
22.51
21.16
19.88
18.71
17.56
16.30
14.76
12.84
10.51
7.78
4.72
1.43
-1.97
-5.39
-8.77
-12.10
-15.41
-18.85
-22.59
-26.85
-31.77
-37.29
-43.05
-48.28
-52.00
-53.21
-51.30
-46.19
-38.49
-29.22
-19.54
-10.36
-2.15
4.95
11.07
16.34
20.78
24.32
26.89
28.47
29.16
29.16
28.67
27.86
26.85
25.77
24.70
23.71
22.88
22.20
21.67
21.21
20.70
19.97
18.76
16.86
14.23
11.04
7.64
4.43
1.66
-0.65
-2.73
-4.86
-7.25
-10.03
-13.24
-17.01
-21.52
-26.90
-32.96
-39.14
-44.43
-47.71
-48.06
-45.05
-38.91
-30.43
-20.66
-10.68
-1.30
7.01
14.13
20.06
24.82
28.46
30.96
32.42
33.01
33.01
32.67
32.21
31.68
31.10
30.46
29.78
29.13
28.48
27.75
26.76
25.35
23.39
20.94
18.14
15.18
12.25
9.42
6.63
3.70
0.43
-3.31
-7.46
-11.80
-15.98
-19.70
-22.89
-25.66
-28.42
-31.65
-35.74
-40.85
-46.68
-52.49
-57.25
-59.82
-59.33
-55.46
-48.54
-39.41
-29.17
-18.81
-9.01
-0.11
7.79
14.67
20.48
25.15
28.62
30.92
32.19
32.70
32.78
32.74
32.74
32.85
33.05
33.29
33.53
33.75
33.89
33.79
33.21
31.98
30.03
27.49
24.60
21.56
18.44
15.20
11.68
7.75
3.35
-1.42
-6.40
-11.40
-16.21
-20.67
-24.70
-28.40
-32.02
-35.95
-40.56
-46.05
-52.20
-58.28
-63.18
-65.62
-64.63
-59.83
-51.64
-41.08
-29.49
-18.03
-7.46
1.90
10.02
16.92
22.60
26.97
30.04
31.90
32.81
33.06
32.89
32.53
32.09
31.63
31.19
30.77
30.35
29.87
29.31
28.65
27.88
26.94
25.74
24.12
21.86
18.89
15.23
11.09
6.84
2.88
-0.54
-3.47
-6.15
-9.04
-12.49
-16.69
-21.62
-27.15
-33.09
-39.20
-45.01
-49.78
-52.51
-52.29
-48.58
-41.59
-32.13
-21.44
-10.70
-0.70
8.15
15.80
22.27
27.52
31.49
34.09
35.39
35.62
35.15
34.33
33.51
32.84
32.38
32.02
31.63
31.07
30.31
29.38
28.35
27.24
26.01
24.57
22.82
20.72
18.27
15.52
12.47
9.08
5.29
1.10
-3.38
-7.92
-12.22
-16.08
-19.49
-22.74
-26.33
-30.79
-36.47
-43.24
-50.41
-56.81
-61.11
-62.20
-59.52
-53.23
-44.12
-33.31
-21.94
-10.94
-0.88
7.91
15.35
21.48
26.41
30.27
33.18
35.23
36.47
36.96
36.82
36.27
35.65
35.27
35.32
35.79
36.49
37.13
37.48
37.44
37.00
36.20
35.00
33.29
30.95
27.97
24.55
20.98
17.54
14.30
11.12
7.68
3.73
-0.82
-5.78
-10.81
-15.58
-19.90
-23.76
-27.35
-30.93
-34.78
-39.14
-44.12
-49.62
-55.32
-60.52
-64.31
-65.75
-64.13
-59.22
-51.43
-41.64
-30.97
-20.44
-10.70
-2.03
5.61
12.30
18.04
22.77
26.40
28.96
30.61
31.62
32.21
32.49
32.49
32.22
31.72
31.10
30.53
30.18
30.10
30.23
30.38
30.27
29.63
28.32
26.31
23.76
20.89
17.89
14.84
11.66
8.25
4.52
0.49
-3.74
-8.02
-12.28
-16.43
-20.44
-24.24
-27.84
-31.31
-34.90
-38.94
-43.63
-48.91
-54.24
-58.66
-61.04
-60.48
-56.58
-49.67
-40.62
-30.54
-20.47
-11.11
-2.71
4.68
11.13
16.63
21.12
24.50
26.77
28.03
28.46
28.31
27.82
27.27
26.86
26.69
26.74
26.85
26.76
26.27
25.31
23.94
22.32
20.55
18.62
16.45
13.97
11.16
8.13
4.98
1.78
-1.52
-4.99
-8.61
-12.29
-15.80
-19.01
-21.96
-24.95
-28.36
-32.47
-37.13
-41.78
-45.51
-47.37
-46.63
-43.00
-36.68
-28.23
-18.50
-8.35
1.38
10.04
17.21
22.73
26.72
29.45
31.24
32.38
33.04
33.26
33.14
32.79
32.37
32.02
31.79
31.60
31.30
30.77
29.93
28.79
27.40
25.81
23.97
21.84
19.36
16.58
13.61
10.51
7.28
3.86
0.13
-3.91
-8.18
-12.47
-16.56
-20.37
-23.98
-27.64
-31.67
-36.35
-41.68
-47.39
-52.81
-57.02
-59.07
-58.22
-54.21
-47.32
-38.31
-28.16
-17.87
-8.15
0.58
8.21
14.78
20.37
24.99
28.69
31.54
33.70
35.34
36.60
37.52
38.03
38.00
37.38
36.25
34.88
33.60
32.65
32.11
31.80
31.41
30.57
29.04
26.71
23.67
20.15
16.39
12.61
8.92
5.30
1.63
-2.17
-6.10
-10.07
-13.95
-17.63
-21.13
-24.63
-28.37
-32.60
-37.48
-43.02
-49.01
-54.87
-59.79
-62.74
-62.82
-59.59
-53.23
-44.52
-34.52
-24.25
-14.39
-5.18
3.33
11.11
17.99
23.72
28.09
31.07
32.84
33.75
34.12
34.21
34.12
33.86
33.41
32.77
31.99
31.15
30.34
29.59
28.90
28.13
27.14
25.71
23.71
21.10
18.02
14.70
11.40
8.27
5.30
2.34
-0.84
-4.33
-8.08
-11.90
-15.50
-18.68
-21.42
-23.86
-26.33
-29.19
-32.76
-37.21
-42.49
-48.23
-53.74
-58.08
-60.20
-59.29
-55.02
-47.68
-38.16
-27.67
-17.38
-8.08
-0.05
6.81
12.74
17.86
22.10
25.30
27.38
28.46
28.84
28.88
28.79
28.63
28.30
27.73
26.98
26.24
25.72
25.48
25.44
25.36
24.98
24.13
22.79
21.08
19.11
17.00
14.77
12.36
9.71
6.74
3.36
-0.42
-4.51
-8.75
-13.00
-17.20
-21.40
-25.77
-30.45
-35.44
-40.45
-44.88
-47.95
-48.89
-47.19
-42.72
-35.79
-27.06
-17.39
-7.67
1.37
9.27
15.80
20.93
24.77
27.48
29.23
30.24
30.77
31.01
31.09
31.03
30.69
29.97
28.86
27.53
26.28
25.37
24.86
24.58
24.19
23.30
21.70
19.39
16.55
13.48
10.45
7.59
4.90
2.27
-0.44
-3.35
-6.50
-9.87
-13.38
-16.92
-20.41
-23.87
-27.42
-31.28
-35.73
-40.86
-46.52
-52.07
-56.58
-58.94
-58.34
-54.50
-47.79
-39.12
-29.57
-20.05
-11.12
-2.94
4.47
11.15
17.02
21.94
25.82
28.63
30.53
31.72
32.43
32.81
32.97
32.94
32.75
32.42
32.02
31.62
31.32
31.14
30.94
30.48
29.40
27.45
24.61
21.12
17.38
13.83
10.75
8.11
5.66
3.06
0.02
-3.51
-7.36
-11.20
-14.75
-17.82
-20.52
-23.13
-26.04
-29.63
-34.12
-39.48
-45.40
-51.22
-56.00
-58.71
-58.51
-55.04
-48.64
-40.22
-30.96
-21.91
-13.67
-6.32
0.30
6.40
11.93
16.66
20.28
22.66
23.96
24.54
24.84
25.09
25.31
25.37
25.09
24.49
23.78
23.24
23.03
23.08
23.09
22.65
21.48
19.56
17.13
14.56
12.15
10.00
7.98
5.82
3.29
0.25
-3.19
-6.79
-10.26
-13.40
-16.23
-18.97
-21.98
-25.58
-29.85
-34.57
-39.07
-42.47
-43.84
-42.51
-38.36
-31.84
-23.82
-15.28
-7.07
0.29
6.58
11.75
15.79
18.67
20.37
20.95
20.66
19.85
18.97
18.38
18.27
18.61
19.19
19.72
19.95
19.80
19.35
18.79
18.27
17.80
17.20
16.27
14.83
12.86
10.43
7.72
4.88
2.03
-0.75
-3.45
-6.10
-8.75
-11.44
-14.22
-17.24
-20.64
-24.62
-29.31
-34.60
-40.05
-44.88
-48.10
-48.86
-46.69
-41.71
-34.59
-26.23
-17.55
-9.20
-1.56
5.24
11.14
16.07
20.03
23.03
25.21
26.73
27.71
28.22
28.24
27.79
26.96
25.98
25.11
24.58
24.49
24.83
25.42
26.07
26.52
26.53
25.88
24.46
22.29
19.56
16.59
13.65
10.89
8.29
5.61
2.66
-0.67
-4.33
-8.12
-11.84
-15.36
-18.68
-21.95
-25.42
-29.35
-33.97
-39.22
-44.70
-49.63
-53.00
-53.89
-51.80
-46.83
-39.61
-31.15
-22.42
-14.16
-6.77
-0.30
5.33
10.22
14.38
17.73
20.13
21.54
22.07
21.99
21.62
21.24
20.93
20.68
20.42
20.20
20.17
20.47
21.08
21.75
22.04
21.53
20.03
17.70
14.97
12.34
10.17
8.55
7.27
5.94
4.22
1.90
-0.97
-4.10
-7.22
-10.11
-12.82
-15.55
-18.61
-22.26
-26.61
-31.58
-36.87
-42.04
-46.48
-49.45
-50.28
-48.50
-44.12
-37.62
-29.86
-21.80
-14.16
-7.31
-1.30
3.98
8.63
12.61
15.79
18.06
19.44
20.07
20.18
20.03
19.82
19.71
19.78
20.05
20.43
20.79
21.02
21.03
20.80
20.34
19.66
18.72
17.43
15.72
13.59
11.13
8.50
5.85
3.24
0.63
-2.06
-4.90
-7.90
-11.04
-14.37
-17.99
-22.05
-26.57
-31.29
-35.55
-38.45
-39.11
-37.05
-32.34
-25.62
-17.80
-9.83
-2.38
4.22
9.90
14.72
18.76
22.01
24.40
25.87
26.43
26.23
25.51
24.58
23.74
23.14
22.82
22.63
22.43
22.03
21.41
20.58
19.62
18.56
17.39
16.05
14.50
12.74
10.81
8.74
6.53
4.08
1.29
-1.89
-5.39
-9.05
-12.66
-16.10
-19.39
-22.66
-26.10
-29.87
-34.01
-38.37
-42.59
-46.06
-48.10
-48.06
-45.56
-40.67
-33.87
-25.93
-17.69
-9.85
-2.79
3.33
8.57
13.05
16.90
20.16
22.80
24.75
25.99
26.59
26.65
26.41
26.06
25.78
25.62
25.56
25.56
25.54
25.39
24.97
24.15
22.79
20.88
18.55
16.00
13.48
11.10
8.88
6.65
4.27
1.58
-1.41
-4.55
-7.61
-10.41
-12.93
-15.39
-18.18
-21.74
-26.39
-32.11
-38.42
-44.44
-49.09
-51.36
-50.68
-47.06
-41.07
-33.64
-25.72
-18.06
-11.00
-4.65
1.05
6.10
10.44
13.98
16.72
18.79
20.35
21.54
22.37
22.82
22.87
22.63
22.31
22.20
22.43
22.94
23.46
23.67
23.35
22.50
21.29
19.94
18.55
17.11
15.48
13.52
11.13
8.33
5.17
1.75
-1.82
-5.38
-8.75
-11.80
-14.54
-17.20
-20.17
-23.89
-28.57
-34.02
-39.65
-44.53
-47.67
-48.30
-46.06
-41.14
-34.18
-26.11
-17.86
-10.10
-3.20
2.81
8.11
12.87
17.14
20.79
23.62
25.50
26.42
26.59
26.28
25.77
25.20
24.55
23.79
22.88
21.89
20.98
20.27
19.79
19.40
18.81
17.77
16.10
13.82
11.09
8.15
5.19
2.31
-0.50
-3.28
-6.05
-8.83
-11.59
-14.36
-17.25
-20.41
-23.93
-27.71
-31.37
-34.25
-35.58
-34.78
-31.63
-26.36
-19.59
-12.11
-4.63
2.38
8.72
14.41
19.47
23.85
27.43
30.07
31.71
32.45
32.47
32.04
31.32
30.34
29.06
27.45
25.62
23.78
22.20
21.05
20.28
19.68
18.93
17.81
16.28
14.46
12.60
10.87
9.34
7.87
6.25
4.24
1.73
-1.24
-4.54
-7.96
-11.36
-14.62
-17.77
-20.88
-24.09
-27.60
-31.60
-36.11
-40.90
-45.43
-48.87
-50.36
-49.24
-45.37
-39.15
-31.49
-23.37
-15.64
-8.71
-2.64
2.79
7.79
12.44
16.60
20.11
22.81
24.70
25.89
26.55
26.82
26.78
26.48
25.98
25.37
24.82
24.46
24.37
24.53
24.84
25.10
25.09
24.59
23.48
21.73
19.48
16.95
14.39
12.04
9.97
8.07
6.08
3.72
0.82
-2.54
-6.07
-9.47
-12.48
-15.12
-17.60
-20.32
-23.64
-27.85
-32.97
-38.81
-44.82
-50.24
-54.14
-55.71
-54.44
-50.36
-43.98
-36.13
-27.73
-19.52
-11.94
-5.17
0.79
5.98
10.41
14.00
16.71
18.54
19.59
20.07
20.21
20.21
20.19
20.15
20.08
19.97
19.87
19.84
19.93
20.13
20.31
20.25
19.74
18.59
16.75
14.32
11.57
8.84
6.41
4.38
2.59
0.74
-1.46
-4.10
-7.02
-9.86
-12.26
-14.16
-15.76
-17.54
-19.97
-23.32
-27.45
-31.86
-35.76
-38.32
-38.87
-37.09
-33.07
-27.28
-20.41
-13.20
-6.25
0.07
5.59
10.28
14.16
17.27
19.62
21.23
22.18
22.61
22.69
22.60
22.51
22.53
22.72
23.07
23.52
23.92
24.16
24.10
23.64
22.73
21.41
19.71
17.73
15.51
13.08
10.42
7.50
4.31
0.94
-2.41
-5.52
-8.19
-10.35
-12.15
-13.87
-15.83
-18.26
-21.23
-24.68
-28.41
-32.06
-35.13
-37.02
-37.12
-35.06
-30.87
-25.02
-18.26
-11.38
-4.93
0.87
6.06
10.73
14.91
18.54
21.50
23.72
25.22
26.08
26.40
26.30
25.90
25.31
24.64
23.95
23.25
22.50
21.69
20.82
19.85
18.79
17.58
16.15
14.47
12.60
10.64
8.68
6.76
4.80
2.69
0.33
-2.31
-5.13
-8.02
-10.82
-13.48
-15.99
-18.39
-20.78
-23.26
-26.01
-29.20
-32.98
-37.28
-41.77
-45.79
-48.46
-48.93
-46.76
-42.00
-35.29
-27.52
-19.61
-12.19
-5.54
0.33
5.53
10.13
14.13
17.47
20.10
22.01
23.24
23.86
24.02
23.90
23.70
23.61
23.70
23.95
24.27
24.51
24.54
24.24
23.54
22.38
20.78
18.85
16.67
14.38
12.07
9.75
7.39
4.95
2.41
-0.27
-3.14
-6.28
-9.70
-13.30
-16.86
-20.07
-22.72
-24.80
-26.55
-28.43
-30.95
-34.41
-38.74
-43.46
-47.70
-50.46
-50.93
-48.72
-43.97
-37.29
-29.59
-21.74
-14.40
-7.89
-2.24
2.64
6.85
10.39
13.24
15.36
16.85
17.89
18.70
19.45
20.15
20.72
21.05
21.10
20.96
20.81
20.72
20.65
20.39
19.74
18.59
17.05
15.34
13.71
12.23
10.80
9.20
7.26
4.91
2.26
-0.53
-3.34
-6.11
-8.86
-11.66
-14.59
-17.76
-21.30
-25.29
-29.58
-33.75
-37.11
-38.87
-38.43
-35.59
-30.60
-24.13
-16.99
-9.92
-3.44
2.25
7.12
11.32
14.93
18.03
20.59
22.49
23.64
24.07
23.92
23.45
22.98
22.75
22.87
23.31
23.88
24.36
24.52
24.24
23.49
22.37
21.02
19.57
18.07
16.45
14.57
12.31
9.63
6.59
3.33
-0.00
-3.28
-6.42
-9.40
-12.17
-14.77
-17.33
-20.10
-23.40
-27.48
-32.33
-37.52
-42.25
-45.54
-46.54
-44.83
-40.54
-34.32
-27.02
-19.46
-12.24
-5.65
0.26
5.53
10.25
14.44
18.08
21.06
23.25
24.57
25.03
24.80
24.16
23.46
23.01
22.96
23.30
23.89
24.50
24.84
24.74
24.09
22.94
21.39
19.60
17.72
15.83
13.95
12.06
10.07
7.84
5.23
2.15
-1.38
-5.17
-8.95
-12.47
-15.63
-18.53
-21.42
-24.64
-28.45
-32.87
-37.66
-42.33
-46.18
-48.46
-48.62
-46.42
-42.01
-35.91
-28.85
-21.48
-14.30
-7.56
-1.35
4.23
9.10
13.10
16.13
18.20
19.41
19.99
20.20
20.24
20.26
20.31
20.39
20.50
20.66
20.83
20.92
20.78
20.21
19.06
17.34
15.19
12.83
10.45
8.12
5.82
3.44
0.89
-1.85
-4.79
-7.89
-11.09
-14.30
-17.41
-20.35
-23.16
-26.02
-29.19
-32.96
-37.42
-42.28
-46.82
-50.10
-51.15
-49.40
-44.81
-37.92
-29.66
-21.03
-12.77
-5.26
1.43
7.39
12.65
17.09
20.52
22.78
23.87
23.99
23.54
22.90
22.35
22.02
21.86
21.74
21.52
21.15
20.64
20.05
19.44
18.82
18.16
17.35
16.25
14.79
12.89
10.60
8.00
5.21
2.35
-0.50
-3.31
-6.08
-8.88
-11.85
-15.20
-19.13
-23.70
-28.65
-33.39
-37.07
-38.73
-37.72
-33.82
-27.42
-19.33
-10.51
-1.86
6.03
12.84
18.52
23.06
26.56
29.07
30.68
31.49
31.67
31.39
30.87
30.29
29.72
29.21
28.74
28.22
27.64
26.93
26.07
25.00
23.67
22.07
20.24
18.25
16.14
13.96
11.60
8.94
5.82
2.29
-1.51
-5.31
-8.90
-12.24
-15.51
-19.02
-23.05
-27.79
-33.17
-38.97
-44.74
-49.87
-53.70
-55.46
-54.58
-50.80
-44.37
-36.00
-26.67
-17.37
-8.82
-1.40
4.83
10.00
14.29
17.86
20.80
23.14
24.89
26.04
26.62
26.79
26.75
26.74
26.93
27.34
27.86
28.31
28.52
28.33
27.72
26.68
25.26
23.50
21.42
19.02
16.30
13.27
9.95
6.42
2.75
-0.94
-4.55
-7.98
-11.27
-14.47
-17.76
-21.36
-25.48
-30.33
-35.94
-42.07
-48.10
-53.05
-55.87
-55.71
-52.26
-45.90
-37.55
-28.38
-19.37
-11.13
-3.83
2.59
8.20
12.97
16.78
19.58
21.43
22.48
22.96
23.03
22.84
22.48
22.04
21.65
21.42
21.43
21.67
21.99
22.17
21.95
21.16
19.76
17.79
15.45
12.92
10.31
7.61
4.72
1.55
-1.91
-5.53
-9.15
-12.59
-15.77
-18.74
-21.65
-24.76
-28.32
-32.50
-37.26
-42.23
-46.71
-49.74
-50.37
-47.99
-42.55
-34.65
-25.36
-15.88
-7.17
0.26
6.34
11.21
15.10
18.10
20.23
21.53
22.04
21.97
21.56
21.06
20.62
20.31
20.05
19.74
19.32
18.78
18.25
17.88
17.76
17.82
17.81
17.29
15.91
13.45
10.00
5.88
1.51
-2.67
-6.43
-9.69
-12.53
-15.19
-17.96
-21.10
-24.80
-28.99
-33.30
-37.05
-39.35
-39.40
-36.73
-31.42
-24.09
-15.70
-7.22
0.64
7.54
13.42
18.31
22.18
24.91
26.40
26.73
26.25
25.43
24.72
24.34
24.24
24.16
23.83
23.11
22.06
20.90
19.85
18.99
18.20
17.26
15.86
13.80
11.08
7.84
4.42
1.11
-1.91
-4.65
-7.33
-10.31
-13.91
-18.29
-23.40
-28.88
-34.11
-38.30
-40.64
-40.47
-37.46
-31.75
-23.93
-14.94
-5.76
2.75
10.13
16.28
21.32
25.43
28.72
31.12
32.56
32.99
32.58
31.65
30.58
29.67
29.01
28.50
27.95
27.16
26.08
24.76
23.25
21.61
19.79
17.73
15.41
12.80
9.95
6.87
3.61
0.21
-3.20
-6.50
-9.62
-12.62
-15.70
-19.17
-23.30
-28.21
-33.78
-39.59
-44.93
-48.99
-50.96
-50.32
-46.93
-41.16
-33.69
-25.32
-16.80
-8.56
-0.82
6.39
13.08
19.17
24.49
28.81
31.95
33.86
34.72
34.81
34.49
34.05
33.62
33.23
32.83
32.34
31.71
30.86
29.75
28.33
26.61
24.65
22.54
20.27
17.73
14.72
11.13
6.96
2.41
-2.22
-6.72
-10.99
-15.09
-19.12
-23.13
-27.14
-31.15
-35.28
-39.63
-44.19
-48.60
-52.10
-53.72
-52.62
-48.43
-41.46
-32.54
-22.73
-12.98
-3.83
4.50
12.05
18.89
24.94
30.04
33.96
36.55
37.81
37.91
37.17
35.94
34.57
33.27
32.18
31.33
30.72
30.31
30.03
29.77
29.29
28.37
26.81
24.59
21.89
19.01
16.19
13.55
11.02
8.34
5.26
1.62
-2.59
-7.22
-12.03
-16.74
-21.09
-24.96
-28.38
-31.54
-34.85
-38.68
-43.28
-48.54
-53.89
-58.43
-61.10
-60.99
-57.61
-51.09
-42.17
-31.95
-21.62
-12.09
-3.82
3.16
9.09
14.17
18.50
22.00
24.54
26.14
26.95
27.23
27.24
27.18
27.10
26.99
26.89
26.78
26.69
26.60
26.45
26.13
25.58
24.69
23.37
21.57
19.22
16.33
13.00
9.39
5.68
2.08
-1.32
-4.54
-7.71
-11.02
-14.64
-18.68
-23.19
-28.14
-33.49
-39.08
-44.55
-49.31
-52.56
-53.52
-51.68
-47.08
-40.25
-32.08
-23.55
-15.38
-7.99
-1.51
4.02
8.63
12.31
15.08
17.05
18.36
19.22
19.86
20.47
21.20
22.11
23.14
24.11
24.78
24.97
24.60
23.76
22.64
21.45
20.26
19.04
17.60
15.76
13.41
10.55
7.34
3.97
0.60
-2.72
-6.06
-9.61
-13.59
-18.20
-23.56
-29.59
-35.97
-42.12
-47.19
-50.15
-50.15
-46.72
-40.03
-30.90
-20.56
-10.29
-1.05
6.73
13.09
18.31
22.70
26.33
29.07
30.74
31.24
30.71
29.55
28.26
27.23
26.66
26.49
26.49
26.45
26.29
26.06
25.87
25.72
25.47
24.79
23.34
20.91
17.54
13.51
9.24
5.13
1.40
-1.93
-5.05
-8.23
-11.69
-15.61
-20.08
-25.12
-30.67
-36.52
-42.21
-46.99
-49.99
-50.44
-48.00
-42.89
-35.86
-27.81
-19.64
-11.89
-4.80
1.55
7.09
11.72
15.31
17.84
19.43
20.29
20.71
20.86
20.87
20.83
20.84
20.98
21.26
21.56
21.68
21.41
20.65
19.50
18.22
17.01
15.91
14.74
13.16
10.89
7.87
4.29
0.48
-3.20
-6.58
-9.63
-12.54
-15.50
-18.74
-22.44
-26.74
-31.57
-36.65
-41.39
-44.95
-46.50
-45.38
-41.43
-35.03
-27.04
-18.49
-10.34
-3.19
2.72
7.46
11.24
14.24
16.56
18.15
19.00
19.10
18.53
17.49
16.26
15.14
14.34
13.98
13.98
14.18
14.37
14.37
14.11
13.57
12.68
11.27
9.14
6.12
2.28
-2.00
-6.22
-9.90
-12.88
-15.38
-17.86
-20.80
-24.47
-28.82
-33.54
-38.15
-42.12
-44.87
-45.85
-44.63
-40.99
-35.08
-27.46
-18.94
-10.38
-2.47
4.38
9.95
14.25
17.33
19.32
20.38
20.70
20.51
20.02
19.42
18.86
18.42
18.15
18.08
18.16
18.34
18.59
18.87
19.09
19.14
18.80
17.86
16.12
13.60
10.49
7.14
3.94
1.18
-1.09
-3.07
-5.19
-7.92
-11.55
-16.07
-21.03
-25.62
-28.93
-30.13
-28.74
-24.74
-18.53
-10.83
-2.46
5.75
13.16
19.34
24.15
27.72
30.29
32.11
33.29
33.86
33.86
33.38
32.63
31.79
30.97
30.08
28.97
27.56
25.91
24.26
22.80
21.54
20.29
18.66
16.30
13.07
9.02
4.44
-0.34
-5.02
-9.38
-13.32
-16.85
-20.14
-23.49
-27.24
-31.70
-36.92
-42.55
-47.82
-51.73
-53.35
-52.22
-48.52
-42.98
-36.55
-29.99
-23.76
-17.94
-12.52
-7.55
-3.25
0.15
2.56
4.15
5.24
6.17
7.14
8.15
9.16
10.10
11.01
11.92
12.80
13.61
14.26
14.77
15.19
15.60
15.97
16.15
15.93
15.09
13.58
11.56
9.27
6.97
4.78
2.62
0.27
-2.49
-5.79
-9.59
-13.64
-17.51
-20.66
-22.50
-22.59
-20.78
-17.21
-12.39
-6.97
-1.62
3.19
7.21
10.49
13.13
15.23
16.80
17.76
18.03
17.62
16.70
15.53
14.36
13.36
12.56
11.90
11.24
10.51
9.77
9.07
8.47
7.91
7.20
6.11
4.51
2.41
0.02
-2.33
-4.39
-6.11
-7.68
-9.52
-12.04
-15.50
-19.85
-24.63
-29.13
-32.44
-33.80
-32.73
-29.20
-23.59
-16.62
-9.15
-1.96
4.37
9.57
13.63
16.73
18.99
20.47
21.13
20.90
19.79
18.04
16.07
14.36
13.27
12.94
13.18
13.66
14.02
14.04
13.68
12.97
11.94
10.49
8.53
6.03
3.15
0.13
-2.76
-5.36
-7.70
-10.01
-12.57
-15.62
-19.37
-23.76
-28.52
-33.07
-36.58
-38.23
-37.44
-34.12
-28.74
-22.11
-15.09
-8.33
-2.22
3.10
7.55
11.01
13.34
14.48
14.50
13.67
12.38
11.07
10.07
9.57
9.57
9.91
10.35
10.69
10.87
10.92
10.92
10.87
10.59
9.86
8.49
6.49
4.08
1.55
-0.79
-2.80
-4.49
-6.03
-7.63
-9.52
-11.98
-15.21
-19.31
-24.07
-29.01
-33.33
-36.22
-37.03
-35.56
-31.97
-26.79
-20.69
-14.27
-8.02
-2.25
2.84
7.16
10.66
13.27
14.99
15.87
16.05
15.76
15.27
14.75
14.30
13.90
13.48
13.06
12.67
12.41
12.33
12.40
12.54
12.62
12.48
11.96
10.92
9.23
6.94
4.28
1.57
-0.89
-2.97
-4.81
-6.69
-8.94
-11.76
-15.17
-19.06
-23.20
-27.18
-30.45
-32.36
-32.32
-30.02
-25.67
-19.87
-13.46
-7.15
-1.38
3.70
8.04
11.57
14.14
15.62
16.06
15.72
15.05
14.47
14.23
14.36
14.69
15.00
15.09
14.82
14.19
13.31
12.30
11.34
10.48
9.61
8.52
6.97
4.84
2.28
-0.36
-2.72
-4.57
-5.97
-7.21
-8.72
-10.84
-13.75
-17.43
-21.67
-26.09
-30.10
-32.98
-34.05
-32.82
-29.25
-23.77
-17.14
-10.22
-3.73
1.91
6.53
10.10
12.66
14.23
14.91
14.94
14.58
14.12
13.82
13.78
13.99
14.36
14.72
14.92
14.86
14.49
13.86
13.08
12.27
11.48
10.63
9.54
8.04
6.05
3.67
1.17
-1.15
-3.13
-4.81
-6.48
-8.48
-11.12
-14.51
-18.52
-22.75
-26.63
-29.50
-30.72
-29.86
-26.86
-22.07
-16.13
-9.85
-3.87
1.43
5.92
9.66
12.64
14.85
16.20
16.69
16.46
15.79
15.02
14.47
14.30
14.49
14.86
15.16
15.12
14.61
13.66
12.40
11.05
9.77
8.59
7.47
6.28
4.89
3.27
1.40
-0.61
-2.68
-4.70
-6.62
-8.46
-10.33
-12.41
-14.92
-18.08
-21.98
-26.49
-31.19
-35.35
-38.16
-38.92
-37.31
-33.50
-28.07
-21.83
-15.50
-9.55
-4.20
0.49
4.55
7.96
10.68
12.71
14.12
15.02
15.53
15.72
15.66
15.41
15.05
14.69
14.43
14.34
14.44
14.67
14.94
15.12
15.06
14.67
13.90
12.81
11.48
10.04
8.53
6.94
5.21
3.25
1.04
-1.35
-3.81
-6.29
-8.77
-11.35
-14.18
-17.42
-21.14
-25.22
-29.31
-32.79
-34.99
-35.25
-33.28
-29.24
-23.65
-17.29
-10.86
-4.86
0.47
5.06
8.86
11.82
13.87
15.05
15.47
15.39
15.04
14.61
14.17
13.71
13.20
12.69
12.23
11.90
11.76
11.73
11.72
11.55
11.10
10.29
9.11
7.61
5.82
3.77
1.47
-1.04
-3.74
-6.53
-9.32
-11.99
-14.49
-16.84
-19.20
-21.85
-25.04
-28.78
-32.76
-36.29
-38.49
-38.58
-36.11
-31.21
-24.47
-16.77
-9.03
-1.96
4.06
8.88
12.54
15.16
16.93
18.00
18.53
18.68
18.63
18.52
18.48
18.62
18.96
19.43
19.89
20.09
19.87
19.11
17.93
16.58
15.34
14.39
13.65
12.86
11.67
9.89
7.51
4.75
1.91
-0.80
-3.29
-5.63
-7.97
-10.52
-13.52
-17.12
-21.30
-25.71
-29.68
-32.35
-32.98
-31.20
-27.19
-21.53
-15.00
-8.29
-1.83
4.16
9.59
14.34
18.28
21.24
23.13
23.97
23.95
23.34
22.50
21.70
21.12
20.81
20.66
20.55
20.38
20.10
19.69
19.14
18.41
17.46
16.27
14.83
13.23
11.49
9.59
7.45
4.96
2.11
-1.06
-4.36
-7.57
-10.56
-13.28
-15.80
-18.35
-21.20
-24.61
-28.72
-33.37
-38.09
-42.11
-44.49
-44.45
-41.59
-36.08
-28.62
-20.16
-11.67
-3.85
2.90
8.50
12.96
16.39
18.86
20.57
21.73
22.58
23.26
23.77
23.97
23.76
23.12
22.26
21.48
21.01
20.91
21.03
21.05
20.69
19.79
18.40
16.68
14.83
12.97
11.11
9.19
7.11
4.84
2.37
-0.21
-2.83
-5.46
-8.08
-10.78
-13.63
-16.78
-20.35
-24.48
-29.22
-34.43
-39.74
-44.46
-47.77
-48.87
-47.28
-42.94
-36.28
-28.08
-19.28
-10.78
-3.31
2.77
7.38
10.71
13.08
14.83
16.19
17.26
18.00
18.36
18.35
18.12
17.84
17.70
17.76
17.96
18.19
18.27
18.08
17.54
16.63
15.35
13.73
11.85
9.80
7.67
5.47
3.14
0.57
-2.29
-5.42
-8.68
-11.87
-14.91
-17.84
-20.86
-24.21
-28.02
-32.22
-36.44
-40.10
-42.49
-42.95
-41.11
-36.94
-30.76
-23.20
-14.98
-6.81
0.76
7.33
12.72
16.87
19.85
21.80
22.85
23.14
22.80
22.00
20.97
20.01
19.40
19.28
19.61
20.14
20.57
20.68
20.44
19.97
19.45
18.87
18.10
16.81
14.74
11.82
8.21
4.30
0.47
-2.99
-6.02
-8.71
-11.27
-13.98
-17.07
-20.79
-25.25
-30.28
-35.38
-39.77
-42.45
-42.60
-39.80
-34.23
-26.60
-17.90
-9.17
-1.16
5.68
11.27
15.67
18.98
21.28
22.63
23.16
23.04
22.56
22.01
21.65
21.61
21.91
22.40
22.82
22.88
22.39
21.36
20.02
18.72
17.70
16.98
16.28
15.17
13.32
10.61
7.23
3.51
-0.25
-3.86
-7.31
-10.66
-14.00
-17.41
-20.97
-24.79
-29.01
-33.68
-38.55
-43.08
-46.43
-47.73
-46.30
-41.93
-34.95
-26.13
-16.45
-6.84
1.97
9.56
15.76
20.56
24.09
26.60
28.34
29.60
30.50
31.01
31.02
30.44
29.38
28.12
27.04
26.44
26.39
26.72
26.99
26.84
26.03
24.55
22.57
20.32
17.99
15.65
13.25
10.70
7.92
4.87
1.60
-1.83
-5.36
-8.97
-12.69
-16.59
-20.76
-25.36
-30.46
-36.06
-41.82
-47.12
-51.07
-52.74
-51.51
-47.26
-40.48
-32.02
-22.82
-13.61
-4.90
3.07
10.09
16.00
20.62
23.93
26.00
27.04
27.23
26.79
25.93
24.93
24.08
23.67
23.79
24.36
25.10
25.66
25.79
25.37
24.42
23.05
21.38
19.45
17.30
14.90
12.24
9.33
6.20
2.94
-0.39
-3.71
-6.99
-10.21
-13.40
-16.62
-20.00
-23.76
-28.10
-33.13
-38.61
-43.91
-48.05
-49.98
-48.90
-44.58
-37.42
-28.38
-18.60
-9.11
-0.57
6.74
12.84
17.84
21.82
24.78
26.71
27.63
27.70
27.19
26.42
25.71
25.23
25.05
25.16
25.49
25.93
26.36
26.61
26.53
25.95
24.82
23.11
20.92
18.42
15.79
13.20
10.76
8.48
6.28
3.97
1.35
-1.72
-5.25
-9.15
-13.25
-17.38
-21.54
-25.81
-30.36
-35.33
-40.65
-45.94
-50.45
-53.23
-53.37
-50.32
-44.11
-35.42
-25.40
-15.28
-6.04
1.80
8.16
13.20
17.13
20.05
22.02
23.03
23.19
22.66
21.69
20.56
19.49
18.70
18.32
18.40
18.82
19.38
19.83
19.96
19.66
18.93
17.76
16.15
14.10
11.57
8.62
5.35
1.94
-1.47
-4.77
-7.96
-11.10
-14.31
-17.75
-21.53
-25.80
-30.60
-35.82
-41.07
-45.64
-48.66
-49.28
-47.02
-41.89
-34.45
-25.61
-16.34
-7.38
0.81
8.07
14.36
19.59
23.60
26.23
27.39
27.17
25.88
24.00
22.07
20.54
19.67
19.43
19.60
19.85
19.90
19.69
19.27
18.76
18.19
17.51
16.52
15.06
13.00
10.36
7.28
3.93
0.48
-2.92
-6.21
-9.34
-12.41
-15.61
-19.23
-23.59
-28.81
-34.66
-40.46
-45.20
-47.80
-47.43
-43.83
-37.33
-28.74
-19.04
-9.19
0.14
8.45
15.44
20.96
24.98
27.58
28.98
29.46
29.29
28.77
28.07
27.37
26.76
26.26
25.87
25.52
25.15
24.64
23.99
23.13
22.06
20.68
18.93
16.74
14.11
11.07
7.72
4.20
0.63
-2.86
-6.22
-9.45
-12.61
-15.84
-19.31
-23.25
-27.85
-33.19
-39.13
-45.19
-50.62
-54.42
-55.66
-53.69
-48.37
-40.18
-30.01
-18.98
-8.12
1.82
10.45
17.62
23.37
27.79
30.94
32.92
33.80
33.75
32.96
31.77
30.48
29.36
28.56
28.03
27.65
27.25
26.73
26.01
25.12
24.01
22.63
20.87
18.65
15.98
12.92
9.56
5.99
2.25
-1.59
-5.45
-9.20
-12.75
-16.08
-19.30
-22.67
-26.53
-31.16
-36.70
-42.92
-49.21
-54.59
-57.90
-58.17
-54.91
-48.31
-39.24
-28.89
-18.43
-8.69
-0.03
7.56
14.19
19.89
24.58
28.10
30.36
31.43
31.59
31.18
30.57
29.99
29.50
29.06
28.55
27.86
26.94
25.75
24.26
22.48
20.39
18.03
15.49
12.81
10.06
7.18
4.10
0.75
-2.85
-6.60
-10.30
-13.82
-17.11
-20.36
-23.90
-28.07
-33.09
-38.85
-44.80
-50.00
-53.35
-53.87
-51.07
-45.08
-36.62
-26.78
-16.63
-7.05
1.49
8.78
14.76
19.40
22.62
24.41
24.90
24.45
23.56
22.75
22.33
22.33
22.55
22.68
22.50
21.92
21.02
19.93
18.81
17.80
16.95
16.23
15.50
14.54
13.06
10.85
7.90
4.42
0.80
-2.62
-5.68
-8.51
-11.41
-14.75
-18.77
-23.48
-28.70
-33.95
-38.55
-41.67
-42.50
-40.50
-35.59
-28.25
-19.43
-10.19
-1.43
6.36
13.03
18.59
23.05
26.31
28.27
29.00
28.82
28.21
27.67
27.50
27.77
28.30
28.84
29.19
29.21
28.88
28.19
27.20
25.96
24.54
22.99
21.25
19.21
16.76
13.85
10.52
6.92
3.15
-0.70
-4.64
-8.69
-12.74
-16.66
-20.31
-23.78
-27.37
-31.54
-36.54
-42.17
-47.64
-51.71
-53.14
-51.12
-45.61
-37.29
-27.33
-16.91
-6.93
2.09
10.00
16.78
22.41
26.82
29.92
31.75
32.50
32.53
32.24
31.94
31.77
31.68
31.56
31.34
31.02
30.69
30.35
29.92
29.20
27.92
25.95
23.33
20.24
17.02
13.91
11.02
8.34
5.68
2.87
-0.28
-3.81
-7.66
-11.69
-15.71
-19.59
-23.28
-26.87
-30.60
-34.74
-39.48
-44.82
-50.31
-55.18
-58.40
-59.02
-56.47
-50.77
-42.50
-32.61
-22.16
-12.01
-2.74
5.38
12.28
17.97
22.46
25.76
27.92
29.05
29.35
29.07
28.46
27.68
26.82
25.91
24.96
24.05
23.25
22.61
22.09
21.55
20.77
19.62
18.05
16.14
14.05
11.88
9.68
7.39
4.87
2.06
-1.10
-4.52
-8.07
-11.60
-14.99
-18.26
-21.45
-24.73
-28.29
-32.33
-36.87
-41.72
-46.35
-49.97
-51.68
-50.79
-47.00
-40.55
-32.08
-22.47
-12.60
-3.27
4.97
11.74
16.89
20.45
22.65
23.79
24.14
23.95
23.37
22.58
21.78
21.21
21.01
21.18
21.53
21.77
21.68
21.17
20.35
19.42
18.52
17.67
16.72
15.40
13.50
10.93
7.75
4.20
0.55
-2.96
-6.16
-8.99
-11.50
-13.80
-16.08
-18.63
-21.72
-25.52
-30.00
-34.76
-39.06
-42.02
-42.81
-40.91
-36.30
-29.42
-21.05
-12.13
-3.48
4.34
11.03
16.56
21.00
24.42
26.83
28.26
28.72
28.37
27.49
26.43
25.59
25.21
25.40
26.05
26.95
27.78
28.25
28.15
27.35
25.89
23.90
21.52
18.92
16.16
13.27
10.26
7.15
3.97
0.77
-2.45
-5.71
-9.08
-12.62
-16.29
-19.98
-23.60
-27.16
-30.78
-34.69
-39.02
-43.55
-47.69
-50.52
-51.07
-48.71
-43.41
-35.74
-26.67
-17.24
-8.27
-0.25
6.68
12.52
17.36
21.27
24.26
26.33
27.48
27.83
27.60
27.09
26.62
26.37
26.33
26.38
26.32
26.05
25.57
24.96
24.24
23.28
21.90
20.02
17.66
15.08
12.53
10.17
7.97
5.73
3.17
0.12
-3.42
-7.27
-11.18
-14.88
-18.26
-21.37
-24.46
-27.86
-31.92
-36.76
-42.07
-47.14
-50.93
-52.41
-50.91
-46.39
-39.45
-31.08
-22.37
-14.10
-6.70
-0.19
5.49
10.40
14.47
17.57
19.64
20.81
21.30
21.45
21.47
21.45
21.32
20.99
20.37
19.50
18.51
17.56
16.77
16.18
15.73
15.29
14.64
13.57
11.93
9.60
6.62
3.15
-0.61
-4.42
-8.06
-11.35
-14.24
-16.71
-18.90
-21.00
-23.23
-25.83
-28.97
-32.70
-36.87
-41.05
-44.54
-46.52
-46.24
-43.28
-37.75
-30.25
-21.74
-13.18
-5.30
1.54
7.25
11.91
15.62
18.38
20.22
21.18
21.36
20.95
20.19
19.32
18.56
18.00
17.65
17.45
17.30
17.13
16.90
16.59
16.15
15.49
14.49
13.06
11.15
8.76
6.00
3.03
0.09
-2.58
-4.80
-6.58
-8.13
-9.86
-12.20
-15.41
-19.54
-24.29
-29.15
-33.46
-36.52
-37.70
-36.57
-32.98
-27.15
-19.67
-11.33
-2.95
4.76
11.37
16.66
20.59
23.24
24.76
25.32
25.14
24.48
23.55
22.62
21.86
21.37
21.14
21.08
21.03
20.80
20.28
19.46
18.47
17.48
16.62
15.88
15.09
13.93
12.11
9.51
6.24
2.60
-1.10
-4.58
-7.79
-10.85
-13.93
-17.24
-20.88
-24.90
-29.29
-33.91
-38.47
-42.45
-45.13
-45.77
-43.86
-39.31
-32.53
-24.36
-15.76
-7.58
-0.32
5.81
10.87
14.97
18.20
20.62
22.31
23.35
23.86
23.90
23.46
22.57
21.36
20.09
19.12
18.70
18.89
19.47
20.08
20.32
19.96
18.95
17.39
15.40
13.12
10.66
8.08
5.44
2.78
0.10
-2.63
-5.47
-8.43
-11.49
-14.64
-17.87
-21.28
-25.06
-29.36
-34.23
-39.37
-44.18
-47.78
-49.24
-47.98
-43.92
-37.52
-29.66
-21.29
-13.18
-5.81
0.59
5.97
10.34
13.75
16.29
18.13
19.45
20.37
20.99
21.31
21.35
21.18
20.95
20.82
20.92
21.25
21.71
22.07
22.05
21.45
20.15
18.25
15.96
13.51
11.13
8.88
6.72
4.53
2.17
-0.45
-3.37
-6.51
-9.72
-12.81
-15.63
-18.13
-20.43
-22.78
-25.52
-28.91
-32.94
-37.29
-41.34
-44.29
-45.41
-44.22
-40.59
-34.79
-27.37
-19.07
-10.70
-2.92
3.74
9.03
12.96
15.71
17.54
18.69
19.27
19.36
19.01
18.38
17.71
17.25
17.19
17.52
18.08
18.62
18.95
19.02
18.88
18.59
18.20
17.64
16.79
15.55
13.96
12.10
10.11
8.04
5.84
3.46
0.85
-1.93
-4.73
-7.43
-9.97
-12.44
-15.02
-17.97
-21.44
-25.47
-29.80
-33.92
-37.12
-38.63
-37.83
-34.48
-28.80
-21.43
-13.22
-5.06
2.36
8.61
13.51
17.11
19.58
21.12
21.95
22.24
22.15
21.86
21.53
21.38
21.50
21.96
22.64
23.35
23.91
24.22
24.34
24.36
24.40
24.40
24.15
23.37
21.88
19.69
16.98
14.05
11.13
8.33
5.61
2.85
-0.02
-3.05
-6.18
-9.34
-12.45
-15.42
-18.20
-20.79
-23.35
-26.21
-29.73
-34.10
-39.16
-44.27
-48.49
-50.81
-50.52
-47.39
-41.77
-34.39
-26.14
-17.83
-10.02
-3.02
3.07
8.28
12.68
16.35
19.30
21.52
23.04
23.90
24.25
24.26
24.18
24.18
24.35
24.64
24.88
24.89
24.58
23.95
23.16
22.40
21.77
21.23
20.57
19.51
17.84
15.51
12.68
9.59
6.49
3.51
0.60
-2.38
-5.57
-8.96
-12.44
-15.75
-18.68
-21.09
-23.05
-24.81
-26.70
-29.07
-32.18
-36.09
-40.58
-45.15
-49.05
-51.41
-51.50
-48.90
-43.68
-36.34
-27.70
-18.69
-10.14
-2.64
3.54
8.43
12.26
15.30
17.75
19.64
20.87
21.29
20.90
19.88
18.59
17.37
16.44
15.84
15.49
15.28
15.16
15.16
15.30
15.50
15.57
15.32
14.62
13.49
12.08
10.54
8.96
7.26
5.30
2.94
0.14
-3.01
-6.30
-9.50
-12.46
-15.11
-17.56
-20.02
-22.73
-25.86
-29.33
-32.80
-35.64
-37.14
-36.68
-33.98
-29.20
-22.84
-15.60
-8.18
-1.15
5.15
10.55
14.95
18.31
20.60
21.86
22.25
22.03
21.53
21.04
20.76
20.74
20.91
21.19
21.54
21.94
22.35
22.62
22.60
22.13
21.14
19.72
18.03
16.22
14.41
12.61
10.77
8.81
6.65
4.21
1.40
-1.81
-5.38
-9.11
-12.73
-15.99
-18.79
-21.27
-23.81
-26.93
-30.93
-35.71
-40.64
-44.70
-46.75
-46.00
-42.25
-35.99
-28.17
-19.85
-11.86
-4.63
1.73
7.24
11.91
15.66
18.38
20.08
20.93
21.23
21.28
21.30
21.34
21.38
21.38
21.34
21.34
21.45
21.66
21.85
21.80
21.33
20.37
19.03
17.50
15.98
14.52
13.02
11.32
9.24
6.73
3.80
0.49
-3.15
-7.06
-11.11
-15.15
-18.96
-22.43
-25.67
-28.97
-32.64
-36.82
-41.19
-45.07
-47.53
-47.80
-45.51
-40.85
-34.46
-27.21
-19.89
-13.06
-6.93
-1.57
3.03
6.90
10.00
12.35
14.02
15.14
15.83
16.23
16.46
16.67
17.01
17.54
18.24
18.93
19.40
19.50
19.20
18.60
17.81
16.91
15.77
14.26
12.21
9.59
6.51
3.14
-0.33
-3.75
-7.06
-10.26
-13.31
-16.21
-19.05
-21.96
-25.20
-28.94
-33.13
-37.35
-40.79
-42.49
-41.63
-37.93
-31.76
-24.07
-15.94
-8.27
-1.54
4.27
9.35
13.87
17.77
20.83
22.78
23.56
23.41
22.80
22.29
22.21
22.65
23.38
24.02
24.26
23.93
23.09
21.95
20.69
19.43
18.18
16.83
15.26
13.36
11.11
8.63
6.05
3.54
1.16
-1.11
-3.40
-5.87
-8.73
-12.13
-16.18
-20.82
-25.83
-30.69
-34.61
-36.71
-36.28
-33.02
-27.21
-19.64
-11.32
-3.21
4.08
10.26
15.28
19.21
22.13
24.13
25.37
26.03
26.28
26.26
26.02
25.62
25.15
24.77
24.59
24.60
24.65
24.48
23.92
22.97
21.78
20.58
19.44
18.24
16.72
14.66
11.97
8.77
5.32
1.84
-1.60
-5.05
-8.63
-12.36
-16.16
-19.89
-23.49
-27.02
-30.71
-34.79
-39.29
-43.84
-47.65
-49.73
-49.20
-45.70
-39.50
-31.47
-22.71
-14.18
-6.46
0.30
6.20
11.35
15.78
19.39
22.13
24.03
25.24
25.97
26.36
26.43
26.12
25.42
24.42
23.39
22.63
22.33
22.47
22.81
22.95
22.57
21.45
19.58
17.18
14.48
11.78
9.26
7.01
4.97
3.03
1.01
-1.25
-3.89
-6.95
-10.40
-14.12
-17.98
-21.86
-25.76
-29.81
-34.19
-38.95
-43.86
-48.29
-51.29
-51.93
-49.60
-44.32
-36.71
-27.77
-18.57
-9.88
-2.08
4.74
10.65
15.68
19.74
22.73
24.61
25.55
25.82
25.74
25.53
25.20
24.69
23.94
22.99
22.03
21.33
21.05
21.22
21.60
21.89
21.79
21.15
19.99
18.42
16.56
14.51
12.30
9.93
7.37
4.63
1.69
-1.37
-4.51
-7.66
-10.78
-13.88
-17.01
-20.26
-23.78
-27.66
-31.89
-36.29
-40.41
-43.60
-45.12
-44.40
-41.15
-35.54
-28.12
-19.67
-11.03
-2.87
4.39
10.53
15.50
19.30
21.95
23.49
24.06
23.93
23.47
23.06
22.97
23.20
23.56
23.76
23.65
23.29
22.92
22.83
23.12
23.63
24.02
23.94
23.22
21.91
20.24
18.42
16.60
14.72
12.66
10.24
7.34
3.95
0.17
-3.77
-7.58
-11.01
-13.91
-16.32
-18.45
-20.62
-23.15
-26.28
-30.13
-34.64
-39.53
-44.26
-48.06
-50.04
-49.47
-45.97
-39.71
-31.35
-21.86
-12.24
-3.29
4.51
10.97
16.08
19.91
22.55
24.12
24.81
24.89
24.71
24.56
24.62
24.89
25.26
25.55
25.65
25.59
25.49
25.52
25.77
26.17
26.49
26.42
25.62
23.95
21.45
18.43
15.30
12.43
10.00
7.95
6.00
3.80
1.12
-2.08
-5.58
-9.09
-12.26
-14.90
-17.01
-18.80
-20.60
-22.82
-25.77
-29.62
-34.28
-39.38
-44.28
-48.20
-50.34
-50.10
-47.24
-41.97
-34.85
-26.61
-18.00
-9.58
-1.77
5.26
11.36
16.45
20.46
23.43
25.50
26.87
27.76
28.31
28.59
28.58
28.26
27.64
26.83
26.01
25.34
24.95
24.83
24.81
24.62
23.95
22.62
20.60
18.10
15.46
13.02
10.93
9.11
7.32
5.24
2.71
-0.27
-3.50
-6.73
-9.77
-12.56
-15.15
-17.69
-20.35
-23.31
-26.79
-30.91
-35.63
-40.59
-45.05
-48.07
-48.78
-46.75
-42.07
-35.42
-27.74
-19.91
-12.57
-6.01
-0.33
4.47
8.42
11.55
13.93
15.74
17.12
18.21
19.05
19.58
19.80
19.75
19.61
19.59
19.87
20.42
21.07
21.53
21.55
21.09
20.21
19.09
17.81
16.35
14.58
12.39
9.79
6.90
3.91
0.94
-1.97
-4.90
-7.84
-10.78
-13.62
-16.28
-18.77
-21.19
-23.77
-26.74
-30.31
-34.42
-38.69
-42.37
-44.49
-44.21
-41.08
-35.33
-27.74
-19.44
-11.43
-4.36
1.62
6.68
11.05
14.87
18.06
20.49
22.05
22.79
22.88
22.61
22.24
21.95
21.82
21.84
21.95
22.09
22.16
22.08
21.75
21.10
20.11
18.77
17.16
15.35
13.43
11.40
9.24
6.84
4.14
1.12
-2.13
-5.39
-8.43
-11.08
-13.34
-15.38
-17.51
-20.06
-23.27
-27.11
-31.32
-35.33
-38.38
-39.74
-38.86
-35.58
-30.18
-23.27
-15.64
-7.99
-0.82
5.60
11.14
15.77
19.51
22.39
24.47
25.83
26.53
26.70
26.41
25.81
25.02
24.17
23.33
22.54
21.81
21.13
20.55
20.12
19.86
19.69
19.42
18.79
17.65
15.98
13.93
11.75
9.61
7.62
5.71
3.75
1.60
-0.77
-3.30
-5.90
-8.46
-10.98
-13.48
-16.05
-18.81
-21.87
-25.37
-29.44
-34.10
-39.10
-43.93
-47.79
-49.85
-49.44
-46.28
-40.65
-33.22
-24.91
-16.54
-8.69
-1.69
4.37
9.45
13.54
16.60
18.71
20.01
20.74
21.13
21.35
21.48
21.49
21.36
21.13
20.88
20.73
20.74
20.93
21.23
21.51
21.61
21.36
20.63
19.36
17.56
15.32
12.82
10.25
7.78
5.48
3.33
1.20
-1.04
-3.55
-6.34
-9.31
-12.28
-15.03
-17.42
-19.47
-21.34
-23.34
-25.83
-29.09
-33.22
-38.03
-42.91
-47.01
-49.33
-49.08
-45.96
-40.25
-32.76
-24.53
-16.47
-9.18
-2.83
2.59
7.20
11.02
14.06
16.32
17.88
18.88
19.47
19.80
19.93
19.93
19.89
19.90
20.09
20.53
21.20
21.94
22.52
22.69
22.28
21.19
19.48
17.34
15.05
12.90
11.07
9.60
8.37
7.13
5.62
3.65
1.20
-1.61
-4.57
-7.46
-10.17
-12.65
-14.99
-17.32
-19.82
-22.67
-25.94
-29.63
-33.45
-36.88
-39.20
-39.65
-37.77
-33.51
-27.30
-19.89
-12.12
-4.69
1.99
7.77
12.60
16.48
19.39
21.31
22.31
22.58
22.43
22.15
21.97
21.95
22.07
22.19
22.22
22.13
21.92
21.66
21.36
21.03
20.58
19.87
18.79
17.28
15.37
13.19
10.97
8.94
7.15
5.52
3.82
1.80
-0.65
-3.48
-6.47
-9.37
-12.05
-14.51
-16.89
-19.37
-22.09
-25.08
-28.37
-31.93
-35.75
-39.68
-43.39
-46.32
-47.70
-46.90
-43.56
-37.82
-30.26
-21.78
-13.29
-5.48
1.29
6.97
11.66
15.52
18.57
20.85
22.42
23.41
24.04
24.47
24.80
24.98
24.87
24.43
23.73
22.96
22.40
22.20
22.33
22.61
22.79
22.61
21.99
20.91
19.45
17.74
15.89
13.98
12.07
10.14
8.14
5.96
3.51
0.75
-2.33
-5.61
-8.99
-12.29
-15.33
-17.99
-20.20
-22.02
-23.68
-25.55
-28.06
-31.52
-35.91
-40.80
-45.37
-48.57
-49.49
-47.64
-43.07
-36.40
-28.49
-20.28
-12.47
-5.47
0.57
5.65
9.85
13.26
15.99
18.16
19.87
21.16
22.09
22.72
23.06
23.17
23.06
22.75
22.32
21.88
21.63
21.73
22.21
22.92
23.54
23.72
23.23
21.97
20.05
17.70
15.13
12.56
10.14
7.99
6.08
4.30
2.43
0.19
-2.57
-5.82
-9.35
-12.88
-16.12
-19.03
-21.71
-24.42
-27.45
-31.05
-35.29
-39.97
-44.65
-48.61
-51.05
-51.30
-49.04
-44.39
-37.95
-30.54
-22.92
-15.66
-9.01
-3.02
2.35
7.10
11.20
14.57
17.19
19.11
20.45
21.40
22.14
22.84
23.64
24.60
25.69
26.79
27.68
28.16
28.11
27.59
26.76
25.84
24.94
24.05
23.02
21.68
19.94
17.85
15.58
13.23
10.88
8.43
5.74
2.73
-0.55
-3.91
-7.12
-10.03
-12.63
-15.04
-17.49
-20.08
-22.85
-25.81
-28.98
-32.49
-36.42
-40.73
-45.01
-48.50
-50.33
-49.74
-46.49
-40.85
-33.51
-25.33
-17.07
-9.24
-2.16
4.05
9.30
13.56
16.89
19.36
21.10
22.21
22.80
23.00
22.98
22.91
22.91
23.06
23.31
23.57
23.79
23.93
24.01
24.03
23.96
23.68
23.05
21.92
20.23
18.05
15.54
12.95
10.53
8.44
6.66
5.05
3.37
1.40
-0.98
-3.69
-6.56
-9.36
-11.97
-14.44
-16.95
-19.78
-23.15
-27.15
-31.62
-36.17
-40.13
-42.74
-43.30
-41.38
-36.99
-30.52
-22.75
-14.49
-6.49
0.82
7.22
12.71
17.31
20.98
23.66
25.29
25.92
25.77
25.17
24.48
24.01
23.94
24.24
24.81
25.46
26.05
26.45
26.62
26.52
26.11
25.39
24.29
22.78
20.85
18.58
16.13
13.68
11.38
9.23
7.12
4.88
2.37
-0.46
-3.49
-6.50
-9.28
-11.69
-13.71
-15.46
-17.12
-18.92
-21.15
-24.05
-27.76
-32.17
-36.82
-40.93
-43.58
-43.99
-41.81
-37.20
-30.79
-23.41
-15.84
-8.62
-2.05
3.73
8.64
12.65
15.79
18.18
20.05
21.63
23.03
24.26
25.24
25.93
26.38
26.72
27.11
27.64
28.28
28.90
29.31
29.31
28.81
27.80
26.33
24.47
22.33
19.97
17.44
14.77
12.03
9.29
6.66
4.22
1.99
-0.08
-2.12
-4.30
-6.76
-9.55
-12.57
-15.61
-18.41
-20.74
-22.49
-23.79
-24.94
-26.38
-28.54
-31.66
-35.63
-39.97
-43.87
-46.40
-46.81
-44.67
-40.11
-33.67
-26.14
-18.32
-10.87
-4.21
1.54
6.47
10.83
14.81
18.50
21.80
24.49
26.38
27.40
27.67
27.44
26.98
26.51
26.13
25.86
25.70
25.62
25.55
25.41
25.09
24.53
23.69
22.62
21.35
19.90
18.31
16.55
14.65
12.65
10.63
8.66
6.80
5.02
3.25
1.39
-0.67
-2.96
-5.47
-8.13
-10.87
-13.66
-16.48
-19.33
-22.24
-25.23
-28.39
-31.82
-35.61
-39.63
-43.49
-46.53
-48.02
-47.35
-44.31
-39.15
-32.47
-25.01
-17.48
-10.35
-3.90
1.80
6.73
10.91
14.31
16.92
18.79
20.05
20.95
21.66
22.27
22.75
22.98
22.91
22.67
22.51
22.69
23.35
24.29
25.16
25.57
25.32
24.48
23.28
22.00
20.76
19.50
18.00
16.05
13.54
10.61
7.53
4.60
2.01
-0.27
-2.42
-4.71
-7.27
-10.10
-13.06
-15.90
-18.47
-20.72
-22.68
-24.52
-26.43
-28.62
-31.33
-34.68
-38.58
-42.61
-46.06
-48.10
-48.01
-45.41
-40.45
-33.74
-26.14
-18.50
-11.41
-5.18
0.13
4.65
8.49
11.77
14.56
16.92
18.88
20.40
21.45
22.00
22.05
21.77
21.37
21.05
20.95
21.07
21.34
21.65
21.94
22.11
22.05
21.64
20.70
19.15
17.04
14.56
12.01
9.62
7.53
5.72
4.04
2.31
0.36
-1.86
-4.29
-6.77
-9.08
-11.07
-12.74
-14.20
-15.69
-17.49
-19.84
-22.83
-26.34
-30.03
-33.32
-35.59
-36.23
-34.90
-31.60
-26.73
-20.90
-14.71
-8.65
-2.94
2.30
7.02
11.16
14.62
17.37
19.49
21.11
22.29
23.00
23.17
22.77
21.99
21.18
20.75
20.94
21.68
22.64
23.34
23.43
22.85
21.84
20.78
19.99
19.56
19.33
19.00
18.28
17.03
15.24
13.03
10.54
7.90
5.22
2.60
0.13
-2.14
-4.27
-6.36
-8.54
-10.91
-13.45
-16.09
-18.75
-21.37
-24.00
-26.77
-29.84
-33.34
-37.28
-41.40
-45.16
-47.78
-48.44
-46.55
-42.03
-35.34
-27.33
-18.92
-10.89
-3.66
2.62
7.96
12.43
16.07
18.94
21.15
22.82
24.07
24.94
25.46
25.63
25.52
25.28
25.05
24.93
24.95
25.03
25.04
24.80
24.25
23.33
22.12
20.72
19.22
17.69
16.14
14.54
12.86
11.09
9.23
7.32
5.41
3.47
1.46
-0.68
-3.02
-5.53
-8.15
-10.80
-13.42
-16.03
-18.68
-21.41
-24.26
-27.23
-30.33
-33.62
-37.13
-40.74
-44.08
-46.52
-47.33
-45.99
-42.37
-36.80
-29.98
-22.65
-15.39
-8.58
-2.38
3.13
7.87
11.80
14.93
17.36
19.22
20.62
21.56
21.99
21.91
21.42
20.77
20.29
20.22
20.60
21.32
22.09
22.63
22.73
22.27
21.27
19.76
17.88
15.72
13.42
11.14
8.97
6.98
5.12
3.33
1.50
-0.46
-2.63
-5.04
-7.68
-10.48
-13.28
-15.95
-18.42
-20.71
-22.94
-25.29
-27.96
-31.09
-34.73
-38.75
-42.91
-46.72
-49.53
-50.62
-49.44
-45.71
-39.63
-31.80
-23.07
-14.39
-6.53
0.05
5.26
9.27
12.38
14.88
16.95
18.67
20.08
21.19
22.05
22.70
23.15
23.41
23.49
23.46
23.39
23.38
23.46
23.55
23.53
23.22
22.48
21.24
19.54
17.44
15.10
12.72
10.41
8.26
6.19
4.07
1.78
-0.74
-3.40
-6.08
-8.61
-10.94
-13.09
-15.15
-17.28
-19.66
-22.45
-25.73
-29.41
-33.11
-36.24
-38.05
-37.90
-35.45
-30.78
-24.35
-16.84
-9.01
-1.44
5.40
11.18
15.72
18.92
20.89
21.81
22.08
22.10
22.20
22.51
22.96
23.34
23.50
23.43
23.27
23.25
23.50
24.01
24.62
25.13
25.40
25.37
25.00
24.23
22.95
21.03
18.49
15.53
12.45
9.56
7.07
4.97
3.13
1.27
-0.90
-3.56
-6.75
-10.31
-13.98
-17.40
-20.39
-22.94
-25.26
-27.74
-30.76
-34.51
-38.84
-43.23
-46.89
-48.96
-48.73
-45.91
-40.66
-33.60
-25.51
-17.19
-9.27
-2.15
3.97
8.99
12.94
15.96
18.30
20.22
21.91
23.43
24.76
25.79
26.49
26.89
27.06
27.12
27.15
27.24
27.38
27.59
27.80
27.92
27.77
27.15
25.87
23.84
21.17
18.11
15.01
12.20
9.84
7.91
6.24
4.54
2.61
0.36
-2.15
-4.83
-7.58
-10.35
-13.13
-15.91
-18.64
-21.28
-23.89
-26.67
-29.97
-34.10
-39.09
-44.48
-49.33
-52.44
-52.81
-50.01
-44.30
-36.54
-27.83
-19.18
-11.24
-4.33
1.51
6.37
10.37
13.55
16.03
17.88
19.21
20.20
20.98
21.65
22.25
22.74
23.05
23.13
23.06
22.92
22.83
22.79
22.73
22.53
22.07
21.29
20.16
18.63
16.63
14.19
11.41
8.54
5.81
3.40
1.27
-0.78
-3.00
-5.55
-8.38
-11.29
-14.04
-16.46
-18.57
-20.52
-22.59
-25.03
-28.04
-31.72
-36.01
-40.64
-45.03
-48.38
-49.81
-48.60
-44.43
-37.59
-28.93
-19.61
-10.75
-3.11
3.06
7.93
11.81
15.02
17.66
19.67
20.94
21.46
21.44
21.21
21.15
21.49
22.24
23.19
24.06
24.67
24.99
25.15
25.28
25.37
25.19
24.43
22.84
20.45
17.55
14.62
12.02
9.88
8.07
6.24
4.13
1.63
-1.12
-3.89
-6.43
-8.64
-10.58
-12.44
-14.48
-16.99
-20.20
-24.18
-28.81
-33.65
-38.02
-41.05
-42.02
-40.47
-36.42
-30.32
-22.89
-14.93
-7.13
0.06
6.37
11.75
16.21
19.82
22.63
24.68
26.03
26.80
27.16
27.27
27.33
27.42
27.61
27.90
28.28
28.71
29.10
29.35
29.34
29.00
28.34
27.39
26.17
24.67
22.83
20.59
18.01
15.21
12.42
9.80
7.38
5.04
2.51
-0.40
-3.80
-7.55
-11.43
-15.12
-18.43
-21.29
-23.82
-26.22
-28.75
-31.61
-34.98
-38.93
-43.32
-47.81
-51.74
-54.33
-54.80
-52.71
-48.03
-41.19
-32.91
-24.00
-15.15
-6.80
0.78
7.52
13.38
18.32
22.31
25.29
27.31
28.51
29.14
29.48
29.75
30.02
30.23
30.28
30.06
29.58
28.99
28.43
28.03
27.77
27.58
27.27
26.66
25.56
23.91
21.77
19.30
16.72
14.24
11.93
9.75
7.55
5.18
2.55
-0.32
-3.36
-6.44
-9.45
-12.29
-14.91
-17.31
-19.54
-21.70
-23.97
-26.53
-29.58
-33.28
-37.68
-42.58
-47.48
-51.51
-53.71
-53.29
-49.90
-43.77
-35.66
-26.54
-17.32
-8.67
-0.93
5.72
11.24
15.62
18.93
21.36
23.11
24.37
25.24
25.69
25.66
25.12
24.13
22.88
21.63
20.61
20.00
19.82
19.94
20.15
20.17
19.80
18.89
17.45
15.55
13.36
11.03
8.74
6.66
4.88
3.37
2.00
0.54
-1.29
-3.59
-6.32
-9.28
-12.21
-14.89
-17.24
-19.33
-21.39
-23.71
-26.63
-30.40
-35.12
-40.60
-46.30
-51.39
-54.91
-56.02
-54.26
-49.70
-42.84
-34.53
-25.70
-17.14
-9.38
-2.66
3.04
7.82
11.78
14.95
17.29
18.82
19.69
20.13
20.39
20.64
20.86
20.95
20.72
20.19
19.46
18.75
18.29
18.13
18.15
18.16
17.91
17.27
16.16
14.54
12.41
9.70
6.36
2.40
-2.09
-6.87
-11.63
-16.06
-19.98
-23.36
-26.40
-29.35
-32.47
-35.91
-39.64
-43.44
-46.83
-49.19
-49.84
-48.28
-44.38
-38.39
-30.93
-22.73
-14.43
-6.51
0.69
6.95
12.10
16.11
19.12
21.45
23.48
25.40
27.20
28.65
29.52
29.73
29.52
29.25
29.28
29.75
30.45
31.07
31.25
30.83
29.83
28.39
26.64
24.58
22.15
19.26
15.90
12.22
8.45
4.87
1.62
-1.27
-3.86
-6.31
-8.77
-11.36
-14.24
-17.55
-21.35
-25.64
-30.11
-34.17
-37.01
-37.82
-36.06
-31.71
-25.28
-17.57
-9.47
-1.55
5.92
12.92
19.51
25.65
31.16
35.75
39.21
41.41
42.40
42.33
41.47
40.10
38.51
36.93
35.56
34.44
33.55
32.72
31.71
30.30
28.36
25.92
23.12
20.14
17.06
13.88
10.47
6.72
2.57
-1.95
-6.73
-11.63
-16.44
-20.90
-24.80
-28.02
-30.65
-33.05
-35.72
-39.10
-43.32
-48.06
-52.62
-56.07
-57.56
-56.57
-53.07
-47.48
-40.53
-32.95
-25.31
-17.90
-10.85
-4.29
1.59
6.52
10.26
12.81
14.39
15.38
16.14
16.88
17.60
18.23
18.66
18.92
19.08
19.20
19.33
19.41
19.40
19.25
18.92
18.31
17.27
15.60
13.20
10.11
6.60
3.05
-0.15
-2.80
