1520863410.00
64.000000
-0.00
-0.00
-0.00
-0.00
-0.00
-0.00
-0.00
-0.00
-0.00
-0.00
0.00
0.01
0.01
-0.00
-0.03
-0.05
-0.05
0.00
0.13
0.36
0.66
1.01
1.37
1.72
2.06
2.40
2.79
3.24
3.80
4.42
5.06
5.66
6.20
6.68
7.15
7.68
8.31
9.14
10.09
11.04
11.88
12.56
13.14
13.76
14.65
15.96
17.91
20.32
22.90
25.38
27.58
29.57
31.68
34.32
37.81
42.54
48.15
54.10
59.83
64.97
69.58
74.14
79.34
85.71
93.76
103.00
112.62
121.73
129.77
136.75
143.30
150.75
157.77
166.64
177.95
191.79
206.97
220.57
228.25
225.36
208.53
176.87
132.76
80.05
23.07
-34.94
-92.44
-149.16
-205.23
-260.37
-313.74
-363.87
-409.83
-450.91
-486.50
-515.74
-537.23
-549.22
-549.96
-538.37
-514.21
-478.67
-433.88
-382.45
-327.02
-269.84
-212.63
-156.66
-102.95
-52.37
-5.90
35.58
71.43
101.35
125.50
144.38
158.69
169.15
176.37
180.75
182.57
182.07
179.51
175.23
169.65
163.18
156.15
148.81
141.30
133.69
126.02
118.33
110.69
103.16
95.80
88.68
81.83
75.25
68.95
62.95
57.25
51.86
46.78
42.03
37.59
33.45
29.61
26.07
22.81
19.83
17.11
14.67
12.48
10.54
8.83
7.35
6.07
4.97
4.05
3.27
2.62
2.09
1.65
1.30
1.01
0.79
0.61
0.48
0.37
0.28
0.22
0.17
0.14
0.11
0.10
0.09
0.09
0.09
0.10
0.12
0.14
0.17
0.20
0.23
0.27
0.31
0.36
0.40
0.45
0.50
0.54
0.60
0.65
0.70
0.76
0.83
0.90
0.98
1.06
1.16
1.27
1.39
1.52
1.67
1.84
2.03
2.24
2.47
2.73
3.01
3.33
3.67
4.04
4.45
4.89
5.37
5.89
6.44
7.04
7.68
8.36
9.08
9.86
10.67
11.53
12.43
13.39
14.39
15.47
16.60
17.79
19.04
20.32
21.57
22.74
23.74
24.45
24.75
24.52
23.65
22.08
19.79
16.80
13.17
9.05
4.63
0.10
-4.31
-8.39
-11.96
-14.88
-17.07
-18.48
-19.12
-19.07
-18.44
-17.34
-15.93
-14.34
-12.68
-11.06
-9.47
-7.87
-6.28
-4.66
-3.01
-1.35
0.31
1.95
3.57
5.24
7.08
9.07
11.22
13.52
15.91
18.31
20.65
22.95
25.31
28.02
31.00
34.28
37.78
41.36
44.74
47.76
50.38
52.86
55.72
59.02
62.87
67.19
71.59
75.52
78.49
80.33
81.31
82.24
83.31
84.71
86.16
86.80
85.32
80.26
70.28
54.00
35.15
15.41
-4.05
-22.84
-41.29
-60.20
-80.61
-103.57
-129.73
-158.90
-190.21
-220.84
-246.47
-262.42
-265.27
-254.31
-231.93
-202.77
-171.94
-143.86
-120.53
-101.76
-86.29
-72.83
-60.73
-49.86
-40.13
-31.07
-22.26
-13.14
-3.62
5.78
14.04
19.99
23.02
23.25
21.66
19.46
17.74
16.91
16.56
15.63
12.89
7.62
-0.05
-8.92
-17.14
-22.66
-23.86
-20.15
-12.09
-1.15
10.71
21.71
30.68
37.22
41.56
44.23
45.73
46.37
46.31
45.73
44.78
43.61
42.35
41.03
39.68
38.39
37.32
36.62
36.31
36.16
35.73
34.50
32.14
28.62
24.28
19.67
15.24
11.13
7.11
2.65
-2.81
-9.67
-17.90
-27.00
-36.05
-43.73
-48.71
-49.84
-46.61
-39.30
-29.06
-17.55
-6.41
3.23
10.98
17.03
21.78
25.48
28.15
29.73
30.28
30.14
29.73
29.43
29.34
29.35
29.33
29.26
29.28
29.53
30.05
30.56
30.68
29.91
27.96
24.78
20.63
15.96
11.18
6.60
2.24
-2.08
-6.68
-11.82
-17.56
-23.79
-30.21
-36.38
-41.78
-45.65
-47.05
-45.15
-39.43
-30.13
-18.30
-5.46
6.84
17.55
26.33
33.32
38.80
42.91
45.65
47.05
47.44
47.40
47.54
48.14
49.04
49.84
50.18
50.11
50.01
50.35
51.25
52.34
52.85
52.01
49.47
45.47
40.73
35.97
31.72
28.10
24.93
22.02
19.29
16.75
14.34
11.82
8.81
5.24
1.53
-1.19
-1.52
1.60
8.37
17.99
28.97
39.68
48.96
56.20
61.31
64.41
65.64
65.20
63.45
60.98
58.46
56.37
54.81
53.52
52.16
50.47
48.37
45.90
43.00
39.53
35.34
30.41
24.90
19.10
13.26
7.48
1.61
-4.54
-11.15
-18.14
-25.33
-32.48
-39.46
-46.25
-52.93
-59.55
-66.03
-72.06
-77.03
-80.14
-80.59
-77.97
-72.38
-64.57
-55.58
-46.55
-38.40
-31.76
-26.99
-24.29
-23.68
-25.01
-27.89
-31.69
-35.73
-39.36
-42.24
-44.30
-45.72
-46.75
-47.63
-48.48
-49.34
-50.22
-51.10
-52.04
-53.08
-54.28
-55.67
-57.23
-58.89
-60.58
-62.25
-63.89
-65.52
-67.15
-68.80
-70.39
-71.62
-72.07
-71.06
-67.94
-62.24
-53.96
-43.61
-32.09
-20.43
-9.47
0.20
8.30
14.73
19.38
22.17
23.18
22.67
21.24
19.57
18.29
17.72
17.78
18.12
18.23
17.82
16.74
15.11
13.16
11.04
8.81
6.43
3.82
0.96
-2.08
-5.25
-8.67
-12.64
-17.58
-23.72
-30.87
-38.23
-44.49
-48.26
-48.52
-44.92
-37.94
-28.66
-18.40
-8.37
0.71
8.49
15.11
20.79
25.66
29.57
32.09
32.81
31.67
29.14
26.23
24.02
23.27
23.98
25.54
27.06
27.81
27.51
26.36
24.59
22.26
19.24
15.41
10.97
6.43
2.42
-0.69
-3.10
-5.48
-8.62
-12.97
-18.41
-24.34
-30.07
-35.02
-38.85
-41.39
-42.45
-41.94
-40.04
-37.33
-34.73
-32.98
-32.39
-32.52
-32.46
-31.33
-28.70
-24.75
-20.13
-15.44
-10.88
-6.18
-0.71
6.09
14.28
23.34
32.14
39.28
43.50
44.14
41.38
36.13
29.73
23.41
17.94
13.46
9.60
5.72
1.18
-4.36
-11.01
-18.57
-26.67
-34.64
-41.62
-46.65
-48.77
-47.40
-42.60
-35.21
-26.65
-18.59
-12.37
-8.51
-6.65
-5.76
-4.67
-2.53
1.09
6.10
12.33
19.64
27.91
36.73
45.33
52.43
56.80
57.65
55.06
49.97
43.65
37.26
31.32
25.75
20.12
14.07
7.68
1.28
-4.60
-9.76
-14.39
-19.15
-24.76
-31.81
-40.40
-50.13
-60.22
-69.63
-77.42
-82.67
-84.67
-83.07
-78.01
-70.14
-60.50
-50.31
-40.50
-31.70
-24.15
-17.95
-13.23
-10.12
-8.54
-8.05
-7.87
-6.99
-4.72
-0.92
3.93
9.11
13.96
18.21
21.94
25.27
28.05
29.78
29.80
27.61
23.18
16.99
9.83
2.60
-4.03
-9.72
-14.56
-19.03
-23.82
-29.67
-37.03
-45.71
-54.79
-62.82
-68.24
-69.83
-67.05
-60.05
-49.52
-36.47
-22.03
-7.44
6.14
17.67
26.53
32.55
36.11
37.92
38.80
39.36
39.88
40.40
40.88
41.32
41.83
42.57
43.56
44.70
45.73
46.32
46.13
44.86
42.33
38.44
33.34
27.40
21.18
15.30
9.99
5.16
0.29
-5.23
-11.87
-19.87
-29.20
-39.67
-50.72
-61.24
-69.48
-73.37
-71.19
-62.37
-47.97
-30.45
-12.77
2.73
15.09
24.63
32.18
38.35
42.99
45.47
45.35
42.88
39.20
35.66
33.39
32.70
33.17
34.14
35.05
35.77
36.39
36.90
37.04
36.25
34.09
30.45
25.74
20.63
15.80
11.50
7.52
3.23
-2.02
-8.67
-16.69
-25.49
-34.01
-40.89
-44.77
-44.61
-40.06
-31.62
-20.60
-8.71
2.42
11.75
18.96
24.30
28.22
31.05
32.87
33.58
33.18
31.84
29.96
28.06
26.55
25.72
25.65
26.32
27.58
29.22
30.86
32.04
32.26
31.12
28.54
24.71
20.10
15.25
10.55
6.09
1.63
-3.27
-9.00
-15.82
-23.69
-32.26
-40.81
-48.33
-53.65
-55.73
-53.93
-48.30
-39.58
-29.07
-18.24
-8.41
-0.33
5.82
10.36
13.87
16.74
19.19
21.05
22.11
22.22
21.52
20.50
19.84
20.12
21.65
24.29
27.64
31.12
34.22
36.55
37.81
37.77
36.28
33.32
29.05
23.92
18.51
13.38
8.82
4.65
0.28
-5.11
-12.24
-21.27
-31.65
-42.11
-50.92
-56.36
-57.17
-52.96
-44.33
-32.61
-19.56
-6.80
4.49
13.76
20.97
26.39
30.33
32.94
34.27
34.44
33.82
32.98
32.56
32.88
33.88
35.16
36.26
36.94
37.32
37.71
38.38
39.30
40.11
40.21
39.07
36.35
32.02
26.33
19.78
12.96
6.37
0.34
-5.26
-10.91
-17.22
-24.63
-33.02
-41.63
-49.20
-54.30
-55.80
-53.20
-46.80
-37.53
-26.65
-15.38
-4.59
5.22
13.81
20.98
26.50
30.14
31.83
31.77
30.46
28.59
26.84
25.69
25.33
25.74
26.78
28.33
30.21
32.28
34.25
35.74
36.38
35.84
34.02
31.00
27.01
22.43
17.65
13.07
8.95
5.32
2.01
-1.39
-5.41
-10.50
-16.89
-24.45
-32.70
-40.69
-47.27
-51.20
-51.57
-47.98
-40.77
-30.91
-19.66
-8.29
2.24
11.37
18.70
24.03
27.27
28.54
28.37
27.48
26.67
26.43
26.83
27.44
27.75
27.38
26.42
25.36
24.78
25.03
25.93
26.87
27.00
25.70
22.86
18.85
14.29
9.74
5.45
1.37
-2.65
-6.78
-11.01
-15.46
-20.38
-26.13
-33.00
-40.75
-48.42
-54.44
-57.15
-55.48
-49.40
-39.99
-29.00
-18.14
-8.57
-0.71
5.55
10.47
14.14
16.47
17.36
16.90
15.51
13.73
12.12
10.96
10.32
10.08
10.11
10.34
10.78
11.48
12.38
13.31
13.93
13.88
12.87
10.84
7.97
4.56
0.90
-2.95
-7.15
-12.06
-17.95
-24.72
-31.78
-38.07
-42.35
-43.53
-41.12
-35.35
-27.09
-17.61
-8.17
0.33
7.48
13.27
17.86
21.37
23.72
24.76
24.33
22.58
19.91
17.01
14.54
12.99
12.45
12.63
12.99
13.00
12.36
10.93
8.88
6.41
3.65
0.62
-2.74
-6.51
-10.78
-15.57
-20.99
-27.13
-33.95
-41.16
-47.99
-53.34
-55.98
-54.98
-50.08
-41.79
-31.27
-19.93
-9.05
0.49
8.31
14.34
18.57
20.93
21.32
19.80
16.74
12.95
9.51
7.39
7.08
8.39
10.59
12.70
13.96
14.01
12.86
10.76
7.93
4.48
0.52
-3.80
-8.23
-12.55
-16.74
-21.00
-25.78
-31.49
-38.16
-45.15
-51.19
-54.73
-54.49
-50.00
-41.87
-31.47
-20.39
-9.94
-0.80
6.83
12.95
17.50
20.34
21.41
20.98
19.55
17.78
16.26
15.27
14.83
14.72
14.66
14.38
13.71
12.53
10.88
8.87
6.71
4.60
2.64
0.82
-1.04
-3.23
-6.11
-10.04
-15.30
-22.00
-29.92
-38.39
-46.38
-52.59
-55.67
-54.68
-49.34
-40.18
-28.56
-16.19
-4.68
4.91
12.23
17.47
21.10
23.52
24.92
25.46
25.25
24.52
23.62
22.80
22.29
22.16
22.36
22.81
23.34
23.66
23.36
22.07
19.59
15.97
11.50
6.64
1.80
-2.68
-6.67
-10.28
-13.88
-18.07
-23.45
-30.37
-38.52
-46.78
-53.43
-56.61
-55.06
-48.56
-38.02
-25.15
-11.92
0.05
9.85
17.28
22.61
26.32
28.83
30.40
31.21
31.40
31.16
30.72
30.31
30.10
30.21
30.64
31.26
31.88
32.24
32.13
31.37
29.86
27.52
24.35
20.39
15.74
10.66
5.55
0.86
-3.08
-6.29
-9.19
-12.58
-17.38
-24.16
-32.73
-42.01
-50.16
-55.18
-55.60
-51.09
-42.53
-31.69
-20.45
-10.28
-1.84
4.85
10.03
13.91
16.54
17.93
18.17
17.59
16.64
15.74
15.16
15.02
15.29
15.88
16.64
17.41
18.02
18.31
18.15
17.46
16.18
14.27
11.71
8.54
4.86
0.89
-3.13
-6.99
-10.70
-14.48
-18.72
-23.79
-29.81
-36.45
-42.87
-47.95
-50.65
-50.32
-46.84
-40.52
-31.91
-21.69
-10.57
0.48
10.40
18.12
22.95
24.83
24.40
22.78
21.12
20.20
20.25
20.98
21.93
22.76
23.30
23.63
23.88
24.09
24.20
23.93
23.03
21.25
18.51
14.87
10.58
5.92
1.21
-3.31
-7.60
-11.91
-16.70
-22.49
-29.60
-37.84
-46.47
-54.29
-59.92
-62.15
-60.26
-54.23
-44.80
-33.29
-21.22
-9.92
-0.25
7.51
13.45
17.74
20.49
21.74
21.70
20.88
20.19
20.52
22.43
25.80
29.87
33.65
36.39
37.85
38.39
38.54
38.67
38.76
38.38
37.05
34.48
30.72
26.11
21.11
16.12
11.37
6.92
2.70
-1.46
-5.76
-10.46
-15.81
-21.92
-28.84
-36.41
-44.17
-51.28
-56.60
-58.85
-57.08
-51.06
-41.52
-30.00
-18.26
-7.66
1.22
8.57
15.02
20.94
26.27
30.51
33.09
33.85
33.30
32.44
32.28
33.27
35.07
36.76
37.44
36.71
34.99
33.16
32.09
32.16
33.09
34.12
34.47
33.62
31.43
28.04
23.74
18.88
13.89
9.15
4.84
0.85
-3.24
-8.05
-14.00
-21.25
-29.49
-38.04
-45.97
-52.26
-55.91
-56.11
-52.50
-45.34
-35.53
-24.42
-13.40
-3.48
4.84
11.50
16.63
20.43
23.10
24.97
26.43
27.85
29.40
31.00
32.35
33.21
33.58
33.66
33.79
34.20
34.91
35.73
36.41
36.66
36.19
34.75
32.14
28.32
23.55
18.28
13.01
8.09
3.61
-0.54
-4.57
-8.67
-12.98
-17.65
-22.96
-29.18
-36.43
-44.38
-52.16
-58.48
-61.97
-61.64
-57.24
-49.33
-39.04
-27.67
-16.39
-6.08
2.71
9.58
14.31
16.94
17.86
17.79
17.67
18.28
20.04
22.82
26.12
29.28
31.79
33.41
34.19
34.39
34.22
33.87
33.36
32.59
31.40
29.54
26.86
23.31
19.04
14.38
9.74
5.43
1.58
-2.00
-5.71
-10.07
-15.44
-21.99
-29.54
-37.57
-45.31
-51.82
-56.22
-57.70
-55.87
-50.74
-42.80
-32.96
-22.33
-12.00
-2.88
4.48
9.86
13.29
14.98
15.27
14.63
13.55
12.61
12.18
12.44
13.27
14.42
15.62
16.65
17.45
17.95
18.07
17.65
16.52
14.60
11.99
8.90
5.53
2.06
-1.44
-4.92
-8.41
-12.02
-15.99
-20.66
-26.27
-32.72
-39.37
-45.09
-48.55
-48.64
-44.91
-37.83
-28.57
-18.54
-8.98
-0.54
6.63
12.63
17.51
21.08
23.10
23.42
22.36
20.61
19.09
18.47
18.92
20.06
21.22
21.86
21.83
21.36
20.82
20.38
19.92
19.01
17.16
14.08
9.91
5.09
0.25
-4.13
-7.82
-10.95
-13.86
-16.98
-20.77
-25.58
-31.59
-38.63
-46.09
-52.82
-57.42
-58.64
-55.80
-49.12
-39.66
-28.92
-18.33
-8.89
-1.01
5.26
10.04
13.46
15.67
16.98
17.79
18.61
19.80
21.46
23.41
25.31
26.79
27.68
28.01
27.94
27.65
27.28
26.86
26.39
25.79
24.91
23.48
21.30
18.28
14.57
10.51
6.46
2.63
-1.00
-4.60
-8.43
-12.72
-17.70
-23.68
-30.91
-39.40
-48.65
-57.51
-64.28
-67.25
-65.38
-58.64
-48.08
-35.41
-22.46
-10.65
-0.79
6.92
12.62
16.61
19.20
20.70
21.44
21.79
22.15
22.77
23.72
24.86
25.89
26.59
26.84
26.73
26.34
25.78
25.08
24.22
23.23
22.19
21.11
19.90
18.32
16.13
13.17
9.49
5.31
0.86
-3.68
-8.23
-12.75
-17.17
-21.44
-25.70
-30.32
-35.78
-42.38
-49.81
-57.03
-62.54
-64.83
-63.01
-57.15
-48.14
-37.29
-25.96
-15.14
-5.44
2.86
9.55
14.50
17.65
19.18
19.56
19.48
19.67
20.59
22.30
24.50
26.68
28.39
29.40
29.69
29.45
28.89
28.20
27.46
26.63
25.62
24.28
22.42
19.90
16.67
12.83
8.55
4.04
-0.62
-5.40
-10.26
-15.04
-19.53
-23.68
-27.72
-32.19
-37.75
-44.66
-52.39
-59.54
-64.29
-65.09
-61.32
-53.55
-43.29
-32.21
-21.71
-12.44
-4.52
2.21
7.88
12.49
16.00
18.47
20.09
21.14
21.97
22.78
23.64
24.52
25.28
25.82
26.09
26.13
26.09
26.08
26.05
25.86
25.20
23.78
21.39
18.10
14.19
10.07
6.09
2.49
-0.71
-3.67
-6.64
-9.90
-13.72
-18.28
-23.56
-29.29
-34.92
-39.63
-42.54
-42.85
-40.16
-34.55
-26.59
-17.22
-7.52
1.56
9.27
15.15
18.98
20.81
20.89
19.64
17.62
15.55
14.00
13.47
14.08
15.61
17.59
19.43
20.67
21.14
20.95
20.36
19.65
18.84
17.66
15.76
12.82
8.80
4.06
-0.85
-5.42
-9.41
-12.90
-16.29
-20.07
-24.70
-30.41
-37.07
-44.24
-51.05
-56.38
-59.08
-58.30
-53.79
-46.04
-36.13
-25.39
-15.00
-5.79
1.87
7.85
12.12
14.74
15.87
15.94
15.60
15.53
16.18
17.60
19.37
20.86
21.56
21.28
20.35
19.35
18.89
19.28
20.34
21.48
21.89
20.88
18.12
13.80
8.54
3.19
-1.49
-5.15
-7.89
-10.28
-13.07
-17.03
-22.62
-29.85
-38.19
-46.52
-53.43
-57.50
-57.74
-53.89
-46.52
-36.85
-26.28
-15.92
-6.39
2.14
9.70
16.11
20.98
23.89
24.76
24.07
22.75
21.81
21.91
23.14
25.02
26.92
28.32
28.99
28.98
28.46
27.66
26.70
25.65
24.47
23.03
21.11
18.51
15.14
11.12
6.78
2.52
-1.42
-5.15
-9.09
-13.86
-20.00
-27.64
-36.35
-45.16
-52.72
-57.76
-59.45
-57.49
-52.22
-44.32
-34.64
-24.00
-13.16
-2.78
6.56
14.39
20.41
24.48
26.65
27.17
26.58
25.60
25.00
25.40
26.97
29.37
31.92
33.89
34.80
34.59
33.41
31.61
29.47
27.22
25.07
23.19
21.63
20.21
18.51
16.07
12.61
8.29
3.61
-0.85
-4.65
-7.77
-10.58
-13.64
-17.52
-22.51
-28.52
-35.04
-41.21
-46.01
-48.49
-47.94
-44.12
-37.25
-28.07
-17.62
-7.11
2.37
10.05
15.55
18.91
20.51
20.86
20.45
19.66
18.76
17.91
17.25
16.84
16.67
16.64
16.66
16.68
16.79
17.16
17.94
19.07
20.14
20.49
19.49
16.82
12.73
7.86
3.01
-1.30
-4.96
-8.16
-11.21
-14.28
-17.48
-20.96
-25.05
-30.09
-36.12
-42.54
-48.14
-51.43
-51.20
-47.04
-39.43
-29.62
-19.08
-9.10
-0.45
6.58
12.09
16.26
19.29
21.28
22.35
22.66
22.48
22.15
22.03
22.28
22.87
23.60
24.25
24.62
24.68
24.37
23.68
22.49
20.64
18.03
14.67
10.81
6.82
3.05
-0.33
-3.43
-6.58
-10.18
-14.60
-20.03
-26.49
-33.72
-41.07
-47.44
-51.51
-52.09
-48.64
-41.58
-32.13
-21.86
-12.03
-3.31
4.22
10.68
15.97
19.72
21.54
21.31
19.54
17.24
15.50
15.14
16.32
18.66
21.37
23.69
25.10
25.43
24.83
23.56
21.93
20.14
18.30
16.42
14.47
12.33
9.82
6.73
2.98
-1.33
-5.96
-10.58
-14.99
-19.21
-23.52
-28.34
-34.09
-40.90
-48.45
-55.82
-61.55
-64.11
-62.36
-56.13
-46.27
-34.42
-22.40
-11.67
-2.92
3.83
8.92
12.78
15.68
17.81
19.28
20.30
21.14
22.02
23.04
24.12
25.15
26.02
26.70
27.25
27.83
28.51
29.28
29.97
30.30
30.04
29.06
27.36
24.93
21.80
17.97
13.55
8.87
4.31
0.24
-3.27
-6.46
-9.80
-13.84
-18.91
-25.09
-32.18
-39.76
-47.11
-53.28
-57.21
-57.91
-54.93
-48.40
-39.16
-28.39
-17.36
-7.00
2.16
9.89
16.15
20.89
24.04
25.69
26.10
25.73
25.16
24.88
25.19
26.13
27.45
28.74
29.66
30.13
30.30
30.47
30.83
31.29
31.54
31.13
29.76
27.38
24.17
20.42
16.40
12.29
8.21
4.33
0.77
-2.36
-5.17
-8.08
-11.66
-16.48
-22.87
-30.72
-39.41
-47.91
-54.98
-59.46
-60.50
-57.74
-51.38
-42.10
-30.97
-19.20
-7.98
1.75
9.51
15.25
19.29
22.09
24.07
25.47
26.42
27.04
27.47
27.86
28.37
29.00
29.67
30.29
30.77
31.12
31.38
31.54
31.53
31.14
30.20
28.55
26.10
22.89
18.99
14.57
9.81
5.04
0.49
-3.62
-7.23
-10.42
-13.41
-16.58
-20.40
-25.28
-31.37
-38.51
-45.98
-52.70
-57.41
-59.07
-57.05
-51.37
-42.66
-31.91
-20.41
-9.42
-0.02
7.18
12.03
14.90
16.36
16.93
16.90
16.39
15.52
14.63
14.18
14.52
15.61
17.02
18.13
18.51
18.28
17.98
18.20
19.17
20.44
21.10
20.25
17.44
12.92
7.61
2.56
-1.43
-4.19
-6.13
-8.04
-10.70
-14.65
-19.92
-26.20
-32.83
-38.96
-43.63
-45.87
-44.94
-40.53
-32.96
-23.18
-12.48
-2.23
6.56
13.43
18.33
21.52
23.32
23.93
23.56
22.40
20.83
19.34
18.35
18.09
18.45
19.13
19.83
20.44
21.08
21.96
23.12
24.21
24.51
23.30
20.19
15.41
9.76
4.22
-0.49
-4.22
-7.29
-10.25
-13.49
-17.20
-21.47
-26.42
-32.30
-39.17
-46.58
-53.46
-58.27
-59.56
-56.56
-49.43
-39.27
-27.60
-15.87
-5.16
3.94
11.24
16.80
20.72
23.14
24.17
23.94
22.68
20.81
18.92
17.66
17.56
18.70
20.77
23.12
25.01
25.91
25.64
24.37
22.51
20.45
18.41
16.32
13.97
11.09
7.49
3.29
-1.19
-5.56
-9.50
-13.01
-16.39
-20.13
-24.77
-30.66
-37.84
-45.92
-54.14
-61.40
-66.44
-68.07
-65.55
-58.78
-48.47
-36.01
-23.09
-11.17
-1.13
6.89
13.23
18.39
22.54
25.53
27.09
27.13
26.08
24.80
24.22
24.88
26.70
28.94
30.81
31.72
31.66
31.09
30.57
30.44
30.55
30.42
29.43
27.19
23.70
19.28
14.54
9.98
5.91
2.37
-0.82
-3.97
-7.35
-11.27
-15.98
-21.70
-28.62
-36.67
-45.38
-53.72
-60.32
-63.77
-63.13
-58.26
-49.79
-38.93
-27.07
-15.32
-4.45
5.10
13.03
19.16
23.39
25.83
26.80
26.78
26.33
25.87
25.77
26.30
27.69
29.94
32.88
36.12
39.08
41.27
42.36
42.29
41.13
39.07
36.28
33.01
29.57
26.33
23.50
20.94
18.23
14.78
10.25
4.76
-1.12
-6.69
-11.45
-15.42
-19.05
-23.05
-28.04
-34.22
-41.29
-48.46
-54.62
-58.62
-59.44
-56.56
-50.10
-40.75
-29.64
-17.96
-6.73
3.36
11.89
18.64
23.45
26.26
27.18
26.55
25.01
23.31
22.18
22.05
22.96
24.60
26.47
28.11
29.25
29.81
29.86
29.52
28.92
28.17
27.31
26.34
25.12
23.47
21.17
18.09
14.33
10.12
5.83
1.77
-1.93
-5.26
-8.34
-11.39
-14.75
-18.84
-24.13
-30.96
-39.20
-48.22
-56.78
-63.29
-66.29
-64.87
-58.96
-49.41
-37.70
-25.49
-14.25
-4.89
2.29
7.43
10.89
13.04
14.08
14.20
13.61
12.64
11.82
11.65
12.43
14.16
16.52
19.02
21.20
22.74
23.53
23.56
22.89
21.53
19.48
16.73
13.38
9.62
5.66
1.64
-2.43
-6.71
-11.44
-16.82
-22.92
-29.53
-36.14
-41.99
-46.14
-47.62
-45.82
-40.64
-32.59
-22.76
-12.40
-2.66
5.67
12.28
17.12
20.29
21.96
22.35
21.74
20.53
19.12
17.90
17.13
16.92
17.25
18.04
19.14
20.40
21.60
22.51
22.93
22.72
21.76
20.09
17.77
14.95
11.75
8.24
4.23
-0.66
-6.92
-14.87
-24.28
-34.28
-43.42
-50.01
-52.69
-50.85
-44.84
-35.84
-25.40
-14.92
-5.37
2.81
9.55
14.93
18.95
21.56
22.73
22.52
21.19
19.13
16.81
14.67
13.02
12.04
11.75
12.05
12.74
13.58
14.25
14.45
13.83
12.10
9.10
4.89
-0.27
-5.97
-11.71
-17.15
-22.20
-27.11
-32.38
-38.47
-45.42
-52.62
-58.79
-62.29
-61.77
-56.69
-47.63
-36.07
-23.79
-12.26
-2.26
6.06
12.83
18.11
21.85
23.95
24.54
24.10
23.29
22.67
22.52
22.77
23.08
23.18
22.93
22.46
22.05
21.93
22.11
22.33
21.99
20.41
17.09
11.98
5.56
-1.23
-7.40
-12.34
-16.13
-19.55
-23.71
-29.51
-37.15
-46.00
-54.73
-61.65
-65.22
-64.44
-59.15
-49.95
-38.08
-25.00
-12.13
-0.54
9.08
16.46
21.61
24.77
26.39
27.07
27.44
27.99
28.96
30.27
31.66
32.80
33.49
33.64
33.31
32.68
31.86
31.09
30.44
29.90
29.19
27.87
25.44
21.59
16.33
10.00
3.15
-3.69
-10.19
-16.27
-21.99
-27.66
-33.62
-40.20
-47.64
-55.93
-64.64
-72.83
-79.24
-82.48
-81.54
-76.08
-66.65
-54.52
-41.26
-28.40
-16.96
-7.45
0.11
5.90
10.14
13.07
14.90
16.07
17.20
19.02
22.05
26.44
31.78
37.33
42.22
45.77
47.78
48.38
48.00
47.07
45.94
44.80
43.60
42.17
40.24
37.56
34.02
29.76
25.11
20.51
16.33
12.68
9.44
6.28
2.85
-1.20
-6.13
-12.02
-18.77
-25.89
-32.54
-37.51
-39.66
-38.15
-32.88
-24.52
-14.29
-3.66
6.07
14.04
19.95
23.85
26.04
26.83
26.45
25.13
23.06
20.59
18.22
16.48
15.80
16.32
17.87
19.95
21.94
23.33
23.88
23.59
22.57
20.97
18.83
16.23
13.23
9.94
6.49
3.05
-0.31
-3.63
-6.99
-10.44
-13.97
-17.46
-20.84
-24.22
-27.97
-32.52
-38.05
-44.11
-49.59
-52.93
-52.69
-48.09
-39.38
-27.81
-15.06
-2.75
8.06
16.90
23.70
28.52
31.39
32.38
31.70
29.82
27.44
25.29
23.94
23.67
24.42
25.85
27.48
28.80
29.43
29.25
28.32
26.98
25.61
24.48
23.59
22.60
21.00
18.32
14.35
9.28
3.65
-1.90
-6.75
-10.67
-13.76
-16.46
-19.45
-23.46
-28.93
-35.82
-43.48
-50.67
-55.88
-57.74
-55.53
-49.38
-40.24
-29.47
-18.38
-7.94
1.32
9.12
15.21
19.35
21.41
21.58
20.41
18.72
17.31
16.69
16.88
17.52
18.09
18.18
17.74
16.92
15.97
15.13
14.46
13.86
13.17
12.17
10.64
8.41
5.46
1.90
-2.00
-5.96
-9.81
-13.64
-17.71
-22.46
-28.27
-35.15
-42.71
-50.00
-55.67
-58.36
-57.06
-51.56
-42.58
-31.61
-20.30
-9.99
-1.32
5.68
11.32
15.81
19.12
21.13
21.92
21.82
21.40
21.16
21.22
21.45
21.56
21.40
21.10
20.97
21.27
21.96
22.78
23.22
22.74
21.03
17.98
13.79
8.84
3.63
-1.41
-6.01
-10.29
-14.65
-19.66
-25.80
-33.20
-41.40
-49.39
-55.76
-58.99
-58.08
-52.76
-43.76
-32.54
-20.81
-9.98
-0.83
6.53
12.36
16.94
20.38
22.65
23.75
23.89
23.58
23.33
23.50
24.12
24.90
25.34
25.12
24.23
23.08
22.24
22.13
22.85
24.04
25.04
25.24
24.25
22.02
18.78
14.93
10.85
6.85
3.03
-0.81
-5.08
-10.32
-16.88
-24.65
-32.87
-40.32
-45.57
-47.53
-45.69
-40.24
-31.97
-22.08
-11.81
-2.13
6.40
13.68
19.90
25.31
29.94
33.52
35.75
36.49
36.02
34.98
34.08
33.75
33.92
34.19
34.02
33.04
31.17
28.65
25.85
23.19
20.90
18.98
17.17
15.01
11.99
7.81
2.61
-3.02
-8.35
-12.80
-16.30
-19.34
-22.62
-26.79
-32.10
-38.33
-44.94
-51.14
-55.89
-58.14
-57.02
-52.12
-43.73
-32.76
-20.58
-8.57
2.22
11.20
18.17
23.18
26.30
27.63
27.30
25.65
23.21
20.74
18.95
18.33
18.98
20.59
22.61
24.52
25.96
26.78
26.94
26.39
25.09
23.10
20.65
18.01
15.42
12.82
10.00
6.73
2.94
-1.19
-5.45
-9.76
-14.36
-19.59
-25.64
-32.35
-39.24
-45.71
-51.23
-55.40
-57.75
-57.74
-54.82
-48.72
-39.86
-29.24
-18.33
-8.40
-0.18
6.30
11.45
15.67
19.15
21.79
23.38
24.01
23.96
23.81
24.02
24.74
25.76
26.59
26.79
26.21
25.02
23.69
22.68
22.21
22.16
22.08
21.41
19.69
16.75
12.77
8.08
3.03
-2.16
-7.38
-12.54
-17.51
-22.07
-25.95
-29.13
-31.91
-34.89
-38.60
-43.27
-48.39
-52.86
-55.31
-54.59
-50.28
-42.72
-32.93
-22.19
-11.73
-2.45
5.17
10.91
14.82
17.05
17.91
17.84
17.46
17.37
18.12
19.89
22.39
24.85
26.37
26.38
24.94
22.75
20.85
20.03
20.40
21.26
21.57
20.39
17.34
12.71
7.33
2.15
-2.16
-5.40
-7.89
-10.28
-13.29
-17.38
-22.65
-28.71
-34.89
-40.42
-44.56
-46.77
-46.72
-44.31
-39.63
-32.97
-24.70
-15.37
-5.65
3.64
11.63
17.60
21.10
22.14
21.20
19.06
16.50
14.15
12.35
11.20
10.72
10.91
11.72
12.90
14.09
14.85
14.83
13.89
12.10
9.65
6.83
3.91
1.06
-1.64
-4.24
-6.92
-9.98
-13.72
-18.44
-24.23
-30.87
-37.78
-43.97
-48.26
-49.60
-47.41
-41.84
-33.73
-24.38
-14.97
-6.31
1.35
8.07
13.85
18.45
21.50
22.67
22.08
20.28
18.09
16.27
15.37
15.46
16.35
17.57
18.66
19.25
19.13
18.32
17.00
15.46
13.89
12.31
10.45
7.94
4.57
0.43
-4.05
-8.34
-12.02
-15.04
-17.77
-20.78
-24.61
-29.58
-35.63
-42.32
-48.78
-53.94
-56.62
-55.87
-51.32
-43.29
-32.83
-21.36
-10.31
-0.66
7.15
13.08
17.34
20.14
21.64
22.09
21.93
21.69
21.83
22.58
23.77
24.98
25.69
25.61
24.77
23.52
22.31
21.44
20.97
20.56
19.84
18.44
16.28
13.43
10.09
6.41
2.45
-1.75
-6.16
-10.68
-15.24
-19.90
-24.88
-30.43
-36.59
-43.00
-48.80
-52.98
-54.62
-53.21
-48.82
-41.93
-33.22
-23.39
-13.20
-3.38
5.29
12.19
16.97
19.78
21.12
21.70
22.16
22.84
23.81
25.04
26.43
27.92
29.40
30.61
31.22
30.90
29.68
27.94
26.21
25.05
24.54
24.30
23.60
21.78
18.45
13.79
8.35
2.89
-1.93
-5.75
-8.65
-10.91
-13.03
-15.50
-18.71
-22.90
-28.11
-34.23
-40.88
-47.45
-53.03
-56.62
-57.34
-54.78
-49.08
-40.92
-31.21
-20.92
-10.87
-1.76
5.88
11.70
15.66
18.10
19.60
20.81
22.15
23.66
25.12
26.31
27.21
28.04
29.01
30.10
31.07
31.46
30.94
29.49
27.42
25.19
23.19
21.58
20.22
18.76
16.80
14.03
10.37
6.07
1.60
-2.50
-5.87
-8.57
-10.96
-13.52
-16.57
-20.22
-24.39
-29.07
-34.32
-40.12
-46.19
-51.69
-55.50
-56.50
-54.11
-48.58
-40.78
-31.84
-22.68
-13.82
-5.44
2.32
9.23
14.96
19.24
21.99
23.39
23.75
23.38
22.58
21.65
20.90
20.66
21.18
22.42
24.19
26.10
27.75
28.82
29.09
28.49
27.06
24.94
22.45
19.92
17.53
15.18
12.60
9.44
5.54
1.03
-3.72
-8.27
-12.28
-15.65
-18.45
-20.85
-23.10
-25.45
-28.19
-31.57
-35.59
-39.82
-43.41
-45.34
-44.71
-41.28
-35.35
-27.72
-19.24
-10.52
-1.85
6.51
14.16
20.45
24.69
26.55
26.29
24.70
22.72
21.13
20.25
20.07
20.35
20.84
21.40
21.89
22.16
22.12
21.77
21.23
20.67
20.10
19.25
17.70
15.10
11.33
6.68
1.64
-3.27
-7.67
-11.37
-14.44
-17.12
-19.75
-22.74
-26.39
-30.85
-35.86
-40.77
-44.63
-46.48
-45.58
-41.71
-35.16
-26.70
-17.36
-8.12
0.26
7.45
13.42
18.32
22.14
24.62
25.36
24.19
21.49
18.20
15.56
14.59
15.57
18.04
20.93
23.27
24.50
24.67
24.19
23.45
22.53
21.24
19.38
16.96
14.28
11.54
8.81
5.73
1.83
-3.12
-8.83
-14.45
-19.03
-21.97
-23.46
-24.33
-25.73
-28.56
-33.13
-39.10
-45.72
-51.99
-56.94
-59.67
-59.43
-55.84
-48.94
-39.31
-28.00
-16.17
-4.89
5.12
13.39
19.72
23.98
26.18
26.66
25.98
24.94
24.23
24.15
24.63
25.33
26.08
26.98
28.41
30.64
33.51
36.36
38.17
38.16
36.14
32.59
28.37
24.34
20.91
18.01
15.18
11.90
8.00
3.59
-0.95
-5.24
-9.13
-12.77
-16.46
-20.47
-24.93
-29.80
-35.03
-40.57
-46.42
-52.41
-58.04
-62.36
-64.27
-62.80
-57.50
-48.67
-37.34
-24.83
-12.48
-1.36
7.96
15.30
20.69
24.31
26.33
27.00
26.68
25.82
24.94
24.49
24.76
25.87
27.73
30.12
32.65
34.94
36.60
37.40
37.21
36.09
34.16
31.50
28.23
24.45
20.32
16.03
11.65
7.21
2.65
-2.07
-6.76
-11.08
-14.66
-17.36
-19.44
-21.44
-24.07
-27.92
-33.25
-39.91
-47.32
-54.56
-60.51
-64.05
-64.36
-61.09
-54.36
-44.73
-33.07
-20.39
-7.77
3.81
13.49
20.77
25.53
28.07
29.04
29.18
29.04
28.96
29.04
29.30
29.79
30.55
31.62
32.96
34.34
35.42
35.88
35.51
34.36
32.69
30.91
29.26
27.69
25.90
23.45
20.01
15.55
10.35
4.92
-0.28
-4.90
-8.93
-12.63
-16.35
-20.47
-25.30
-30.91
-37.23
-44.07
-51.18
-58.24
-64.75
-70.03
-73.15
-73.17
-69.31
-61.44
-50.20
-36.90
-23.14
-10.28
0.92
10.30
18.02
24.20
28.76
31.47
32.25
31.47
29.98
28.83
28.96
30.87
34.48
39.17
44.14
48.67
52.21
54.50
55.50
55.25
53.85
51.39
47.97
43.81
39.12
34.15
29.01
23.69
18.10
12.14
5.87
-0.48
-6.58
-12.12
-17.01
-21.33
-25.33
-29.37
-33.82
-39.00
-45.07
-51.93
-59.13
-65.71
-70.50
-72.29
-70.30
-64.36
-55.00
-43.26
-30.42
-17.72
-6.21
3.34
10.50
15.11
17.35
17.68
16.68
15.05
13.43
12.43
12.65
14.57
18.29
23.47
29.26
34.52
38.25
39.90
39.51
37.65
35.13
32.50
30.01
27.57
24.95
21.99
18.68
15.07
11.22
7.25
3.20
-0.78
-4.65
-8.34
-11.88
-15.44
-19.24
-23.53
-28.46
-34.00
-39.84
-45.34
-49.43
-50.90
-48.65
-42.21
-32.06
-19.59
-6.70
4.81
13.79
20.06
24.09
26.58
28.04
28.59
28.18
26.81
24.88
23.04
21.99
22.16
23.52
25.58
27.68
29.30
30.20
30.44
30.12
29.31
27.82
25.31
21.48
16.29
10.13
3.68
-2.22
-6.92
-10.25
-12.53
-14.46
-16.75
-19.90
-23.98
-28.84
-34.24
-39.98
-45.85
-51.47
-56.00
-58.30
-57.23
-52.20
-43.49
-32.25
-20.08
-8.46
1.58
9.64
15.72
19.92
22.33
23.03
22.17
20.11
17.49
15.04
13.42
13.00
13.80
15.56
17.80
20.13
22.22
23.84
24.70
24.45
22.68
19.14
13.86
7.34
0.34
-6.25
-11.81
-16.17
-19.65
-22.74
-26.06
-30.07
-35.06
-41.06
-47.78
-54.55
-60.20
-63.32
-62.71
-57.81
-48.96
-37.35
-24.60
-12.22
-1.22
8.00
15.41
21.17
25.38
28.13
29.49
29.58
28.60
26.87
24.70
22.49
20.64
19.37
18.85
19.03
19.71
20.51
20.99
20.68
19.17
16.35
12.33
7.40
1.96
-3.70
-9.39
-15.09
-20.88
-27.00
-33.75
-41.44
-50.15
-59.49
-68.53
-75.83
-79.89
-79.60
-74.60
-65.42
-53.26
-39.63
-25.90
-13.02
-1.48
8.60
17.28
24.55
30.33
34.41
36.67
37.24
36.57
35.33
34.22
33.76
34.14
35.20
36.55
37.69
38.29
38.08
36.90
34.66
31.35
27.03
21.90
16.23
10.35
4.49
-1.28
-7.13
-13.48
-20.85
-29.69
-40.05
-51.31
-62.21
-71.08
-76.26
-76.57
-71.70
-62.25
-49.46
-34.87
-19.98
-5.96
6.30
16.26
23.76
28.93
32.19
34.08
35.09
35.54
35.63
35.44
35.10
34.88
35.02
35.74
37.06
38.80
40.60
42.04
42.64
41.97
39.56
35.15
28.78
20.88
12.20
3.59
-4.23
-10.98
-16.93
-22.84
-29.64
-37.99
-47.78
-57.99
-66.78
-72.05
-72.23
-66.81
-56.52
-43.07
-28.49
-14.47
-2.02
8.50
17.08
23.79
28.62
31.58
32.85
32.86
32.33
32.04
32.51
33.87
35.79
37.58
38.57
38.44
37.32
35.82
34.63
34.14
34.19
34.08
32.82
29.64
24.31
17.24
9.32
1.49
-5.58
-11.71
-17.22
-22.77
-28.96
-36.27
-44.79
-54.28
-64.22
-73.86
-82.25
-88.41
-91.33
-90.07
-84.08
-73.36
-58.57
-41.00
-22.26
-3.92
12.73
26.80
37.82
45.53
50.07
51.79
51.50
50.25
49.13
48.92
49.95
52.01
54.58
57.05
58.93
59.95
60.03
59.19
57.60
55.51
53.13
50.51
47.38
43.25
37.66
30.51
22.20
13.62
5.68
-1.09
-6.73
-11.82
-17.18
-23.50
-31.15
-40.26
-50.64
-61.91
-73.32
-83.50
-90.57
-92.56
-88.14
-77.28
-61.48
-43.30
-25.42
-9.75
3.10
13.51
22.22
29.61
35.53
39.54
41.43
41.61
41.00
40.68
41.29
42.83
44.75
46.34
47.16
47.29
47.18
47.38
48.18
49.38
50.31
50.09
47.94
43.48
36.89
28.80
19.99
11.22
3.01
-4.30
-10.55
-15.75
-20.16
-24.47
-29.62
-36.44
-45.18
-55.14
-64.65
-71.59
-74.05
-71.07
-62.87
-50.72
-36.41
-21.58
-7.49
5.15
15.91
24.57
31.09
35.61
38.47
40.11
40.99
41.40
41.58
41.68
41.94
42.52
43.56
44.96
46.43
47.51
47.92
47.53
46.44
44.83
42.75
40.18
37.05
33.28
28.90
23.95
18.51
12.73
6.78
0.95
-4.47
-9.28
-13.51
-17.48
-21.80
-27.20
-34.29
-43.23
-53.56
-64.08
-73.02
-78.59
-79.38
-74.90
-65.71
-53.19
-39.07
-24.93
-11.81
-0.20
9.71
17.81
24.00
28.20
30.59
31.68
32.29
33.23
35.02
37.63
40.61
43.29
45.22
46.32
46.86
47.16
47.31
47.15
46.40
44.94
42.94
40.72
38.55
36.27
33.39
29.32
23.80
17.20
10.37
4.25
-0.64
-4.39
-7.69
-11.37
-16.08
-22.12
-29.42
-37.83
-47.11
-56.86
-66.34
-74.47
-79.91
-81.43
-78.34
-70.73
-59.55
-46.26
-32.47
-19.54
-8.26
1.15
8.92
15.39
20.80
25.10
28.21
30.21
31.50
32.80
34.74
37.53
40.81
43.81
45.76
46.40
46.05
45.40
45.06
45.17
45.31
44.86
43.26
40.30
36.24
31.54
26.69
22.06
17.77
13.79
9.92
5.84
1.23
-4.02
-9.82
-15.78
-21.42
-26.40
-30.77
-34.93
-39.55
-45.26
-52.30
-60.36
-68.48
-75.17
-78.95
-78.74
-74.28
-66.12
-55.38
-43.24
-30.69
-18.31
-6.49
4.29
13.45
20.34
24.59
26.30
26.15
25.07
23.98
23.50
23.83
24.87
26.42
28.33
30.49
32.90
35.43
37.90
40.03
41.49
41.97
41.30
39.37
36.22
32.10
27.43
22.75
18.53
14.93
11.76
8.57
4.88
0.53
-4.36
-9.33
-13.88
-17.70
-20.70
-23.16
-25.55
-28.56
-32.93
-39.13
-47.07
-55.79
-63.55
-68.28
-68.36
-63.25
-53.74
-41.55
-28.69
-16.68
-6.14
3.02
11.22
18.65
24.99
29.59
31.90
31.82
29.87
27.03
24.30
22.44
21.75
22.22
23.63
25.73
28.16
30.48
32.14
32.69
31.91
29.93
27.13
23.90
20.49
16.91
12.99
8.69
3.99
-0.96
-6.01
-11.07
-16.07
-20.89
-25.31
-29.19
-32.47
-35.40
-38.37
-41.81
-45.93
-50.66
-55.61
-60.16
-63.46
-64.60
-62.74
-57.35
-48.48
-36.88
-23.89
-11.02
0.48
9.95
17.33
22.92
27.04
29.85
31.38
31.77
31.30
30.53
29.95
29.93
30.43
31.15
31.74
32.01
32.08
32.19
32.48
32.70
32.24
30.44
26.97
21.99
16.19
10.30
4.77
-0.45
-5.61
-10.86
-15.96
-20.39
-23.68
-25.90
-27.69
-30.03
-33.70
-38.96
-45.33
-51.83
-57.36
-60.97
-61.97
-59.92
-54.71
-46.65
-36.56
-25.64
-15.22
-6.25
0.78
5.98
9.75
12.47
14.43
15.66
16.12
15.89
15.23
14.51
14.08
14.04
14.32
14.69
15.00
15.25
15.52
15.84
16.15
16.15
15.48
13.88
11.25
7.68
3.41
-1.28
-6.04
-10.48
-14.20
-16.98
-18.95
-20.58
-22.63
-25.76
-30.30
-36.09
-42.47
-48.56
-53.30
-55.76
-55.26
-51.49
-44.70
-35.56
-25.05
-14.19
-3.86
5.29
12.78
18.20
21.31
22.11
20.95
18.55
15.75
13.34
11.72
10.96
10.88
11.20
11.72
12.31
12.89
13.50
14.11
14.80
15.47
15.86
15.49
13.80
10.42
5.39
-0.77
-7.19
-13.07
-17.96
-21.90
-25.36
-28.99
-33.31
-38.56
-44.60
-50.95
-56.88
-61.48
-63.80
-63.11
-59.04
-51.77
-41.93
-30.46
-18.40
-6.77
3.54
11.83
17.58
20.63
21.29
20.29
18.61
17.15
16.41
16.43
16.87
17.38
17.78
18.16
18.64
19.27
19.90
20.33
20.37
19.92
18.84
16.91
13.77
9.12
3.01
-4.12
-11.44
-18.20
-24.02
-29.18
-34.46
-40.66
-48.07
-55.99
-62.90
-66.91
-66.59
-61.54
-52.60
-41.32
-29.44
-18.15
-7.95
1.13
9.23
16.24
21.90
25.86
28.08
28.81
28.54
27.81
26.99
26.24
25.54
24.93
24.45
24.31
24.69
25.64
26.91
27.93
28.00
26.49
23.14
18.14
12.13
5.99
0.45
-4.07
-7.73
-11.18
-15.32
-20.99
-28.47
-37.35
-46.54
-54.62
-60.18
-62.26
-60.55
-55.32
-47.27
-37.34
-26.52
-15.69
-5.50
3.75
11.91
18.91
24.59
28.69
31.03
31.75
31.43
30.96
31.21
32.55
34.80
37.35
39.47
40.82
41.34
41.35
41.09
40.65
39.89
38.51
36.27
32.95
28.47
22.91
16.54
9.77
3.10
-3.05
-8.53
-13.51
-18.44
-23.90
-30.30
-37.81
-46.12
-54.52
-61.88
-66.88
-68.24
-65.13
-57.51
-46.17
-32.53
-18.25
-4.73
7.12
16.93
24.62
30.16
33.58
35.07
35.03
34.13
33.11
32.59
32.94
34.24
36.39
39.12
42.01
44.48
45.91
45.86
44.30
41.70
38.70
35.85
33.28
30.64
27.40
23.25
18.24
12.76
7.23
1.88
-3.26
-8.36
-13.53
-18.84
-24.29
-30.02
-36.34
-43.61
-51.94
-60.94
-69.52
-76.06
-78.86
-76.70
-69.27
-57.35
-42.60
-27.07
-12.58
-0.25
9.52
17.06
22.89
27.43
30.95
33.58
35.46
36.85
38.10
39.57
41.43
43.62
45.95
48.11
49.93
51.30
52.23
52.60
52.15
50.64
47.93
44.22
39.98
35.86
32.23
29.08
25.97
22.24
17.46
11.63
5.26
-0.99
-6.60
-11.44
-15.67
-19.59
-23.49
-27.65
-32.40
-38.26
-45.63
-54.47
-63.96
-72.45
-77.78
-78.05
-72.36
-61.23
-46.40
-30.31
-15.13
-2.25
8.00
15.99
22.36
27.56
31.66
34.53
36.12
36.70
36.81
37.07
37.88
39.21
40.68
41.81
42.37
42.50
42.68
43.33
44.64
46.26
47.56
47.69
46.10
42.71
37.86
32.26
26.56
21.25
16.56
12.47
8.90
5.72
2.75
-0.37
-3.95
-8.21
-13.11
-18.35
-23.47
-28.30
-33.06
-38.45
-45.25
-53.80
-63.64
-73.42
-81.31
-85.51
-84.84
-79.01
-68.58
-54.70
-38.87
-22.71
-7.73
5.00
14.89
21.93
26.54
29.29
30.75
31.37
31.56
31.75
32.35
33.70
35.85
38.49
41.12
43.22
44.50
45.01
44.94
44.55
44.03
43.43
42.66
41.51
39.72
37.03
33.48
29.25
24.75
20.39
16.38
12.71
9.10
5.29
1.12
-3.35
-7.93
-12.48
-17.01
-21.65
-26.53
-31.76
-37.41
-43.64
-50.60
-58.43
-66.83
-74.84
-80.90
-83.18
-80.31
-72.04
-59.49
-44.77
-30.05
-16.91
-5.84
3.47
11.53
18.41
23.78
27.13
28.26
27.67
26.35
25.37
25.38
26.43
28.12
29.99
31.77
33.47
35.20
36.93
38.46
39.46
39.77
39.31
38.13
36.32
33.82
30.52
26.38
21.56
16.43
11.38
6.79
2.77
-0.70
-3.77
-6.54
-9.12
-11.64
-14.31
-17.39
-21.08
-25.56
-30.90
-37.23
-44.56
-52.63
-60.71
-67.63
-72.02
-72.70
-69.10
-61.50
-50.79
-38.19
-24.90
-11.87
0.20
10.76
19.35
25.60
29.38
30.85
30.54
29.15
27.51
26.35
26.12
26.86
28.29
29.92
31.24
32.06
32.54
33.06
34.04
35.53
37.18
38.35
38.34
36.82
33.98
30.45
26.96
24.05
21.79
19.85
17.65
14.70
10.79
6.04
0.79
-4.59
-9.79
-14.74
-19.52
-24.31
-29.39
-34.95
-41.03
-47.45
-53.86
-59.64
-64.07
-66.40
-65.94
-62.29
-55.48
-46.02
-34.83
-23.01
-11.59
-1.26
7.61
14.99
20.88
25.20
27.89
28.99
28.88
28.21
27.80
28.20
29.51
31.38
33.21
34.50
35.10
35.19
35.03
34.78
34.31
33.39
31.76
29.41
26.49
23.40
20.46
17.84
15.48
13.07
10.14
6.30
1.39
-4.34
-10.33
-15.88
-20.46
-23.93
-26.65
-29.27
-32.47
-36.77
-42.30
-48.80
-55.63
-61.85
-66.32
-68.00
-66.10
-60.46
-51.53
-40.29
-28.00
-15.83
-4.61
5.19
13.30
19.57
23.90
26.32
27.06
26.63
25.74
25.16
25.44
26.69
28.68
30.88
32.81
34.17
34.95
35.29
35.35
35.15
34.55
33.25
31.08
28.05
24.48
20.90
17.74
15.11
12.64
9.78
6.09
1.52
-3.55
-8.48
-12.78
-16.33
-19.47
-22.65
-26.28
-30.58
-35.62
-41.42
-47.95
-54.96
-61.71
-67.00
-69.37
-67.82
-62.07
-52.84
-41.41
-29.20
-17.31
-6.27
3.65
12.24
19.14
23.91
26.30
26.58
25.52
24.19
23.52
23.94
25.29
26.95
28.27
28.87
28.81
28.53
28.55
29.22
30.50
31.86
32.53
31.83
29.47
25.76
21.46
17.40
14.17
11.73
9.55
6.94
3.41
-0.97
-5.68
-10.11
-13.80
-16.81
-19.63
-22.87
-26.99
-32.13
-38.19
-44.86
-51.86
-58.75
-64.88
-69.25
-70.68
-68.25
-61.69
-51.70
-39.73
-27.54
-16.57
-7.53
-0.36
5.44
10.31
14.31
17.23
18.77
18.99
18.34
17.64
17.69
18.92
21.26
24.18
27.05
29.39
31.11
32.36
33.32
34.02
34.19
33.58
32.06
29.81
27.15
24.43
21.75
18.93
15.72
11.84
7.24
2.05
-3.42
-8.80
-13.73
-17.93
-21.33
-24.09
-26.69
-29.81
-34.09
-39.89
-46.93
-54.37
-60.93
-65.39
-66.84
-64.94
-59.87
-52.20
-42.66
-32.02
-21.06
-10.54
-1.13
6.68
12.69
17.04
20.08
22.19
23.69
24.75
25.48
25.96
26.31
26.60
27.01
27.70
28.90
30.77
33.25
35.96
38.25
39.45
39.04
36.99
33.67
29.68
25.59
21.77
18.27
15.04
11.92
8.87
5.80
2.61
-0.88
-4.84
-9.29
-14.14
-19.10
-23.94
-28.61
-33.24
-38.24
-43.98
-50.66
-57.97
-65.02
-70.44
-72.85
-71.24
-65.40
-55.92
-43.99
-31.01
-18.23
-6.54
3.44
11.35
16.96
20.36
21.99
22.56
22.92
23.60
24.73
26.13
27.43
28.45
29.20
29.89
30.74
31.96
33.59
35.53
37.45
38.82
39.03
37.55
34.28
29.61
24.42
19.67
15.95
13.17
10.70
7.72
3.68
-1.42
-7.04
-12.33
-16.61
-19.58
-21.49
-22.93
-24.65
-27.29
-31.32
-36.83
-43.67
-51.29
-58.77
-64.94
-68.54
-68.63
-64.86
-57.56
-47.72
-36.59
-25.41
-15.08
-6.07
1.48
7.60
12.41
16.07
18.74
20.59
21.83
22.69
23.43
24.34
25.66
27.49
29.75
32.17
34.49
36.60
38.54
40.50
42.56
44.52
45.89
46.14
44.86
42.09
38.23
33.87
29.54
25.42
21.35
17.00
12.11
6.68
0.96
-4.72
-10.07
-15.03
-19.66
-24.14
-28.64
-33.37
-38.65
-44.81
-52.06
-60.25
-68.57
-75.61
-79.68
-79.35
-73.96
-63.87
-50.24
-34.70
-18.85
-4.00
8.88
19.20
26.71
31.44
33.87
34.72
34.86
34.93
35.29
35.95
36.83
37.81
38.95
40.35
42.04
43.85
45.42
46.34
46.17
44.72
42.06
38.48
34.50
30.67
27.40
24.89
22.96
21.17
18.88
15.50
10.83
5.11
-1.03
-6.91
-12.14
-16.72
-21.04
-25.62
-30.85
-36.86
-43.59
-50.78
-58.03
-64.68
-69.74
-72.10
-70.78
-65.36
-56.23
-44.46
-31.47
-18.53
-6.54
3.95
12.72
19.57
24.36
27.02
27.64
26.58
24.42
21.95
19.96
19.12
19.75
21.74
24.52
27.40
29.77
31.34
32.10
32.20
31.71
30.55
28.54
25.56
21.65
17.04
12.07
7.00
1.99
-2.94
-7.85
-12.82
-17.85
-22.91
-27.95
-33.06
-38.36
-43.94
-49.67
-55.03
-59.06
-60.54
-58.48
-52.42
-42.81
-30.77
-17.82
-5.39
5.51
14.29
20.78
25.01
27.11
27.39
26.39
24.79
23.31
22.54
22.72
23.77
25.33
26.91
28.17
28.94
29.23
29.10
28.65
27.89
26.78
25.29
23.37
20.94
17.91
14.18
9.75
4.79
-0.50
-5.90
-11.32
-16.82
-22.58
-28.81
-35.65
-43.10
-50.99
-58.92
-66.23
-71.99
-75.18
-74.80
-70.33
-61.87
-50.27
-36.95
-23.36
-10.67
0.46
9.84
17.48
23.46
27.77
30.38
31.47
31.39
30.78
30.33
30.63
31.93
34.09
36.67
38.96
40.40
40.63
39.70
37.95
35.85
33.79
31.79
29.61
26.86
23.15
18.34
12.52
5.97
-0.84
-7.38
-13.14
-17.78
-21.34
-24.26
-27.45
-31.83
-38.08
-46.28
-55.75
-65.28
-73.39
-78.67
-79.99
-76.76
-69.00
-57.32
-42.95
-27.46
-12.56
0.37
10.50
17.68
22.35
25.27
27.24
28.92
30.70
32.63
34.60
36.34
37.64
38.50
39.08
39.65
40.48
41.79
43.51
45.40
47.03
47.94
47.74
46.23
43.41
39.47
34.66
29.25
23.49
17.58
11.67
5.88
0.27
-5.16
-10.51
-15.89
-21.38
-26.96
-32.63
-38.49
-44.82
-51.91
-59.95
-68.66
-77.14
-83.89
-87.25
-85.93
-79.34
-67.95
-53.05
-36.48
-20.03
-5.17
7.25
16.96
24.15
29.24
32.73
34.99
36.30
36.88
37.05
37.18
37.65
38.70
40.29
42.20
44.11
45.81
47.23
48.43
49.38
49.90
49.66
48.32
45.73
42.02
37.55
32.65
27.50
22.19
16.69
11.00
5.21
-0.61
-6.38
-12.10
-17.70
-23.07
-28.06
-32.70
-37.27
-42.43
-48.93
-57.26
-67.16
-77.49
-86.39
-91.82
-92.21
-86.97
-76.70
-62.79
-47.12
-31.34
-16.60
-3.45
8.01
17.74
25.71
31.83
36.04
38.53
39.77
40.49
41.38
42.97
45.33
48.15
50.85
52.98
54.31
54.97
55.30
55.49
55.46
54.75
52.87
49.47
44.64
38.88
32.89
27.29
22.38
18.08
14.06
9.97
5.58
0.83
-4.21
-9.41
-14.64
-19.86
-25.07
-30.45
-36.35
-43.20
-51.44
-61.13
-71.69
-81.80
-89.69
-93.50
-92.01
-84.90
-72.95
-57.73
-41.20
-25.20
-11.11
0.35
9.15
15.82
21.13
25.76
30.05
33.83
36.72
38.43
39.06
39.19
39.53
40.63
42.49
44.73
46.88
48.66
50.10
51.26
51.98
51.75
49.96
46.28
40.95
34.76
28.68
23.40
19.12
15.49
12.07
8.47
4.49
0.16
-4.52
-9.54
-14.87
-20.41
-25.95
-31.36
-36.81
-42.72
-49.65
-57.82
-66.78
-75.30
-81.56
-83.82
-81.00
-73.07
-61.05
-46.50
-31.10
-16.22
-2.82
8.42
17.08
23.07
26.59
28.23
28.77
28.99
29.34
29.98
30.83
31.77
32.82
34.04
35.55
37.39
39.39
41.23
42.46
42.61
41.35
38.57
34.50
29.56
24.34
19.27
14.50
9.90
5.19
0.21
-4.95
-9.94
-14.41
-18.22
-21.60
-24.97
-28.82
-33.41
-38.81
-44.99
-51.84
-59.03
-65.86
-71.10
-73.32
-71.29
-64.68
-54.23
-41.47
-28.00
-15.02
-3.05
7.73
17.08
24.39
28.96
30.42
29.20
26.51
23.99
23.02
24.26
27.35
31.30
34.92
37.44
38.71
39.16
39.34
39.59
39.86
39.83
39.03
37.16
34.10
29.91
24.72
18.71
12.11
5.21
-1.61
-8.06
-13.98
-19.50
-24.95
-30.82
-37.51
-45.21
-53.73
-62.34
-69.97
-75.21
-76.73
-73.67
-65.86
-53.97
-39.41
-23.98
-9.47
2.85
12.38
19.28
24.11
27.60
30.27
32.36
33.89
34.87
35.28
35.28
35.09
35.02
35.40
36.48
38.30
40.47
42.35
43.25
42.84
41.29
39.10
36.85
34.67
32.18
28.73
23.82
17.30
9.64
1.67
-5.80
-12.28
-17.72
-22.51
-27.23
-32.43
-38.49
-45.47
-53.23
-61.39
-69.31
-76.05
-80.44
-81.26
-77.50
-68.90
-56.14
-40.82
-25.06
-10.82
0.66
9.08
15.01
19.37
23.01
26.39
29.58
32.41
34.82
36.93
39.01
41.28
43.70
45.95
47.62
48.45
48.57
48.32
48.01
47.69
47.04
45.59
42.99
39.28
34.88
30.36
26.25
22.61
19.16
15.33
10.59
4.75
-1.94
-8.90
-15.40
-21.01
-25.79
-30.25
-35.23
-41.40
-48.99
-57.63
-66.46
-74.33
-80.10
-82.81
-81.76
-76.66
-67.65
-55.39
-40.96
-25.71
-10.96
2.21
13.18
21.77
28.13
32.68
35.90
38.19
39.84
41.03
41.87
42.44
42.82
43.15
43.59
44.23
45.06
45.98
46.80
47.25
47.13
46.16
44.10
40.75
36.04
30.15
23.60
17.11
11.36
6.74
3.05
-0.39
-4.39
-9.43
-15.45
-21.73
-27.30
-31.55
-34.50
-36.90
-40.00
-44.89
-52.13
-61.40
-71.60
-81.02
-87.75
-90.14
-87.22
-79.05
-66.64
-51.73
-36.20
-21.64
-8.99
1.48
9.94
16.73
22.08
26.07
28.83
30.52
31.51
32.27
33.19
34.47
36.06
37.75
39.28
40.48
41.29
41.81
42.09
42.09
41.74
40.85
39.19
36.63
33.03
28.38
22.86
16.83
10.74
5.00
-0.16
-4.78
-9.04
-13.19
-17.36
-21.51
-25.58
-29.72
-34.27
-39.70
-46.40
-54.18
-62.32
-69.45
-74.06
-74.83
-71.11
-63.03
-51.47
-37.75
-23.30
-9.51
2.63
12.48
19.81
24.73
27.49
28.42
27.93
26.55
24.86
23.56
23.25
24.16
26.20
28.92
31.68
34.00
35.56
36.21
35.99
34.97
33.24
30.97
28.32
25.44
22.28
18.71
14.48
9.49
3.83
-2.18
-8.14
-13.68
-18.66
-23.21
-27.66
-32.46
-38.03
-44.62
-52.11
-59.96
-67.26
-72.94
-75.91
-75.45
-71.33
-63.79
-53.47
-41.25
-28.12
-15.01
-2.79
7.86
16.47
22.81
26.94
29.18
29.96
29.71
28.90
27.88
27.03
26.71
27.26
28.86
31.43
34.58
37.61
39.81
40.63
39.94
37.89
34.86
31.28
27.40
23.30
18.93
14.14
8.88
3.29
-2.31
-7.61
-12.43
-16.96
-21.74
-27.42
-34.38
-42.53
-51.14
-59.06
-65.06
-68.10
-67.57
-63.32
-55.66
-45.34
-33.40
-20.88
-8.64
2.74
12.93
21.67
28.65
33.60
36.39
37.20
36.57
35.22
33.82
32.83
32.43
32.60
33.24
34.21
35.38
36.62
37.73
38.51
38.73
38.12
36.38
33.32
28.86
23.31
17.09
10.81
4.93
-0.36
-5.14
-9.68
-14.24
-19.06
-24.24
-29.86
-36.09
-43.03
-50.73
-58.96
-67.15
-74.34
-79.47
-81.50
-79.74
-73.96
-64.43
-51.93
-37.66
-22.99
-9.32
2.33
11.49
18.24
22.99
26.31
28.61
30.22
31.32
32.11
32.78
33.52
34.53
36.03
38.13
40.84
43.92
46.87
48.98
49.61
48.48
45.79
42.11
38.06
33.98
29.82
25.29
20.11
14.21
7.73
0.95
-5.83
-12.35
-18.44
-23.87
-28.50
-32.39
-35.92
-39.73
-44.59
-51.01
-58.88
-67.39
-75.13
-80.48
-82.02
-78.94
-71.13
-59.21
-44.34
-27.97
-11.69
3.13
15.37
24.47
30.41
33.70
35.18
35.67
35.85
36.07
36.44
37.04
37.99
39.44
41.48
44.03
46.85
49.62
51.91
53.29
53.30
51.54
47.83
42.49
36.23
29.99
24.59
20.26
16.58
12.68
7.78
1.58
-5.51
-12.64
-19.08
-24.50
-29.15
-33.56
-38.34
-43.87
-50.30
-57.59
-65.57
-73.65
-80.80
-85.47
-86.06
-81.48
-71.58
-57.45
-40.99
-24.25
-8.82
4.41
15.21
23.63
29.83
34.01
36.46
37.70
38.43
39.32
40.88
43.18
45.88
48.32
49.91
50.33
49.73
48.65
47.63
46.96
46.44
45.46
43.30
39.56
34.33
28.28
22.26
16.89
12.37
8.33
4.17
-0.54
-5.79
-11.12
-16.00
-20.09
-23.52
-26.69
-30.19
-34.38
-39.50
-45.72
-53.08
-61.41
-70.07
-77.76
-82.76
-83.46
-78.90
-69.20
-55.46
-39.43
-23.00
-7.71
5.40
15.86
23.61
28.85
31.95
33.31
33.48
33.06
32.74
33.02
34.09
35.78
37.62
39.23
40.45
41.45
42.45
43.56
44.62
45.18
44.78
43.13
40.12
35.84
30.53
24.49
18.29
12.51
7.64
3.80
0.66
-2.42
-6.12
-10.78
-16.30
-22.23
-28.00
-33.26
-38.14
-43.20
-49.12
-56.30
-64.40
-72.25
-78.10
-80.26
-77.58
-69.95
-58.11
-43.50
-27.71
-12.21
1.83
13.51
22.24
27.83
30.47
30.79
29.68
28.00
26.46
25.49
25.31
25.99
27.47
29.60
32.12
34.62
36.63
37.75
37.68
36.39
34.09
31.20
28.20
25.35
22.64
19.62
15.73
10.61
4.37
-2.31
-8.49
-13.33
-16.71
-19.23
-22.10
-26.52
-33.08
-41.44
-50.38
-58.22
-63.28
-64.42
-61.20
-53.94
-43.53
-31.14
-18.02
-5.17
6.64
16.91
25.25
31.34
35.00
36.26
35.62
33.73
31.51
29.63
28.47
28.05
28.28
29.14
30.67
32.87
35.40
37.64
38.72
37.95
35.22
31.06
26.36
21.99
18.33
15.12
11.74
7.54
2.27
-3.74
-9.90
-15.63
-20.72
-25.32
-29.82
-34.54
-39.62
-45.13
-51.05
-57.47
-64.29
-71.18
-77.21
-81.03
-81.15
-76.58
-67.24
-54.10
-38.89
-23.40
-9.08
3.35
13.69
22.00
28.29
32.51
34.70
35.17
34.57
33.68
33.16
33.32
34.17
35.54
37.23
39.04
40.71
41.90
42.31
41.72
40.08
37.57
34.55
31.31
28.05
24.78
21.30
17.32
12.53
6.79
0.25
-6.55
-12.92
-18.20
-22.14
-24.99
-27.42
-30.31
-34.53
-40.57
-48.50
-57.77
-67.19
-75.09
-79.70
-79.60
-74.18
-63.91
-50.14
-34.70
-19.36
-5.47
6.29
15.67
22.88
28.17
31.90
34.38
35.87
36.60
36.94
37.27
38.04
39.53
41.75
44.28
46.54
48.00
48.53
48.43
48.15
47.94
47.54
46.31
43.53
38.93
32.79
25.91
19.22
13.37
8.49
4.22
0.08
-4.36
-9.29
-14.56
-19.76
-24.51
-28.72
-32.62
-36.70
-41.43
-47.07
-53.63
-60.76
-67.71
-73.39
-76.56
-76.11
-71.36
-62.31
-49.73
-35.35
-21.00
-8.04
3.05
12.34
20.19
26.69
31.67
34.84
35.41
33.31
29.53
25.82
23.71
23.80
25.69
28.44
31.17
31.75
28.96
23.25
16.40
10.24
5.61
2.43
0.11
-1.75
-5.99
-14.48
-26.90
-40.83
-53.77
-64.47
-73.02
-80.19
-86.85
-97.77
-117.15
-146.48
-183.98
-226.25
-269.91
-312.19
-351.11
-367.10
-349.95
-304.70
-248.36
-196.20
-154.09
-121.16
-94.53
-74.45
-57.18
-44.17
-37.32
-36.53
-39.29
-42.14
-42.16
-38.52
-30.67
-18.26
-4.55
7.42
16.76
24.66
32.27
38.78
41.53
37.81
26.94
9.28
-11.76
-30.70
-42.60
-45.67
-41.94
-35.43
-29.47
-25.21
-22.90
-21.96
-21.64
-21.55
-21.66
-22.11
-22.59
-22.44
-20.88
-17.81
-13.72
-9.22
-4.89
-1.15
1.73
3.82
5.65
8.24
12.82
20.48
31.89
46.97
64.94
84.55
104.65
124.46
143.80
162.95
182.32
202.29
223.23
245.60
269.97
296.58
324.66
351.91
374.64
388.72
391.15
381.29
361.17
334.74
306.23
278.75
253.60
230.60
208.95
188.11
168.08
149.22
131.76
115.55
100.10
84.87
69.61
54.42
39.87
26.59
15.06
5.35
-2.92
-10.44
-17.89
-25.74
-34.08
-42.74
-51.38
-59.69
-67.31
-73.81
-78.59
-80.93
-80.16
-76.01
-68.72
-59.08
-48.25
-37.40
-27.49
-19.14
-12.58
-7.78
-4.60
-2.80
-2.10
-2.21
-2.72
-3.24
-3.39
-2.94
-1.87
-0.38
1.21
2.59
3.64
4.39
5.00
5.52
5.85
5.72
4.83
3.02
0.35
-2.91
-6.39
-9.80
-12.97
-15.94
-18.84
-21.80
-24.86
-27.86
-30.61
-32.94
-34.91
-36.75
-38.91
-41.83
-45.83
-50.94
-56.83
-62.78
-67.78
-70.65
-70.39
-66.45
-58.99
-48.87
-37.42
-26.04
-15.81
-7.27
-0.56
4.44
7.82
9.70
10.23
9.72
8.74
7.90
7.71
8.41
9.89
11.80
13.73
15.36
16.60
17.47
18.10
18.48
18.50
17.94
16.63
14.54
11.81
8.71
5.53
2.44
-0.52
-3.41
-6.35
-9.38
-12.49
-15.58
-18.49
-21.10
-23.41
-25.59
-27.97
-30.98
-34.95
-39.98
-45.77
-51.66
-56.67
-59.79
-60.17
-57.34
-51.32
-42.67
-32.33
-21.43
-11.01
-1.80
5.76
11.55
15.64
18.12
19.19
19.10
18.29
17.29
16.62
16.62
17.36
18.65
20.16
21.61
22.79
23.64
24.06
23.99
23.30
21.91
19.85
17.24
14.27
11.08
7.73
4.19
0.48
-3.31
-7.04
-10.52
-13.68
-16.55
-19.27
-22.04
-25.02
-28.37
-32.23
-36.72
-41.80
-47.18
-52.22
-55.95
-57.32
-55.55
-50.41
-42.33
-32.29
-21.45
-10.88
-1.31
6.80
13.25
17.92
20.81
22.08
22.08
21.32
20.37
19.68
19.50
19.81
20.46
21.23
21.97
22.60
23.06
23.28
23.14
22.49
21.24
19.42
17.17
14.70
12.17
9.64
7.02
4.16
0.89
-2.89
-7.07
-11.48
-15.82
-19.83
-23.34
-26.29
-28.83
-31.27
-34.04
-37.58
-42.13
-47.53
-53.15
-57.91
-60.60
-60.19
-56.17
-48.79
-38.86
-27.59
-16.17
-5.55
3.74
11.46
17.53
21.97
24.79
26.12
26.22
25.52
24.60
23.96
23.92
24.52
25.57
26.76
27.85
28.71
29.32
29.70
29.78
29.37
28.26
26.27
23.44
19.96
16.16
12.40
8.93
5.82
2.96
0.15
-2.83
-6.05
-9.45
-12.83
-16.00
-18.90
-21.72
-24.80
-28.54
-33.26
-38.92
-45.11
-51.01
-55.55
-57.61
-56.32
-51.35
-42.98
-32.17
-20.21
-8.49
1.90
10.25
16.34
20.26
22.29
22.79
22.13
20.77
19.17
17.84
17.18
17.41
18.51
20.23
22.18
23.97
25.35
26.24
26.66
26.65
26.16
25.06
23.26
20.83
17.96
14.96
12.04
9.23
6.36
3.23
-0.29
-4.06
-7.78
-11.09
-13.79
-16.00
-18.12
-20.68
-24.18
-28.83
-34.44
-40.37
-45.67
-49.24
-50.10
-47.63
-41.76
-33.02
-22.34
-10.92
0.21
10.27
18.81
25.62
30.56
33.48
34.33
33.24
30.67
27.35
24.08
21.56
20.14
19.81
20.22
20.94
21.53
21.74
21.49
20.80
19.73
18.29
16.43
14.06
11.09
7.55
3.58
-0.64
-4.91
-9.07
-12.99
-16.65
-20.05
-23.27
-26.52
-30.14
-34.41
-39.49
-45.13
-50.67
-55.11
-57.39
-56.69
-52.67
-45.56
-36.03
-25.00
-13.47
-2.37
7.49
15.46
21.09
24.24
25.06
24.08
22.00
19.56
17.30
15.57
14.47
13.97
13.98
14.42
15.15
15.97
16.63
16.88
16.47
15.24
13.09
10.05
6.21
1.79
-2.93
-7.62
-12.05
-16.15
-20.12
-24.37
-29.38
-35.45
-42.54
-50.09
-57.05
-62.13
-64.09
-62.13
-56.17
-46.82
-35.31
-23.00
-11.13
-0.60
8.10
14.74
19.26
21.71
22.29
21.36
19.49
17.27
15.21
13.68
12.79
12.51
12.75
13.41
14.36
15.48
16.57
17.36
17.57
16.90
15.12
12.17
8.12
3.26
-2.03
-7.37
-12.48
-17.30
-22.04
-27.10
-32.95
-39.87
-47.74
-55.96
-63.42
-68.80
-70.86
-68.85
-62.69
-52.99
-40.84
-27.46
-13.99
-1.34
9.85
19.14
26.31
31.36
34.46
36.00
36.50
36.43
36.20
36.02
35.97
36.03
36.19
36.43
36.78
37.17
37.45
37.38
36.69
35.12
32.54
28.95
24.45
19.21
13.45
7.37
1.21
-4.80
-10.49
-15.88
-21.25
-27.07
-33.86
-41.83
-50.61
-59.17
-66.03
-69.68
-69.06
-63.93
-54.87
-43.03
-29.73
-16.12
-3.04
8.96
19.44
28.03
34.46
38.63
40.72
41.23
40.83
40.18
39.79
39.91
40.60
41.76
43.23
44.78
46.10
46.89
46.86
45.84
43.86
41.05
37.66
33.85
29.72
25.27
20.44
15.19
9.56
3.67
-2.30
-8.12
-13.61
-18.72
-23.59
-28.58
-34.21
-40.85
-48.59
-56.97
-64.97
-71.19
-74.20
-72.96
-67.13
-57.16
-44.19
-29.67
-15.03
-1.43
10.42
20.22
27.99
33.91
38.25
41.32
43.41
44.81
45.77
46.55
47.33
48.24
49.32
50.48
51.59
52.44
52.85
52.64
51.62
49.68
46.74
42.85
38.17
32.95
27.50
22.02
16.58
11.13
5.55
-0.26
-6.29
-12.40
-18.39
-24.02
-29.14
-33.82
-38.32
-43.14
-48.80
-55.64
-63.48
-71.56
-78.58
-82.95
-83.30
-78.84
-69.61
-56.48
-40.91
-24.57
-8.96
4.84
16.28
25.19
31.71
36.09
38.67
39.87
40.21
40.30
40.68
41.66
43.29
45.31
47.41
49.31
50.91
52.18
53.06
53.36
52.74
50.92
47.81
43.61
38.74
33.66
28.65
23.78
18.91
13.79
8.28
2.35
-3.85
-10.07
-16.01
-21.50
-26.54
-31.36
-36.37
-42.10
-48.95
-56.93
-65.50
-73.55
-79.60
-82.21
-80.38
-73.83
-63.12
-49.40
-34.14
-18.85
-4.82
7.04
16.20
22.61
26.56
28.57
29.23
29.09
28.57
28.05
27.86
28.29
29.51
31.46
33.84
36.22
38.20
39.52
40.11
40.03
39.31
37.98
36.00
33.32
29.95
25.97
21.50
16.71
11.79
6.87
2.13
-2.38
-6.66
-10.82
-15.08
-19.72
-25.04
-31.29
-38.59
-46.72
-55.09
-62.65
-68.08
-70.10
-67.85
-61.22
-50.86
-38.01
-24.15
-10.56
1.86
12.66
21.64
28.70
33.69
36.53
37.29
36.35
34.44
32.39
30.96
30.59
31.30
32.78
34.67
36.62
38.39
39.75
40.43
40.10
38.50
35.60
31.63
27.01
22.16
17.32
12.50
7.62
2.58
-2.60
-7.78
-12.84
-17.71
-22.45
-27.11
-31.81
-36.69
-41.92
-47.74
-54.32
-61.47
-68.46
-73.99
-76.47
-74.53
-67.60
-56.15
-41.61
-25.87
-10.71
2.64
13.58
22.03
28.12
32.02
33.90
34.01
32.78
30.76
28.59
26.81
25.79
25.67
26.38
27.65
29.11
30.36
31.06
31.04
30.27
28.83
26.81
24.25
21.13
17.41
13.13
8.37
3.31
-1.90
-7.09
-12.15
-16.96
-21.44
-25.60
-29.58
-33.67
-38.24
-43.60
-49.87
-56.85
-63.80
-69.59
-72.81
-72.17
-66.92
-57.14
-43.82
-28.60
-13.25
0.77
12.61
22.03
29.09
33.96
36.74
37.53
36.55
34.29
31.49
28.95
27.38
27.11
28.12
29.98
32.09
33.82
34.67
34.35
32.83
30.30
27.01
23.29
19.38
15.36
11.19
6.80
2.10
-2.83
-7.78
-12.48
-16.65
-20.21
-23.30
-26.34
-29.83
-34.29
-39.96
-46.67
-53.73
-59.97
-63.94
-64.30
-60.23
-51.71
-39.60
-25.36
-10.68
3.03
14.83
24.23
31.10
35.43
37.28
36.78
34.32
30.55
26.33
22.55
19.90
18.66
18.70
19.57
20.68
21.48
21.62
21.02
19.79
18.13
16.18
13.88
10.99
7.23
2.41
-3.34
-9.67
-16.11
-22.30
-28.08
-33.55
-38.92
-44.36
-50.03
-56.05
-62.61
-69.85
-77.65
-85.34
-91.66
-94.96
-93.65
-86.85
-74.72
-58.41
-39.73
-20.58
-2.53
13.40
26.65
36.95
44.20
48.45
49.95
49.28
47.28
44.86
42.82
41.64
41.48
42.17
43.35
44.66
45.82
46.63
47.05
47.03
46.44
45.07
42.61
38.83
33.70
27.49
20.73
14.04
7.91
2.53
-2.26
-6.85
-11.75
-17.36
-23.90
-31.16
-38.52
-44.91
-48.98
-49.44
-45.44
-36.90
-24.59
-9.95
5.27
19.43
31.21
39.86
45.14
47.24
46.66
44.08
40.20
35.64
30.87
26.22
21.92
18.14
14.96
12.37
10.23
8.36
6.56
4.70
2.68
0.46
-2.08
-5.08
-8.63
-12.68
-17.02
-21.31
-25.28
-28.83
-32.19
-35.82
-40.32
-46.04
-52.86
-60.03
-66.17
-69.59
-68.81
-63.03
-52.45
-38.20
-21.94
-5.35
10.28
24.12
35.70
44.71
50.84
53.91
54.06
51.85
48.20
44.10
40.34
37.25
34.77
32.65
30.67
28.79
27.06
25.49
23.92
21.92
18.97
14.63
8.81
1.78
-5.86
-13.42
-20.34
-26.34
-31.48
-36.14
-40.82
-46.13
-52.48
-60.00
-68.39
-76.77
-83.83
-88.03
-88.04
-83.10
-73.31
-59.69
-43.86
-27.64
-12.58
0.35
10.80
18.85
24.81
28.92
31.40
32.45
32.39
31.71
31.01
30.77
31.22
32.24
33.44
34.37
34.76
34.57
34.02
33.34
32.59
31.51
29.63
26.44
21.59
15.20
7.79
0.15
-6.95
-13.10
-18.35
-23.20
-28.36
-34.47
-41.90
-50.55
-59.84
-68.62
-75.41
-78.60
-76.89
-69.69
-57.42
-41.45
-23.76
-6.37
9.16
21.95
31.85
39.10
44.11
47.27
48.89
49.25
48.69
47.62
46.49
45.70
45.49
45.86
46.61
47.42
47.94
47.89
47.06
45.35
42.73
39.24
34.99
30.20
25.10
19.92
14.73
9.47
4.00
-1.83
-8.04
-14.42
-20.66
-26.41
-31.59
-36.39
-41.39
-47.27
-54.51
-63.05
-72.04
-79.97
-85.01
-85.57
-80.74
-70.59
-56.14
-38.97
-20.87
-3.41
12.26
25.42
35.66
42.85
47.04
48.59
48.16
46.68
45.10
44.15
44.19
45.13
46.61
48.18
49.49
50.34
50.67
50.50
49.78
48.40
46.18
42.98
38.75
33.67
28.11
22.47
17.10
12.12
7.40
2.68
-2.27
-7.51
-12.90
-18.21
-23.21
-27.81
-32.06
-36.18
-40.54
-45.65
-52.01
-59.81
-68.68
-77.55
-84.66
-88.07
-86.25
-78.58
-65.63
-48.95
-30.57
-12.41
4.14
18.30
29.78
38.50
44.52
48.04
49.48
49.53
49.09
49.00
49.84
51.75
54.45
57.48
60.44
63.10
65.46
67.59
69.47
70.90
71.61
71.34
70.02
67.82
65.10
62.28
59.69
57.48
55.63
54.00
52.40
50.65
48.69
46.50
44.18
41.81
39.40
36.77
33.60
29.46
24.00
17.16
9.17
0.55
-8.02
-15.89
-22.61
-28.00
-32.13
-35.21
-37.45
-38.96
-39.65
-39.35
-37.90
-35.36
-32.07
-28.64
-25.77
-23.98
-23.46
-23.89
-24.60
-24.76
-23.56
-20.48
-15.48
-8.93
-1.53
5.95
12.89
18.82
23.43
26.34
26.97
24.55
18.43
8.43
-4.87
-20.10
-35.54
-49.64
-61.55
-71.35
-79.79
-87.75
-95.74
-103.53
-110.29
-115.01
-116.98
-116.19
-113.45
-110.21
-108.14
-108.68
-112.44
-118.90
-126.43
-132.81
-135.98
-134.83
-129.49
-121.14
-111.37
-101.43
-91.95
-83.04
-74.64
-66.95
-60.44
-55.56
-52.47
-50.80
-49.79
-48.67
-46.92
-44.42
-41.36
-38.06
-34.82
-31.86
-29.36
-27.58
-26.80
-27.27
-29.09
-32.07
-35.79
-39.69
-43.09
-45.44
-46.26
-45.25
-42.38
-37.78
-31.71
-24.46
-16.18
-6.97
3.14
14.00
25.21
36.03
45.44
52.22
55.30
54.13
49.11
41.66
34.05
28.85
28.13
32.87
42.78
56.48
72.18
88.22
103.45
117.21
129.08
138.42
144.41
146.07
142.72
134.43
122.12
107.45
92.32
78.32
66.42
56.90
49.64
44.36
40.79
38.66
37.64
37.31
37.19
36.87
36.08
34.76
32.96
30.88
28.79
26.99
25.71
25.11
25.24
26.13
27.80
30.17
32.95
35.51
36.93
36.30
33.12
27.60
20.68
13.75
8.20
4.98
4.34
5.93
8.95
12.47
15.68
18.16
19.95
21.37
22.65
23.65
23.89
22.91
20.64
17.67
14.95
13.19
12.33
11.42
9.20
4.85
-1.37
-8.17
-13.77
-16.79
-16.71
-13.93
-9.32
-3.75
2.12
7.89
13.19
17.65
20.84
22.44
22.40
20.98
18.67
15.95
13.01
9.61
5.22
-0.66
-8.06
-16.27
-23.92
-29.41
-31.45
-29.52
-23.94
-15.66
-5.89
4.30
14.07
22.80
30.05
35.50
39.00
40.65
40.71
39.58
37.65
35.20
32.39
29.18
25.49
21.19
16.32
11.05
5.74
0.67
-4.12
-9.08
-15.09
-23.26
-34.56
-49.42
-67.57
-88.10
-109.78
-131.27
-151.44
-169.40
-184.70
-197.30
-207.62
-216.30
-223.83
-230.16
-234.52
-235.58
-231.94
-222.87
-208.61
-190.47
-170.33
-150.07
-130.93
-113.21
-96.39
-79.58
-62.02
-43.57
-24.89
-7.18
8.31
20.79
30.20
37.15
42.56
47.17
51.35
55.07
58.15
60.42
61.87
62.54
62.39
61.30
59.15
55.94
51.84
47.17
42.28
37.36
32.40
27.14
21.18
14.10
5.72
-3.63
-12.99
-20.79
-25.27
-25.00
-19.44
-9.20
4.16
18.61
32.30
44.01
53.25
60.11
64.87
67.83
69.24
69.35
68.48
67.03
65.35
63.73
62.30
61.09
60.11
59.36
58.86
58.66
58.67
58.72
58.51
57.72
56.09
53.51
50.07
46.01
41.66
37.33
33.23
29.42
25.75
21.83
17.21
11.55
4.88
-2.16
-8.33
-12.15
-12.28
-8.14
-0.13
10.43
21.65
31.71
39.26
43.80
45.57
45.38
44.18
42.79
41.70
41.03
40.65
40.33
39.96
39.67
39.86
41.14
44.08
49.01
55.88
64.22
73.24
82.09
90.11
96.92
102.56
107.38
111.94
116.99
123.38
131.64
141.58
151.93
160.48
165.00
164.33
159.34
152.82
148.40
148.94
155.22
165.76
177.59
187.65
193.87
195.53
192.74
185.90
175.28
161.19
144.36
126.13
108.13
91.76
77.66
65.60
54.66
43.80
32.36
20.22
7.78
-4.39
-15.80
-26.27
-36.02
-45.49
-55.14
-65.26
-75.79
-86.29
-96.16
-104.80
-111.88
-117.44
-121.88
-125.73
-129.40
-132.98
-136.19
-138.48
-139.24
-137.97
-134.50
-129.01
-121.94
-113.90
-105.53
-97.33
-89.65
-82.67
-76.41
-70.80
-65.63
-60.73
-56.03
-51.59
-47.61
-44.29
-41.56
