1520877356.00
64.000000
-0.00
-0.00
-0.00
-0.00
-0.00
-0.00
-0.00
-0.00
-0.00
-0.00
0.00
0.01
0.01
-0.00
-0.03
-0.05
-0.05
0.00
0.13
0.36
0.66
1.01
1.37
1.72
2.06
2.40
2.79
3.24
3.80
4.42
5.06
5.66
6.20
6.68
7.15
7.68
8.31
9.14
10.09
11.04
11.88
12.56
13.14
13.76
14.65
15.96
17.91
20.32
22.90
25.38
27.58
29.57
31.68
34.32
37.81
42.54
48.15
54.10
59.83
64.97
69.58
74.14
79.34
85.71
93.76
103.00
112.62
121.73
129.77
136.75
143.30
150.75
157.77
166.64
177.95
191.79
206.97
220.57
228.25
225.36
208.53
176.87
132.76
80.05
23.07
-34.94
-92.44
-149.16
-205.23
-260.37
-313.74
-363.87
-409.83
-450.91
-486.50
-515.74
-537.23
-549.22
-549.96
-538.37
-514.21
-478.67
-433.88
-382.45
-327.02
-269.84
-212.63
-156.66
-102.95
-52.37
-5.90
35.58
71.43
101.35
125.50
144.38
158.69
169.15
176.37
180.75
182.57
182.07
179.51
175.23
169.65
163.18
156.15
148.81
141.30
133.69
126.02
118.33
110.69
103.16
95.80
88.68
81.83
75.25
68.95
62.95
57.25
51.86
46.78
42.03
37.59
33.45
29.61
26.07
22.81
19.83
17.11
14.67
12.48
10.54
8.83
7.35
6.07
4.97
4.05
3.27
2.62
2.09
1.65
1.30
1.01
0.79
0.61
0.47
0.37
0.28
0.22
0.18
0.15
0.13
0.12
0.12
0.13
0.14
0.16
0.19
0.22
0.26
0.30
0.34
0.39
0.43
0.48
0.52
0.58
0.63
0.68
0.74
0.80
0.87
0.94
1.03
1.12
1.22
1.33
1.46
1.60
1.76
1.94
2.14
2.36
2.60
2.87
3.17
3.50
3.85
4.25
4.67
5.14
5.64
6.17
6.75
7.37
8.03
8.74
9.49
10.29
11.13
12.01
12.94
13.92
14.96
16.07
17.23
18.46
19.72
20.99
22.22
23.31
24.19
24.72
24.79
24.28
23.12
21.24
18.63
15.37
11.50
7.23
2.71
-1.83
-6.18
-10.13
-13.51
-16.19
-18.12
-19.31
-19.80
-19.70
-19.11
-18.14
-16.85
-15.33
-13.64
-11.86
-10.03
-8.22
-6.48
-4.84
-3.29
-1.76
-0.20
1.43
3.11
4.85
6.62
8.28
9.82
11.29
12.82
14.54
16.50
18.69
21.02
23.41
25.55
27.37
28.99
30.72
32.82
35.42
38.41
41.56
44.61
46.93
48.37
49.17
49.85
50.89
52.52
54.53
56.44
57.72
57.37
55.06
51.00
45.64
39.29
31.69
21.67
7.01
-10.27
-30.33
-53.56
-80.19
-109.79
-140.77
-170.19
-194.18
-208.91
-211.96
-204.00
-187.81
-167.44
-146.72
-128.18
-112.64
-99.85
-89.25
-80.58
-74.45
-71.07
-69.83
-69.21
-67.21
-62.12
-53.15
-40.65
-25.94
-10.97
2.72
14.36
24.04
32.27
39.68
46.56
52.84
58.24
62.38
65.17
66.84
67.85
68.61
69.28
69.77
69.80
69.08
67.48
65.14
62.40
59.70
57.35
55.41
53.69
51.81
49.38
46.16
42.20
37.80
33.42
29.40
25.82
22.47
18.92
14.85
10.12
4.89
-0.54
-5.89
-11.00
-15.77
-20.18
-24.25
-28.14
-32.20
-36.94
-42.77
-49.72
-57.09
-63.63
-67.76
-68.19
-64.35
-56.59
-46.03
-34.20
-22.58
-12.24
-3.68
3.13
8.54
13.06
17.09
20.86
24.38
27.52
30.11
32.03
33.33
34.17
34.83
35.55
36.41
37.33
38.08
38.46
38.34
37.80
36.98
35.99
34.84
33.35
31.36
28.72
25.55
22.06
18.58
15.36
12.49
9.89
7.39
4.78
1.93
-1.20
-4.54
-7.99
-11.38
-14.60
-17.58
-20.38
-23.22
-26.49
-30.56
-35.70
-41.77
-48.13
-53.63
-56.95
-56.98
-53.26
-46.13
-36.58
-25.92
-15.34
-5.66
2.77
9.92
15.98
21.08
25.31
28.73
31.40
33.43
34.98
36.25
37.41
38.59
39.86
41.16
42.33
43.14
43.42
43.09
42.27
41.23
40.23
39.40
38.69
37.81
36.40
34.23
31.26
27.79
24.26
21.11
18.54
16.41
14.41
12.13
9.40
6.28
2.99
-0.23
-3.28
-6.27
-9.42
-12.84
-16.54
-20.48
-24.66
-29.15
-34.03
-39.13
-43.89
-47.43
-48.83
-47.51
-43.47
-37.22
-29.67
-21.74
-14.22
-7.63
-2.27
1.77
4.54
6.26
7.25
7.91
8.60
9.58
10.95
12.62
14.34
15.82
16.82
17.27
17.30
17.16
17.02
16.90
16.59
15.78
14.26
12.06
9.52
7.06
5.01
3.42
2.05
0.48
-1.68
-4.60
-8.19
-12.10
-15.94
-19.34
-22.17
-24.52
-26.72
-29.21
-32.39
-36.36
-40.85
-45.11
-48.12
-48.93
-46.94
-42.19
-35.29
-27.18
-18.85
-11.09
-4.37
1.11
5.31
8.30
10.21
11.26
11.74
11.92
12.03
12.23
12.67
13.39
14.41
15.63
16.84
17.81
18.36
18.46
18.17
17.55
16.61
15.26
13.44
11.09
8.28
5.18
1.90
-1.45
-4.78
-7.97
-10.89
-13.42
-15.59
-17.64
-20.01
-23.18
-27.46
-32.77
-38.61
-44.08
-48.12
-49.84
-48.72
-44.79
-38.55
-30.77
-22.33
-14.05
-6.59
-0.44
4.19
7.34
9.27
10.37
11.03
11.54
12.04
12.58
13.22
13.95
14.77
15.59
16.28
16.69
16.73
16.40
15.75
14.83
13.64
12.08
10.06
7.53
4.56
1.31
-1.96
-5.02
-7.69
-9.94
-11.89
-13.77
-15.86
-18.43
-21.74
-25.94
-31.00
-36.64
-42.28
-47.09
-50.22
-51.01
-49.15
-44.84
-38.63
-31.31
-23.67
-16.36
-9.81
-4.14
0.70
4.85
8.38
11.28
13.54
15.19
16.42
17.51
18.73
20.19
21.77
23.20
24.23
24.74
24.72
24.27
23.42
22.10
20.27
17.96
15.32
12.60
9.96
7.38
4.71
1.78
-1.43
-4.77
-8.05
-11.19
-14.23
-17.36
-20.79
-24.60
-28.87
-33.67
-39.11
-45.10
-51.22
-56.54
-59.79
-59.80
-55.99
-48.68
-38.99
-28.40
-18.27
-9.42
-2.04
4.11
9.42
14.16
18.43
22.17
25.41
28.26
30.96
33.69
36.51
39.26
41.65
43.44
44.56
45.11
45.31
45.34
45.21
44.88
44.25
43.32
42.14
40.75
39.13
37.14
34.64
31.61
28.14
24.45
20.65
16.73
12.60
8.10
3.19
-2.01
-7.31
-12.46
-17.33
-21.85
-26.03
-29.94
-33.71
-37.49
-41.50
-45.95
-50.97
-56.50
-62.12
-67.11
-70.46
-71.15
-68.52
-62.47
-53.62
-43.18
-32.55
-22.92
-14.89
-8.47
-3.18
1.61
6.35
11.23
16.19
21.02
25.50
29.51
32.98
35.90
38.24
39.97
41.04
41.49
41.46
41.16
40.80
40.44
40.04
39.42
38.46
37.16
35.65
34.14
32.69
31.18
29.31
26.80
23.54
19.74
15.80
12.10
8.86
5.99
3.24
0.34
-2.83
-6.23
-9.75
-13.35
-17.10
-21.19
-25.80
-31.01
-36.74
-42.89
-49.34
-55.94
-62.35
-67.97
-71.94
-73.31
-71.42
-66.20
-58.22
-48.52
-38.26
-28.39
-19.43
-11.50
-4.43
1.99
7.95
13.51
18.65
23.31
27.44
31.03
34.08
36.67
38.80
40.55
42.01
43.30
44.55
45.84
47.10
48.11
48.61
48.45
47.67
46.53
45.30
44.12
42.83
41.13
38.73
35.57
31.92
28.24
24.94
22.20
19.86
17.48
14.55
10.73
6.01
0.72
-4.60
-9.43
-13.48
-16.77
-19.66
-22.62
-26.13
-30.49
-35.78
-41.83
-48.20
-54.28
-59.22
-62.13
-62.24
-59.16
-53.01
-44.47
-34.55
-24.34
-14.73
-6.26
0.92
6.92
11.95
16.25
20.00
23.33
26.37
29.22
31.99
34.70
37.33
39.80
42.02
43.88
45.34
46.37
46.93
47.06
46.76
46.09
45.14
43.98
42.62
41.05
39.14
36.80
34.06
31.06
28.03
25.17
22.53
19.98
17.25
14.17
10.67
6.84
2.78
-1.43
-5.81
-10.34
-14.94
-19.45
-23.69
-27.62
-31.38
-35.30
-39.66
-44.53
-49.61
-54.22
-57.40
-58.25
-56.14
-51.05
-43.55
-34.67
-25.57
-17.11
-9.59
-2.94
3.16
8.85
14.01
18.37
21.71
24.09
25.82
27.28
28.74
30.17
31.38
32.16
32.48
32.49
32.47
32.62
33.00
33.45
33.64
33.16
31.77
29.41
26.30
22.83
19.37
16.15
13.18
10.26
7.22
4.01
0.74
-2.39
-5.23
-7.83
-10.37
-13.17
-16.51
-20.58
-25.45
-30.92
-36.60
-41.81
-45.64
-47.19
-45.83
-41.46
-34.58
-26.24
-17.71
-10.03
-3.77
0.99
4.58
7.34
9.47
10.94
11.66
11.64
11.11
10.48
10.12
10.22
10.71
11.38
12.03
12.58
13.06
13.49
13.85
13.94
13.56
12.54
10.82
8.46
5.55
2.24
-1.33
-4.92
-8.23
-10.99
-13.09
-14.67
-16.19
-18.23
-21.27
-25.53
-30.87
-36.79
-42.60
-47.48
-50.63
-51.43
-49.48
-44.80
-37.82
-29.40
-20.59
-12.42
-5.62
-0.47
3.09
5.39
6.76
7.44
7.60
7.43
7.13
7.05
7.45
8.43
9.82
11.31
12.52
13.25
13.51
13.44
13.17
12.77
12.13
11.12
9.61
7.56
5.09
2.39
-0.37
-3.09
-5.73
-8.39
-11.16
-14.16
-17.61
-21.73
-26.65
-32.26
-38.09
-43.32
-46.98
-48.25
-46.74
-42.55
-36.24
-28.57
-20.34
-12.28
-4.98
1.10
5.76
9.09
11.43
13.20
14.79
16.34
17.81
19.05
20.01
20.81
21.58
22.40
23.18
23.71
23.75
23.25
22.32
21.20
20.05
18.87
17.43
15.46
12.76
9.36
5.47
1.45
-2.41
-5.95
-9.20
-12.32
-15.50
-18.94
-22.80
-27.27
-32.44
-38.23
-44.20
-49.56
-53.28
-54.42
-52.56
-47.89
-41.24
-33.73
-26.29
-19.43
-13.22
-7.45
-1.98
3.17
7.82
11.79
15.07
17.78
20.07
22.08
23.82
25.20
26.18
26.87
27.45
28.17
29.24
30.63
32.15
33.42
34.05
33.76
32.46
30.30
27.63
24.89
22.40
20.32
18.49
16.54
14.01
10.61
6.27
1.24
-4.09
-9.29
-14.09
-18.42
-22.43
-26.37
-30.54
-35.18
-40.34
-45.83
-51.14
-55.52
-58.06
-58.04
-55.12
-49.54
-42.00
-33.50
-25.00
-17.16
-10.31
-4.42
0.73
5.42
9.88
14.22
18.47
22.58
26.41
29.84
32.74
35.02
36.64
37.66
38.19
38.44
38.59
38.85
39.27
39.76
40.07
39.85
38.87
37.12
34.78
32.14
29.49
26.95
24.54
22.16
19.78
17.37
14.86
12.17
9.11
5.54
1.41
-3.17
-7.95
-12.59
-16.80
-20.42
-23.46
-26.11
-28.74
-31.80
-35.75
-40.78
-46.68
-52.74
-57.86
-60.86
-60.82
-57.43
-51.06
-42.67
-33.48
-24.61
-16.75
-10.06
-4.36
0.73
5.44
9.89
14.04
17.94
21.67
25.40
29.15
32.78
35.95
38.37
39.90
40.70
41.16
41.65
42.36
43.18
43.79
43.86
43.22
41.90
40.06
37.87
35.46
32.86
30.09
27.19
24.28
21.46
18.82
16.33
13.91
11.35
8.47
5.16
1.41
-2.71
-7.01
-11.24
-15.18
-18.64
-21.52
-23.90
-26.01
-28.24
-31.05
-34.82
-39.69
-45.46
-51.53
-56.94
-60.60
-61.57
-59.38
-54.16
-46.68
-38.14
-29.70
-22.21
-15.97
-10.73
-5.97
-1.21
3.82
9.02
14.06
18.58
22.40
25.52
28.12
30.41
32.45
34.20
35.47
36.12
36.20
35.91
35.61
35.61
36.02
36.73
37.36
37.48
36.75
35.07
32.57
29.58
26.44
23.37
20.50
17.84
15.35
13.00
10.76
8.53
6.18
3.59
0.67
-2.56
-6.00
-9.49
-12.87
-16.04
-19.04
-22.00
-25.13
-28.71
-32.93
-37.84
-43.26
-48.70
-53.46
-56.74
-57.81
-56.28
-52.17
-45.93
-38.31
-30.17
-22.28
-15.20
-9.21
-4.28
-0.18
3.46
7.07
10.98
15.22
19.60
23.69
27.07
29.51
31.05
31.96
32.57
33.12
33.70
34.31
34.88
35.38
35.83
36.18
36.37
36.22
35.54
34.19
32.19
29.73
27.13
24.69
22.61
20.91
19.50
18.18
16.82
15.35
13.74
11.97
9.99
7.68
5.02
2.02
-1.17
-4.37
-7.43
-10.25
-12.83
-15.22
-17.50
-19.78
-22.23
-25.02
-28.32
-32.17
-36.36
-40.45
-43.78
-45.64
-45.37
-42.69
-37.70
-30.99
-23.38
-15.80
-8.97
-3.29
1.27
4.98
8.21
11.22
14.08
16.62
18.66
20.07
20.98
21.65
22.41
23.41
24.62
25.76
26.55
26.83
26.64
26.18
25.66
25.16
24.57
23.69
22.41
20.70
18.69
16.52
14.33
12.18
10.11
8.19
6.48
4.93
3.40
1.72
-0.26
-2.51
-4.88
-7.20
-9.36
-11.50
-13.91
-16.89
-20.63
-25.09
-30.03
-35.00
-39.45
-42.73
-44.22
-43.43
-40.23
-34.94
-28.28
-21.21
-14.57
-8.90
-4.33
-0.67
2.34
4.93
7.14
8.97
10.38
11.44
12.25
12.94
13.61
14.27
14.89
15.39
15.74
15.95
16.05
16.06
15.99
15.81
15.44
14.80
13.77
12.22
10.08
7.35
4.20
0.92
-2.14
-4.75
-6.85
-8.67
-10.52
-12.70
-15.37
-18.54
-22.15
-26.10
-30.28
-34.39
-37.93
-40.21
-40.56
-38.61
-34.41
-28.53
-21.83
-15.21
-9.38
-4.71
-1.23
1.22
2.89
4.00
4.68
5.08
5.38
5.85
6.79
8.31
10.24
12.13
13.44
13.78
13.16
11.93
10.62
9.58
8.89
8.34
7.55
6.27
4.37
1.98
-0.70
-3.41
-5.96
-8.21
-10.24
-12.26
-14.62
-17.64
-21.48
-26.03
-30.93
-35.62
-39.47
-41.90
-42.49
-40.95
-37.32
-31.90
-25.34
-18.41
-11.88
-6.28
-1.85
1.49
4.03
6.03
7.65
8.94
9.86
10.46
10.90
11.42
12.24
13.45
14.85
16.14
16.99
17.27
17.08
16.64
16.15
15.59
14.77
13.38
11.18
8.16
4.49
0.51
-3.49
-7.32
-10.94
-14.49
-18.22
-22.41
-27.24
-32.67
-38.28
-43.31
-46.84
-48.07
-46.57
-42.48
-36.45
-29.43
-22.34
-15.82
-10.21
-5.48
-1.45
2.13
5.42
8.47
11.16
13.31
14.76
15.53
15.79
15.85
16.01
16.45
17.21
18.14
19.07
19.77
20.12
20.02
19.41
18.30
16.69
14.67
12.27
9.52
6.47
3.18
-0.23
-3.63
-6.91
-10.10
-13.36
-16.95
-21.16
-26.19
-32.06
-38.47
-44.78
-50.04
-53.19
-53.37
-50.22
-44.09
-35.97
-27.09
-18.62
-11.27
-5.19
-0.17
4.22
8.31
12.30
16.25
20.17
24.00
27.62
30.86
33.55
35.53
36.84
37.63
38.13
38.56
39.00
39.37
39.56
39.39
38.74
37.54
35.74
33.32
30.34
26.94
23.38
19.92
16.71
13.77
10.91
7.85
4.37
0.39
-3.98
-8.52
-12.98
-17.23
-21.28
-25.32
-29.68
-34.69
-40.53
-47.03
-53.50
-58.86
-61.89
-61.69
-57.97
-51.24
-42.57
-33.24
-24.33
-16.47
-9.83
-4.28
0.52
4.92
9.26
13.76
18.47
23.22
27.67
31.43
34.24
36.08
37.15
37.79
38.29
38.84
39.45
39.99
40.32
40.26
39.72
38.72
37.29
35.51
33.45
31.16
28.67
26.03
23.27
20.43
17.51
14.49
11.36
8.13
4.83
1.48
-1.88
-5.24
-8.62
-12.04
-15.54
-19.17
-23.08
-27.44
-32.48
-38.33
-44.89
-51.75
-58.18
-63.23
-65.97
-65.74
-62.29
-55.93
-47.46
-37.96
-28.57
-20.19
-13.26
-7.70
-3.02
1.43
6.15
11.33
16.80
22.13
26.93
30.92
34.09
36.57
38.53
40.15
41.51
42.68
43.64
44.38
44.81
44.87
44.44
43.45
41.91
39.88
37.47
34.81
32.06
29.28
26.50
23.72
20.90
17.97
14.90
11.64
8.23
4.69
1.11
-2.42
-5.88
-9.27
-12.69
-16.25
-20.01
-24.01
-28.26
-32.79
-37.71
-43.09
-48.88
-54.64
-59.60
-62.73
-63.10
-60.24
-54.40
-46.41
-37.46
-28.61
-20.51
-13.33
-6.88
-0.82
5.04
10.70
16.03
20.79
24.76
27.83
30.00
31.42
32.35
33.12
34.02
35.19
36.58
38.01
39.25
40.06
40.28
39.83
38.69
36.91
34.64
32.06
29.37
26.75
24.29
22.01
19.88
17.84
15.83
13.78
11.57
9.10
6.29
3.12
-0.36
-4.04
-7.74
-11.31
-14.59
-17.51
-20.15
-22.74
-25.68
-29.39
-34.14
-39.85
-45.98
-51.56
-55.47
-56.70
-54.73
-49.69
-42.29
-33.62
-24.74
-16.46
-9.18
-2.95
2.41
7.12
11.35
15.18
18.65
21.72
24.38
26.62
28.49
30.01
31.22
32.13
32.73
33.03
33.09
33.01
32.90
32.84
32.75
32.52
31.98
31.02
29.67
28.02
26.26
24.54
22.94
21.40
19.83
18.07
16.01
13.65
11.05
8.38
5.76
3.24
0.78
-1.73
-4.39
-7.22
-10.10
-12.89
-15.46
-17.80
-20.10
-22.71
-26.00
-30.17
-35.16
-40.48
-45.40
-49.00
-50.44
-49.18
-45.12
-38.64
-30.56
-21.89
-13.60
-6.38
-0.50
4.21
8.15
11.80
15.47
19.20
22.82
26.02
28.54
30.32
31.49
32.34
33.16
34.12
35.19
36.18
36.79
36.84
36.32
35.41
34.32
33.27
32.27
31.19
29.84
28.12
26.01
23.65
21.23
18.91
16.65
14.36
11.84
8.93
5.61
2.06
-1.39
-4.39
-6.76
-8.57
-10.19
-12.13
-14.91
-18.82
-23.85
-29.69
-35.74
-41.23
-45.33
-47.33
-46.75
-43.51
-38.00
-30.94
-23.24
-15.74
-9.08
-3.60
0.63
3.70
5.85
7.42
8.71
9.98
11.36
12.82
14.25
15.55
16.67
17.58
18.34
18.94
19.36
19.64
19.80
19.86
19.80
19.51
18.80
17.43
15.27
12.35
8.92
5.35
2.01
-0.86
-3.23
-5.29
-7.34
-9.68
-12.55
-15.99
-19.95
-24.23
-28.60
-32.70
-36.11
-38.32
-38.92
-37.65
-34.54
-29.90
-24.31
-18.41
-12.76
-7.73
-3.46
0.05
2.86
4.94
6.23
6.70
6.47
5.90
5.46
5.55
6.33
7.60
8.99
10.11
10.75
10.96
10.87
10.54
9.84
8.54
6.44
3.57
0.14
-3.44
-6.85
-9.91
-12.62
-15.09
-17.50
-20.01
-22.77
-25.93
-29.55
-33.58
-37.75
-41.50
-44.12
-44.91
-43.41
-39.63
-33.99
-27.25
-20.24
-13.60
-7.75
-2.81
1.23
4.39
6.65
8.01
8.56
8.47
8.01
7.43
6.96
6.76
6.93
7.49
8.40
9.52
10.68
11.69
12.36
12.46
11.77
10.10
7.40
3.86
-0.07
-3.82
-6.95
-9.35
-11.31
-13.40
-16.18
-20.00
-24.83
-30.34
-35.98
-41.04
-44.74
-46.34
-45.30
-41.51
-35.41
-27.91
-20.16
-13.12
-7.35
-2.90
0.48
3.17
5.37
7.11
8.34
9.10
9.58
10.11
10.96
12.21
13.67
14.99
15.85
16.11
15.93
15.59
15.31
15.08
14.59
13.38
11.11
7.71
3.49
-1.02
-5.29
-9.01
-12.11
-14.79
-17.36
-20.19
-23.65
-28.00
-33.32
-39.35
-45.35
-50.24
-52.87
-52.39
-48.58
-41.92
-33.44
-24.35
-15.69
-8.16
-1.95
3.07
7.26
11.01
14.55
17.94
21.12
23.92
26.26
28.16
29.72
31.08
32.32
33.46
34.47
35.27
35.80
35.93
35.50
34.36
32.47
29.92
26.99
24.01
21.26
18.76
16.38
13.79
10.66
6.81
2.31
-2.54
-7.33
-11.67
-15.40
-18.67
-21.90
-25.63
-30.31
-36.10
-42.71
-49.44
-55.21
-58.87
-59.48
-56.62
-50.50
-41.99
-32.34
-22.78
-14.25
-7.17
-1.44
3.42
8.01
12.77
17.87
23.15
28.22
32.60
35.96
38.16
39.33
39.76
39.82
39.87
40.11
40.56
41.03
41.29
41.04
40.14
38.55
36.37
33.75
30.82
27.68
24.47
21.35
18.46
15.86
13.41
10.82
7.73
3.92
-0.59
-5.52
-10.45
-15.01
-19.07
-22.66
-26.06
-29.54
-33.38
-37.83
-43.05
-49.13
-55.84
-62.56
-68.20
-71.45
-71.22
-67.05
-59.40
-49.48
-38.77
-28.53
-19.41
-11.49
-4.51
1.84
7.75
13.29
18.54
23.63
28.65
33.54
38.04
41.79
44.47
45.98
46.46
46.30
45.88
45.58
45.64
46.12
46.90
47.60
47.74
46.89
44.86
41.83
38.23
34.56
31.13
27.96
24.83
21.55
18.05
14.49
11.01
7.67
4.31
0.65
-3.48
-8.04
-12.75
-17.33
-21.60
-25.72
-30.01
-34.89
-40.60
-47.04
-53.79
-60.15
-65.29
-68.41
-68.89
-66.39
-60.95
-53.06
-43.55
-33.42
-23.65
-14.85
-7.26
-0.67
5.31
11.07
16.72
22.13
26.98
30.97
34.01
36.18
37.70
38.82
39.71
40.39
40.82
40.91
40.63
40.06
39.32
38.54
37.77
36.97
36.01
34.75
33.09
31.04
28.70
26.18
23.59
20.94
18.21
15.38
12.42
9.37
6.21
2.92
-0.56
-4.30
-8.29
-12.47
-16.67
-20.76
-24.69
-28.59
-32.73
-37.50
-43.12
-49.49
-55.99
-61.55
-64.91
-65.02
-61.43
-54.49
-45.17
-34.80
-24.60
-15.43
-7.64
-1.19
4.25
9.05
13.52
17.88
22.15
26.19
29.81
32.80
35.05
36.61
37.61
38.19
38.46
38.47
38.21
37.76
37.19
36.58
35.99
35.33
34.51
33.38
31.86
29.93
27.68
25.19
22.60
19.97
17.38
14.86
12.45
10.11
7.80
5.35
2.59
-0.61
-4.28
-8.31
-12.49
-16.57
-20.45
-24.14
-27.79
-31.62
-35.83
-40.46
-45.35
-50.06
-53.90
-56.08
-55.90
-52.92
-47.25
-39.45
-30.41
-21.11
-12.37
-4.74
1.55
6.49
10.23
13.05
15.31
17.36
19.48
21.77
24.19
26.60
28.82
30.73
32.31
33.61
34.68
35.52
36.16
36.57
36.75
36.68
36.27
35.43
34.11
32.34
30.25
28.05
25.89
23.81
21.78
19.76
17.74
15.76
13.80
11.80
9.62
7.18
4.53
1.82
-0.74
-3.05
-5.19
-7.35
-9.72
-12.36
-15.23
-18.27
-21.56
-25.32
-29.72
-34.67
-39.59
-43.44
-45.09
-43.75
-39.31
-32.46
-24.41
-16.38
-9.21
-3.20
1.79
6.09
9.89
13.21
15.94
17.97
19.36
20.34
21.17
22.04
23.08
24.25
25.50
26.73
27.86
28.83
29.54
29.89
29.71
28.87
27.31
25.15
22.64
20.14
17.95
16.25
15.01
14.02
13.00
11.68
9.94
7.80
5.38
2.88
0.39
-2.08
-4.65
-7.54
-11.02
-15.31
-20.40
-26.01
-31.55
-36.17
-38.97
-39.28
-36.90
-32.12
-25.69
-18.56
-11.58
-5.35
-0.16
3.97
7.13
9.43
10.94
11.75
11.98
11.85
11.59
11.40
11.36
11.39
11.34
11.08
10.60
10.02
9.51
9.17
8.94
8.60
7.89
6.64
4.85
2.66
0.28
-2.19
-4.69
-7.18
-9.65
-12.06
-14.38
-16.68
-19.13
-21.98
-25.42
-29.45
-33.79
-37.87
-40.96
-42.37
-41.63
-38.64
-33.69
-27.40
-20.59
-14.03
-8.27
-3.60
0.00
2.64
4.41
5.37
5.53
5.03
4.17
3.38
3.01
3.18
3.73
4.30
4.64
4.67
4.63
4.80
5.30
5.98
6.43
6.21
5.08
3.08
0.48
-2.38
-5.24
-7.95
-10.50
-12.96
-15.49
-18.36
-21.83
-26.02
-30.71
-35.20
-38.53
-39.70
-38.13
-33.86
-27.59
-20.37
-13.25
-6.93
-1.64
2.67
6.16
8.88
10.74
11.62
11.50
10.63
9.43
8.43
7.94
8.03
8.41
8.67
8.46
7.70
6.60
5.53
4.77
4.29
3.78
2.75
0.84
-1.95
-5.28
-8.59
-11.36
-13.40
-14.86
-16.19
-17.92
-20.52
-24.20
-28.87
-34.09
-39.10
-42.96
-44.75
-43.85
-40.12
-34.00
-26.40
-18.39
-10.93
-4.63
0.28
3.88
6.43
8.24
9.61
10.72
11.72
12.63
13.43
14.13
14.70
15.19
15.62
15.95
16.12
16.06
15.78
15.38
15.00
14.66
14.22
13.36
11.75
9.23
5.95
2.34
-1.09
-3.96
-6.18
-7.96
-9.69
-11.84
-14.79
-18.79
-23.85
-29.73
-35.82
-41.25
-44.94
-45.97
-43.85
-38.70
-31.30
-22.76
-14.27
-6.67
-0.37
4.68
8.78
12.29
15.44
18.34
20.98
23.36
25.52
27.48
29.19
30.57
31.50
31.97
32.09
32.04
31.96
31.83
31.45
30.58
29.08
27.04
24.72
22.42
20.32
18.40
16.49
14.39
11.93
9.04
5.73
2.03
-1.93
-6.01
-10.05
-13.88
-17.48
-20.93
-24.52
-28.57
-33.40
-39.01
-45.03
-50.65
-54.81
-56.52
-55.13
-50.61
-43.55
-34.95
-25.90
-17.37
-9.97
-3.98
0.69
4.33
7.33
10.13
13.04
16.24
19.72
23.30
26.73
29.70
32.01
33.53
34.24
34.26
33.78
33.05
32.29
31.70
31.34
31.12
30.80
30.06
28.62
26.30
23.21
19.64
16.03
12.78
10.10
7.99
6.19
4.31
1.93
-1.21
-5.13
-9.56
-14.10
-18.32
-22.00
-25.28
-28.61
-32.55
-37.51
-43.49
-49.95
-55.84
-60.03
-61.55
-59.96
-55.39
-48.49
-40.12
-31.19
-22.40
-14.23
-6.96
-0.68
4.64
9.19
13.23
16.99
20.63
24.10
27.24
29.82
31.70
32.91
33.65
34.17
34.66
35.18
35.65
35.93
35.98
35.83
35.55
35.12
34.40
33.19
31.31
28.75
25.69
22.40
19.15
16.05
13.11
10.19
7.14
3.88
0.43
-3.09
-6.55
-9.83
-12.96
-16.02
-19.16
-22.55
-26.31
-30.49
-35.14
-40.20
-45.53
-50.67
-54.92
-57.38
-57.23
-54.06
-48.12
-40.23
-31.59
-23.25
-15.92
-9.71
-4.38
0.44
5.00
9.33
13.33
16.87
19.95
22.66
25.06
27.14
28.82
30.03
30.86
31.50
32.28
33.36
34.68
35.90
36.62
36.57
35.76
34.48
33.12
31.91
30.79
29.48
27.73
25.42
22.74
20.01
17.44
15.08
12.68
9.96
6.73
2.99
-1.03
-5.03
-8.81
-12.24
-15.38
-18.34
-21.31
-24.51
-28.14
-32.38
-37.26
-42.52
-47.61
-51.70
-53.91
-53.61
-50.57
-45.09
-37.94
-30.02
-22.16
-14.92
-8.53
-3.03
1.68
5.68
9.09
12.02
14.62
17.04
19.36
21.61
23.74
25.73
27.60
29.39
31.10
32.62
33.75
34.27
34.08
33.25
31.96
30.53
29.14
27.92
26.86
25.83
24.71
23.37
21.71
19.70
17.43
15.09
12.89
11.00
9.36
7.80
6.01
3.79
1.07
-2.01
-5.22
-8.36
-11.28
-14.04
-16.81
-19.89
-23.57
-27.99
-32.98
-37.97
-42.11
-44.44
-44.28
-41.38
-36.10
-29.20
-21.57
-14.03
-7.07
-0.94
4.33
8.76
12.41
15.35
17.70
19.64
21.39
23.11
24.86
26.62
28.25
29.57
30.49
31.01
31.25
31.33
31.36
31.31
31.09
30.56
29.57
28.10
26.21
24.05
21.80
19.59
17.44
15.23
12.79
9.93
6.60
2.95
-0.66
-3.83
-6.31
-8.17
-9.75
-11.62
-14.26
-17.90
-22.43
-27.39
-32.09
-35.75
-37.64
-37.22
-34.32
-29.20
-22.52
-15.20
-8.17
-2.11
2.71
6.36
9.08
11.03
12.27
12.80
12.65
12.05
11.43
11.29
11.92
13.29
15.03
16.55
17.39
17.39
16.73
15.75
14.71
13.65
12.37
10.59
8.15
5.12
1.80
-1.46
-4.36
-6.74
-8.65
-10.27
-11.83
-13.59
-15.74
-18.37
-21.55
-25.23
-29.23
-33.15
-36.34
-37.99
-37.41
-34.34
-29.15
-22.79
-16.43
-10.99
-6.90
-4.04
-2.02
-0.47
0.74
1.56
1.93
1.98
1.98
2.31
3.17
4.57
6.28
7.99
9.37
10.23
10.48
10.15
9.30
8.03
6.39
4.42
2.16
-0.29
-2.81
-5.28
-7.62
-9.85
-12.09
-14.51
-17.30
-20.63
-24.55
-28.97
-33.64
-38.05
-41.55
-43.48
-43.33
-40.95
-36.61
-30.87
-24.41
-17.86
-11.65
-6.08
-1.29
2.62
5.60
7.69
9.03
9.85
10.46
11.09
11.82
12.66
13.52
14.29
14.87
15.21
15.31
15.18
14.90
14.56
14.15
13.60
12.70
11.20
8.88
5.71
1.93
-2.06
-5.82
-9.15
-12.20
-15.39
-19.21
-23.89
-29.17
-34.38
-38.61
-41.01
-41.14
-38.99
-34.90
-29.44
-23.24
-16.88
-10.86
-5.51
-0.96
2.80
5.84
8.25
10.06
11.32
12.19
12.92
13.83
15.12
16.72
18.30
19.49
20.04
20.01
19.68
19.35
19.12
18.80
18.04
16.52
14.15
11.06
7.54
3.80
-0.05
-3.96
-7.81
-11.46
-14.78
-17.80
-20.84
-24.36
-28.71
-33.86
-39.21
-43.71
-46.22
-45.87
-42.43
-36.35
-28.54
-20.09
-11.93
-4.68
1.43
6.35
10.19
13.16
15.53
17.60
19.64
21.78
23.97
25.99
27.64
28.82
29.64
30.28
30.88
31.47
31.97
32.22
32.14
31.71
30.90
29.62
27.75
25.22
22.08
18.54
14.85
11.20
7.64
4.15
0.72
-2.58
-5.69
-8.59
-11.44
-14.53
-18.22
-22.80
-28.35
-34.64
-41.11
-46.93
-51.11
-52.75
-51.30
-46.75
-39.70
-31.17
-22.35
-14.23
-7.41
-2.10
1.88
4.92
7.50
10.06
12.93
16.18
19.70
23.16
26.13
28.29
29.52
29.97
29.97
29.94
30.18
30.75
31.48
32.07
32.21
31.69
30.45
28.55
26.10
23.25
20.15
17.03
14.06
11.37
8.87
6.34
3.51
0.23
-3.43
-7.25
-10.95
-14.41
-17.76
-21.40
-25.75
-31.13
-37.48
-44.23
-50.36
-54.66
-56.10
-54.16
-49.06
-41.67
-33.17
-24.63
-16.76
-9.80
-3.72
1.62
6.32
10.43
14.01
17.20
20.18
23.10
26.03
28.88
31.44
33.49
34.85
35.46
35.47
35.16
34.87
34.75
34.77
34.68
34.16
32.98
31.13
28.76
26.12
23.37
20.56
17.69
14.70
11.57
8.30
4.89
1.34
-2.29
-5.91
-9.40
-12.70
-15.87
-19.14
-22.83
-27.26
-32.51
-38.39
-44.33
-49.46
-52.78
-53.50
-51.17
-45.97
-38.65
-30.30
-22.06
-14.73
-8.61
-3.49
1.07
5.53
10.04
14.45
18.45
21.69
24.07
25.70
26.87
27.88
28.92
30.05
31.17
32.21
33.08
33.76
34.23
34.42
34.18
33.35
31.83
29.65
26.99
24.12
21.35
18.85
16.66
14.64
12.56
10.21
7.45
4.27
0.83
-2.68
-6.02
-9.09
-11.89
-14.62
-17.61
-21.18
-25.55
-30.64
-36.15
-41.50
-46.02
-49.01
-49.89
-48.35
-44.40
-38.40
-31.02
-23.14
-15.61
-9.03
-3.64
0.71
4.39
7.79
11.12
14.35
17.33
19.89
22.01
23.78
25.38
26.92
28.33
29.43
30.03
30.07
29.69
29.13
28.61
28.19
27.77
27.12
26.04
24.51
22.66
20.73
18.89
17.12
15.29
13.23
10.84
8.16
5.33
2.49
-0.31
-3.08
-5.84
-8.64
-11.51
-14.49
-17.73
-21.42
-25.71
-30.53
-35.47
-39.78
-42.54
-42.97
-40.65
-35.74
-28.88
-21.05
-13.25
-6.23
-0.35
4.43
8.44
12.07
15.55
18.87
21.79
24.03
25.43
26.09
26.33
26.50
26.84
27.39
28.03
28.60
29.06
29.47
29.91
30.34
30.55
30.23
29.15
27.27
24.79
22.06
19.40
16.99
14.82
12.75
10.59
8.31
5.91
3.55
1.32
-0.79
-2.95
-5.42
-8.46
-12.19
-16.59
-21.42
-26.22
-30.41
-33.28
-34.20
-32.73
-28.85
-23.01
-16.00
-8.79
-2.23
3.13
7.12
9.83
11.49
12.38
12.71
12.66
12.38
12.05
11.83
11.93
12.45
13.41
14.64
15.80
16.55
16.70
16.36
15.86
15.62
15.78
16.09
16.03
15.06
12.85
9.47
5.40
1.26
-2.40
-5.31
-7.46
-9.16
-10.90
-13.19
-16.44
-20.76
-25.86
-30.96
-35.11
-37.41
-37.37
-35.02
-30.85
-25.53
-19.77
-14.13
-8.99
-4.58
-1.00
1.77
3.83
5.28
6.23
6.66
6.55
5.95
5.08
4.32
4.04
4.47
5.48
6.72
7.76
8.32
8.35
7.98
7.38
6.59
5.45
3.76
1.41
-1.47
-4.52
-7.30
-9.54
-11.29
-12.96
-15.16
-18.37
-22.73
-27.88
-33.04
-37.25
-39.64
-39.66
-37.23
-32.74
-26.92
-20.58
-14.50
-9.12
-4.64
-1.02
1.80
3.90
5.26
5.91
5.95
5.67
5.39
5.40
5.87
6.70
7.68
8.55
9.12
9.29
9.08
8.56
7.72
6.52
4.89
2.81
0.37
-2.23
-4.75
-7.07
-9.20
-11.35
-13.72
-16.45
-19.61
-23.14
-26.94
-30.81
-34.38
-37.14
-38.39
-37.57
-34.48
-29.42
-23.21
-16.88
-11.28
-6.82
-3.41
-0.69
1.72
3.99
5.96
7.36
8.01
7.95
7.53
7.15
7.19
7.77
8.75
9.82
10.74
11.38
11.75
11.86
11.60
10.69
8.85
5.97
2.22
-1.91
-5.81
-9.00
-11.32
-12.99
-14.49
-16.35
-18.98
-22.58
-27.01
-31.84
-36.34
-39.62
-40.86
-39.59
-35.83
-30.14
-23.35
-16.36
-9.84
-4.12
0.76
4.89
8.41
11.46
14.13
16.50
18.64
20.49
21.93
22.84
23.16
22.97
22.55
22.21
22.20
22.52
22.95
23.10
22.65
21.52
19.87
18.02
16.23
14.52
12.68
10.39
7.46
4.02
0.41
-2.96
-5.85
-8.32
-10.70
-13.41
-16.79
-20.96
-25.85
-31.21
-36.57
-41.31
-44.64
-45.81
-44.28
-40.10
-33.82
-26.42
-18.92
-12.09
-6.23
-1.29
2.95
6.63
9.81
12.56
14.98
17.29
19.63
21.97
24.10
25.74
26.75
27.20
27.31
27.35
27.43
27.51
27.42
27.01
26.10
24.67
22.71
20.33
17.79
15.33
13.15
11.21
9.27
7.01
4.21
0.98
-2.41
-5.66
-8.65
-11.59
-14.86
-18.80
-23.52
-28.87
-34.49
-39.91
-44.62
-48.04
-49.57
-48.72
-45.27
-39.45
-31.99
-23.88
-16.14
-9.38
-3.79
0.89
5.07
9.10
13.05
16.73
19.91
22.40
24.20
25.44
26.29
26.87
27.26
27.49
27.62
27.74
27.97
28.31
28.70
28.96
28.90
28.33
27.14
25.36
23.08
20.46
17.69
14.87
12.06
9.24
6.38
3.44
0.45
-2.63
-5.79
-9.04
-12.40
-15.91
-19.64
-23.76
-28.48
-33.81
-39.45
-44.69
-48.48
-49.85
-48.21
-43.69
-37.05
-29.44
-21.91
-15.11
-9.19
-3.88
1.14
6.00
10.63
14.75
18.14
20.83
23.06
25.17
27.42
29.80
32.15
34.18
35.72
36.75
37.38
37.77
38.01
38.15
38.18
38.08
37.78
37.15
35.99
34.03
31.18
27.51
23.30
18.88
14.49
10.19
5.88
1.45
-3.07
-7.46
-11.47
-14.97
-18.00
-20.85
-23.87
-27.36
-31.43
-35.97
-40.66
-45.06
-48.56
-50.48
-50.17
-47.13
-41.22
-32.74
-22.39
-11.21
-0.28
9.33
16.80
21.56
23.56
23.25
21.50
19.45
18.06
17.85
18.76
20.24
21.57
22.17
21.86
20.85
19.62
18.61
18.13
18.13
18.28
18.05
16.83
14.24
10.18
5.00
-0.52
-5.39
-8.63
-9.62
-8.26
-5.06
-1.11
2.27
3.91
3.14
-0.01
-4.85
-10.27
-15.20
-18.84
-20.97
-21.83
-21.97
-21.95
-22.07
-22.30
-22.25
-21.31
-18.90
-14.61
-8.43
-0.77
7.59
15.62
22.30
26.77
28.55
27.56
24.19
19.14
13.23
7.26
1.82
-2.67
-6.00
-8.10
-9.00
-8.95
-8.44
-8.19
-8.84
-10.72
-13.59
-16.70
-19.09
-20.08
-19.58
-18.01
-16.04
-14.11
-12.30
-10.35
-7.99
-5.19
-2.19
0.61
2.99
5.11
7.62
11.31
16.79
24.15
32.79
41.78
50.26
58.04
65.62
74.04
84.08
95.72
107.79
118.41
125.89
129.32
128.91
125.45
119.65
111.75
101.64
89.44
75.97
62.85
51.89
44.40
40.51
39.16
38.59
37.10
33.63
27.93
20.39
11.54
1.86
-8.41
-19.20
-30.51
-42.31
-54.45
-66.67
-78.54
-89.42
-98.56
-105.21
-108.98
-109.95
-108.98
-107.46
-106.85
-108.22
-111.79
-116.92
-122.42
-126.91
-129.27
-128.77
-125.11
-118.29
-108.63
-96.77
-83.72
-70.73
-59.10
-49.82
-43.36
-39.54
-37.68
-36.87
-36.25
-35.29
-33.79
-31.81
-29.56
-27.20
-24.91
-22.82
-21.12
-19.96
-19.39
-19.34
-19.63
-20.11
-20.77
-21.56
-22.28
-22.48
-21.54
-19.12
-15.57
-12.05
-10.21
-11.49
-16.41
-24.39
-34.00
-43.73
-52.56
-60.17
-66.75
-72.47
-77.15
-80.27
-81.14
-79.17
-74.05
-65.67
-54.16
-39.79
-23.18
-5.26
12.75
29.60
44.37
56.70
66.88
75.65
83.90
92.45
101.77
111.95
122.77
133.67
143.86
152.50
158.96
162.91
164.55
164.43
163.28
161.75
160.19
158.63
156.77
154.31
150.96
146.69
141.68
136.20
130.49
124.53
118.12
110.91
102.67
93.54
84.05
75.03
67.39
61.68
58.00
55.92
54.64
53.24
50.87
46.99
41.35
34.07
25.64
16.72
8.07
0.25
-6.37
-11.71
-15.85
-18.94
-21.13
-22.62
-23.71
-24.84
-26.48
-28.90
-32.09
-35.67
-39.21
-42.44
-45.38
-48.30
-51.49
-55.07
-58.98
-63.01
-67.05
-71.03
-74.87
-78.33
-80.96
-82.21
-81.69
-79.36
-75.63
-71.09
-66.43
-62.15
-58.56
-55.67
-53.36
-51.41
-49.61
-47.88
-46.25
-44.92
-44.01
-43.55
-43.38
-43.17
-42.65
-41.69
-40.43
-39.13
-38.05
-37.29
-36.86
-36.61
-36.42
-36.27
-36.14
-35.99
-35.81
-35.52
-35.03
-34.26
-33.16
-31.65
-29.68
-27.17
-24.12
-20.47
-16.28
-11.61
-6.69
-1.71
3.03
7.33
11.06
14.18
16.70
18.53
19.52
19.51
18.43
16.36
13.51
10.29
7.09
4.33
2.34
1.27
1.02
1.30
1.63
1.56
0.74
-0.97
-3.51
-6.67
-10.16
-13.70
-17.04
-20.07
-22.89
-25.69
-28.79
-32.29
-35.96
-39.22
-41.24
-41.30
-39.06
-34.71
-28.82
-22.11
-15.23
-8.60
-2.50
2.96
7.60
11.34
14.12
16.07
17.37
18.28
18.97
19.46
19.64
19.39
18.62
17.37
15.68
13.58
11.13
8.35
5.32
2.23
-0.73
-3.37
-5.54
-7.20
-8.43
-9.39
-10.36
-11.69
-13.81
-17.02
-21.45
-26.85
-32.56
-37.65
-41.17
-42.48
-41.35
-37.97
-32.84
-26.56
-19.63
-12.44
-5.30
1.50
7.71
13.15
17.79
21.84
25.52
28.95
32.02
34.37
35.58
35.45
34.09
31.97
29.63
27.54
25.88
24.52
23.22
21.69
19.76
17.34
14.43
11.10
7.51
3.87
0.41
-2.66
-5.23
-7.37
-9.29
-11.38
-14.06
-17.63
-22.15
-27.27
-32.23
-36.12
-38.06
-37.55
-34.65
-29.87
-24.04
-17.92
-12.03
-6.49
-1.17
4.22
9.86
15.71
21.57
27.05
31.76
35.37
37.70
38.76
38.73
37.89
36.61
35.21
34.00
33.12
32.57
32.18
31.71
30.88
29.57
27.77
25.57
23.04
20.21
17.04
13.52
9.76
5.96
2.39
-0.71
-3.31
-5.54
-7.65
-9.93
-12.62
-15.80
-19.40
-23.07
-26.30
-28.46
-29.09
-27.96
-25.19
-21.19
-16.48
-11.53
-6.67
-1.99
2.56
7.07
11.58
15.99
20.03
23.28
25.44
26.44
26.63
26.68
27.32
28.97
31.58
34.64
37.46
39.47
40.40
40.37
39.63
38.49
37.16
35.73
34.22
32.62
30.83
28.76
26.25
23.22
19.68
15.75
11.65
7.54
3.58
-0.18
-3.72
-7.14
-10.59
-14.28
-18.26
-22.42
-26.35
-29.48
-31.24
-31.28
-29.53
-26.28
-21.97
-17.12
-12.15
-7.36
-2.94
1.02
4.50
7.55
10.24
12.67
14.88
16.82
18.46
19.73
20.65
21.28
21.75
22.17
22.61
23.08
23.55
23.91
24.05
23.85
23.22
22.13
20.69
19.13
17.64
16.31
15.05
13.61
11.76
9.39
6.64
3.80
1.17
-1.15
-3.30
-5.61
-8.43
-11.88
-15.83
-19.84
-23.29
-25.58
-26.27
-25.14
-22.32
-18.18
-13.31
-8.34
-3.75
0.17
3.45
6.26
8.81
11.16
13.24
14.80
15.65
15.74
15.23
14.54
14.12
14.26
15.03
16.22
17.45
18.37
18.70
18.36
17.41
16.02
14.36
12.55
10.63
8.57
6.32
3.89
1.33
-1.26
-3.81
-6.35
-8.84
-11.25
-13.51
-15.47
-17.17
-18.75
-20.57
-22.96
-26.02
-29.43
-32.45
-34.26
-34.18
-32.04
-28.19
-23.31
-18.20
-13.49
-9.52
-6.35
-3.87
-1.88
-0.20
1.32
2.70
3.92
4.84
5.39
5.52
5.32
5.01
4.72
4.56
4.45
4.24
3.77
3.07
2.21
1.37
0.64
-0.09
-1.03
-2.36
-4.13
-6.23
-8.41
-10.47
-12.29
-13.92
-15.48
-17.12
-18.96
-21.10
-23.61
-26.50
-29.60
-32.51
-34.63
-35.23
-33.81
-30.23
-24.90
-18.58
-12.22
-6.54
-1.89
1.75
4.57
6.76
8.37
9.35
9.74
9.72
9.58
9.64
10.01
10.64
11.27
11.66
11.66
11.30
10.77
10.31
10.11
10.16
10.29
10.16
9.42
7.94
5.76
3.18
0.56
-1.79
-3.77
-5.42
-6.93
-8.51
-10.34
-12.59
-15.42
-18.90
-22.95
-27.34
-31.57
-35.05
-37.23
-37.65
-36.16
-32.88
-28.22
-22.74
-17.11
-11.89
-7.51
-4.20
-1.96
-0.64
0.00
0.28
0.45
0.67
1.06
1.61
2.34
3.30
4.52
6.03
7.73
9.42
10.79
11.56
11.66
11.17
10.33
9.39
8.50
7.64
6.73
5.70
4.59
3.50
2.47
1.43
0.15
-1.63
-4.01
-6.86
-9.86
-12.65
-15.11
-17.36
-19.66
-22.21
-24.96
-27.47
-29.11
-29.31
-27.76
-24.60
-20.29
-15.46
-10.67
-6.25
-2.31
1.23
4.40
7.20
9.56
11.43
12.90
14.20
15.55
17.09
18.69
20.05
20.82
20.80
20.06
18.89
17.70
16.83
16.42
16.40
16.54
16.59
16.36
15.69
14.57
13.04
11.21
9.23
7.23
5.34
3.64
2.15
0.82
-0.44
-1.76
-3.29
-5.15
-7.46
-10.26
-13.44
-16.81
-20.07
-23.00
-25.55
-27.87
-30.25
-32.89
-35.78
-38.56
-40.70
-41.59
-40.89
-38.49
-34.62
-29.70
-24.18
-18.52
-13.13
-8.28
-4.17
-0.87
1.68
3.66
5.25
6.64
7.92
9.10
10.14
11.00
11.62
12.00
12.25
12.48
12.84
13.38
14.05
14.70
15.24
15.60
15.80
15.87
15.83
15.58
14.96
13.84
12.12
9.92
7.40
4.84
2.51
0.61
-0.74
-1.60
-2.14
-2.71
-3.66
-5.29
-7.69
-10.71
-14.08
-17.42
-20.50
-23.29
-25.92
-28.66
-31.70
-35.02
-38.29
-40.92
-42.21
-41.61
-38.93
-34.54
-29.10
-23.46
-18.19
-13.58
-9.58
-6.07
-2.94
-0.20
2.12
4.07
5.82
7.50
9.20
10.85
12.26
13.25
13.76
13.83
13.60
13.23
12.90
12.80
13.03
13.58
14.26
14.77
14.84
14.35
13.43
12.33
11.23
10.19
9.08
7.71
6.01
4.01
1.99
0.12
-1.54
-3.10
-4.78
-6.78
-9.10
-11.62
-14.18
-16.67
-19.15
-21.70
-24.37
-27.08
-29.55
-31.50
-32.69
-33.04
-32.56
-31.33
-29.35
-26.63
-23.19
-19.15
-14.77
-10.34
-6.16
-2.38
1.03
4.15
7.06
9.73
12.03
13.80
15.01
15.78
16.35
16.96
17.76
18.68
19.52
20.12
20.42
20.52
20.61
20.87
21.27
21.68
21.79
21.33
20.24
18.67
16.96
15.43
14.25
13.35
12.55
11.64
10.50
9.14
7.66
6.10
4.45
2.68
0.80
-1.15
-3.03
-4.80
-6.55
-8.45
-10.76
-13.64
-17.14
-21.04
-25.00
-28.55
-31.26
-32.80
-33.07
-32.08
-29.97
-26.90
-23.02
-18.58
-13.81
-9.04
-4.56
-0.57
2.90
5.95
8.71
11.23
13.43
15.27
16.69
17.78
18.76
19.80
21.04
22.49
24.08
25.64
26.97
27.84
28.13
27.91
27.44
27.11
27.19
27.76
28.59
29.33
29.57
29.12
27.95
26.12
23.71
20.73
17.18
13.13
8.81
4.47
0.42
-3.29
-6.83
-10.57
-15.01
-20.50
-27.12
-34.57
-42.20
-49.24
-54.86
-58.49
-59.78
-58.72
-55.53
-50.68
-44.70
-38.13
-31.46
-25.00
-18.99
-13.55
-8.74
-4.46
-0.54
3.34
7.47
12.03
17.04
22.31
27.56
32.37
36.45
39.55
41.59
42.73
43.26
43.58
43.96
44.43
44.78
44.65
43.77
42.11
39.91
37.51
35.19
33.03
30.93
28.73
26.39
23.92
21.44
18.96
16.37
13.40
9.78
5.37
0.36
-4.77
-9.32
-12.62
-14.22
-14.08
-12.51
-10.07
-7.35
-4.76
-2.51
-0.64
0.81
1.77
2.10
1.73
0.79
-0.36
-1.23
-1.44
-0.78
0.69
2.67
4.72
6.43
7.52
7.84
7.49
6.76
5.95
5.41
5.30
5.61
6.14
6.59
6.72
6.53
6.29
6.41
7.31
9.12
11.57
14.03
15.75
16.10
14.82
12.10
8.44
4.46
0.70
-2.43
-4.64
-5.72
-5.56
-4.18
-1.73
1.50
5.16
8.95
12.58
15.82
18.54
20.67
22.29
23.55
24.69
25.88
27.18
28.48
29.57
30.22
30.30
29.78
28.70
27.17
25.31
23.31
21.34
19.58
18.15
17.00
15.99
14.87
13.43
11.52
9.12
6.35
3.43
0.50
-2.34
-5.19
-8.29
-11.86
-16.01
-20.61
-25.33
-29.67
-33.18
-35.45
-36.17
-35.18
-32.46
-28.19
-22.80
-16.94
-11.31
-6.56
-3.06
-0.84
0.44
1.25
2.14
3.47
5.33
7.53
9.62
11.13
11.77
11.54
10.77
9.87
9.24
8.99
9.05
9.23
9.32
9.19
8.72
7.86
6.52
4.72
2.53
0.15
-2.27
-4.67
-7.20
-10.06
-13.47
-17.43
-21.68
-25.76
-29.10
-31.16
-31.62
-30.34
-27.43
-23.26
-18.30
-13.05
-7.97
-3.37
0.48
3.48
5.58
6.87
7.59
8.07
8.66
9.49
10.51
11.48
12.11
12.24
11.83
10.99
9.81
8.41
6.87
5.37
4.07
3.08
2.35
1.62
0.55
-1.17
-3.59
-6.55
-9.72
-12.80
-15.69
-18.53
-21.56
-25.04
-28.95
-32.95
-36.46
-38.80
-39.45
-38.29
-35.57
-31.82
-27.61
-23.29
-19.07
-14.95
-10.91
-6.99
-3.27
0.13
3.12
5.65
7.68
9.23
10.39
11.31
12.14
12.97
13.72
14.22
14.26
13.79
12.92
11.88
10.87
9.96
9.00
7.82
6.26
4.33
2.16
-0.02
-2.10
-4.05
-6.00
-8.01
-10.13
-12.34
-14.57
-16.77
-18.97
-21.22
-23.61
-26.17
-28.76
-31.11
-32.77
-33.29
-32.30
-29.77
-25.98
-21.48
-16.86
-12.51
-8.59
-5.00
-1.62
1.66
4.77
7.66
10.28
12.65
14.79
16.61
18.01
18.86
19.14
18.95
18.49
17.95
17.41
16.92
16.45
16.02
15.64
15.27
14.79
14.01
12.73
10.88
8.52
5.86
3.15
0.60
-1.76
-4.01
-6.32
-8.85
-11.65
-14.70
-17.94
-21.27
-24.67
-28.10
-31.41
-34.34
-36.54
-37.59
-37.24
-35.41
-32.30
-28.26
-23.66
-18.81
-13.98
-9.34
-5.05
-1.24
2.01
4.66
6.73
8.36
9.61
10.66
11.66
12.79
14.17
15.84
17.63
19.33
20.72
21.68
22.26
22.54
22.60
22.37
21.72
20.56
18.93
17.02
15.16
13.65
12.60
11.83
10.99
9.63
7.48
4.52
1.09
-2.38
-5.46
-8.00
-10.14
-12.21
-14.53
-17.24
-20.26
-23.26
-25.88
-27.71
-28.41
-27.72
-25.55
-22.01
-17.52
-12.65
-7.98
-3.88
-0.42
2.60
5.43
8.22
10.95
13.47
15.66
17.49
19.05
20.46
21.83
23.12
24.22
24.98
25.39
25.51
25.48
25.50
25.65
25.92
26.13
26.13
25.76
25.00
23.96
22.81
21.70
20.68
19.72
18.76
17.76
16.62
15.29
13.67
11.73
9.50
7.10
4.63
2.09
-0.58
-3.52
-6.78
-10.19
-13.48
-16.20
-17.98
-18.58
-17.89
-16.02
-13.17
-9.68
-5.90
-2.18
1.26
4.30
6.95
9.24
11.15
12.60
13.55
14.00
14.11
14.04
13.92
13.78
13.59
13.30
12.92
12.58
12.44
12.56
12.86
13.13
13.04
12.36
10.99
9.10
7.02
5.11
3.66
2.79
2.38
2.20
1.94
1.34
0.31
-1.12
-2.80
-4.54
-6.20
-7.82
-9.54
-11.56
-13.99
-16.65
-19.06
-20.56
-20.57
-18.82
-15.54
-11.35
-7.05
-3.29
-0.41
1.61
2.97
3.95
4.67
5.13
5.34
5.37
5.39
5.56
5.93
6.42
6.83
6.99
6.85
6.55
6.25
6.03
5.82
5.41
4.63
3.48
2.13
0.79
-0.42
-1.59
-2.87
-4.40
-6.11
-7.77
-9.10
-10.07
-10.83
-11.78
-13.26
-15.37
-17.93
-20.61
-22.98
-24.73
-25.64
-25.59
-24.53
-22.53
-19.74
-16.40
-12.78
-9.08
-5.49
-2.19
0.68
3.00
4.69
5.77
6.31
6.35
5.94
5.14
4.08
3.03
2.34
2.20
2.64
3.39
4.07
4.38
4.18
3.55
2.72
1.94
1.37
1.05
0.90
0.73
0.31
-0.53
-1.84
-3.55
-5.51
-7.64
-9.91
-12.37
-15.06
-17.92
-20.87
-23.82
-26.70
-29.47
-31.95
-33.78
-34.49
-33.68
-31.28
-27.65
-23.45
-19.35
-15.78
-12.77
-10.09
-7.47
-4.79
-2.15
0.24
2.23
3.75
4.85
5.63
6.18
6.55
6.81
7.01
7.20
7.39
7.45
7.23
6.62
5.64
4.43
3.23
2.21
1.47
0.91
0.41
-0.22
-1.03
-2.03
-3.17
-4.40
-5.74
-7.30
-9.16
-11.44
-14.13
-17.18
-20.42
-23.61
-26.45
-28.58
-29.72
-29.57
-28.04
-25.20
-21.34
-16.86
-12.26
-7.97
-4.30
-1.37
0.88
2.66
4.19
5.66
7.10
8.46
9.66
10.63
11.39
12.05
12.63
13.11
13.35
13.17
12.47
11.29
9.82
8.38
7.23
6.58
6.34
6.32
6.14
5.50
4.24
2.45
0.39
-1.69
-3.63
-5.47
-7.34
-9.35
-11.46
-13.55
-15.48
-17.22
-18.92
-20.79
-22.94
-25.28
-27.42
-28.81
-28.88
-27.30
-24.10
-19.70
-14.74
-9.93
-5.81
-2.57
-0.16
1.68
3.25
4.73
6.21
7.75
9.42
11.31
13.44
15.70
17.81
19.45
20.41
20.70
20.54
20.24
20.09
20.17
20.35
20.40
20.06
19.19
17.80
16.12
14.45
13.10
12.24
11.81
11.58
11.18
10.38
9.10
7.44
5.55
3.58
1.53
-0.63
-2.98
-5.55
-8.35
-11.44
-14.82
-18.34
-21.56
-23.78
-24.37
-22.94
-19.67
-15.23
-10.46
-6.09
-2.38
0.80
3.76
6.78
9.87
12.79
15.26
17.07
18.20
18.76
18.97
19.02
19.10
19.37
19.91
20.75
21.84
23.03
24.14
24.97
25.34
25.17
24.44
23.17
21.47
19.47
17.34
15.21
13.18
11.19
9.14
6.93
4.54
2.01
-0.56
-3.08
-5.52
-7.90
-10.29
-12.71
-15.18
-17.68
-20.19
-22.57
-24.58
-25.80
-25.76
-24.10
-20.81
-16.28
-11.26
-6.54
-2.68
0.19
2.33
4.20
6.15
8.25
10.31
11.99
13.13
13.82
14.35
15.07
16.17
17.56
18.92
19.89
20.22
19.93
19.25
18.45
17.75
17.12
16.40
15.40
14.07
12.53
10.99
9.63
8.38
7.02
5.27
2.98
0.21
-2.72
-5.50
-7.83
-9.72
-11.34
-12.98
-14.93
-17.36
-20.25
-23.45
-26.61
-29.26
-30.95
-31.36
-30.32
-27.88
-24.29
-19.89
-15.03
-10.09
-5.38
-1.19
2.27
4.93
6.84
8.16
9.12
9.91
10.68
11.52
12.45
13.44
14.41
15.21
15.79
16.11
16.26
16.33
16.40
16.44
16.35
16.01
15.37
14.50
13.47
12.35
11.15
9.83
8.38
6.83
5.25
3.62
1.86
-0.14
-2.46
-5.01
-7.60
-10.02
-12.17
-14.18
-16.28
-18.74
-21.66
-24.83
-27.76
-29.75
-30.17
-28.65
-25.29
-20.63
-15.46
-10.61
-6.57
-3.44
-0.92
1.38
3.70
5.98
8.04
9.63
10.76
11.57
12.35
13.25
14.30
15.37
16.30
17.02
17.55
18.01
18.49
18.99
19.41
19.59
19.39
18.77
17.77
16.48
15.08
13.70
12.48
11.45
10.55
9.57
8.31
6.61
4.43
1.88
-0.84
-3.50
-6.02
-8.41
-10.87
-13.59
-16.74
-20.26
-23.86
-27.08
-29.38
-30.37
-29.87
-28.04
-25.12
-21.48
-17.42
-13.22
-9.09
-5.26
-1.91
0.83
3.00
4.75
6.20
7.44
8.46
9.25
9.83
10.40
11.21
12.50
14.30
16.35
18.19
19.37
19.58
18.83
17.37
15.56
13.65
11.79
9.98
8.26
6.73
5.52
4.64
3.94
3.04
1.59
-0.60
-3.42
-6.51
-9.47
-12.08
-14.38
-16.70
-19.39
-22.66
-26.40
-30.18
-33.37
-35.25
-35.29
-33.33
-29.53
-24.44
-18.74
-13.11
-8.03
-3.75
-0.33
2.27
4.11
5.36
6.21
6.91
7.74
8.81
10.13
11.52
12.82
13.85
14.66
15.28
15.82
16.32
16.76
17.08
17.19
17.04
16.55
15.68
14.41
12.83
11.10
9.36
7.68
5.99
4.18
2.24
0.27
-1.60
-3.25
-4.78
-6.49
-8.72
-11.67
-15.30
-19.26
-23.14
-26.55
-29.22
-30.92
-31.40
-30.44
-27.98
-24.29
-19.91
-15.53
-11.69
-8.58
-6.03
-3.69
-1.31
1.13
3.45
5.42
6.89
7.92
8.61
9.09
9.41
9.54
9.52
9.49
9.61
10.02
10.73
11.47
11.86
11.51
10.25
8.22
5.77
3.41
1.49
0.18
-0.68
-1.46
-2.63
-4.60
-7.53
-11.31
-15.61
-19.99
-24.16
-27.97
-31.54
-35.08
-38.83
-42.87
-47.05
-51.07
-54.47
-56.81
-57.67
-56.81
-54.20
-50.11
-45.08
-39.68
-34.43
-29.54
-24.99
-20.58
-16.07
-11.32
-6.36
-1.39
3.31
7.38
10.50
12.48
13.27
13.09
12.35
11.53
11.04
11.12
11.77
12.91
14.39
16.08
17.89
19.71
21.40
22.82
23.88
24.56
24.94
25.11
25.13
24.86
24.13
22.66
20.28
16.99
12.96
8.50
3.93
-0.48
-4.46
-7.72
-9.92
-10.59
-9.32
-5.92
-0.58
6.08
13.09
19.41
24.20
27.03
27.99
27.57
26.41
25.13
24.11
23.45
23.14
23.14
23.62
24.77
26.78
29.52
32.54
35.14
36.54
36.28
34.26
30.73
26.16
20.99
15.66
10.64
6.37
3.29
1.58
0.94
0.57
-0.57
-3.29
-7.69
-13.00
-17.84
-20.88
-21.44
-19.87
-17.38
-15.48
-15.25
-16.90
-19.63
-22.00
-22.54
-20.23
-14.89
-7.06
2.28
12.02
21.15
28.78
34.16
36.59
35.67
31.34
24.25
15.69
7.40
1.28
-1.08
1.16
7.88
17.72
28.31
36.58
39.57
35.13
22.73
3.90
-17.86
-37.78
-50.94
-53.55
-43.97
-23.21
5.12
35.61
62.23
79.74
84.92
77.24
58.83
33.86
7.47
-15.29
-30.34
-35.27
-29.80
-15.95
2.25
19.68
31.46
34.47
28.48
16.22
2.48
-7.54
-9.84
-2.76
12.60
32.73
52.62
67.10
72.24
66.52
51.38
30.73
9.67
-7.07
-16.49
-17.88
-12.63
-3.71
5.22
10.56
9.55
1.06
-13.92
-32.21
-49.15
-59.89
-61.08
-52.04
-35.30
-16.01
-0.39
6.23
1.17
-14.77
-37.50
-61.01
-79.11
-87.14
-82.93
-67.29
-43.56
-16.85
7.13
23.44
29.10
23.82
10.05
-7.78
-24.52
-35.60
-38.19
-31.79
-18.20
-1.11
14.99
25.99
29.32
24.71
14.16
1.29
-9.88
-16.05
-15.58
-8.72
2.54
15.14
25.84
32.05
32.42
27.09
17.43
5.61
-5.86
-14.59
-18.69
-17.22
-10.58
-0.54
10.10
18.46
22.50
21.76
17.38
11.53
6.57
4.36
5.90
11.21
19.44
28.91
37.39
42.61
42.87
37.80
28.49
17.24
6.76
-0.71
-4.08
-3.43
0.05
4.60
8.39
9.95
8.63
4.68
-0.73
-6.01
-9.75
-11.28
-10.87
-9.32
-7.36
-5.09
-2.03
2.50
8.79
16.28
23.59
28.94
30.53
26.85
17.08
1.55
-17.65
-36.41
-49.23
-50.94
-38.82
-14.31
17.05
47.46
69.71
79.91
78.52
69.67
58.83
50.61
47.09
47.61
49.57
49.60
44.91
34.15
18.03
-0.72
-18.18
-30.54
-35.37
-32.57
-24.31
-14.08
-5.41
-0.61
-0.20
-3.29
-8.27
-13.73
-18.86
-23.47
-27.77
-32.03
-36.32
-40.32
-43.25
-43.96
-41.37
-34.97
-25.23
-13.68
-2.48
6.39
11.83
13.86
13.46
11.82
9.82
7.55
4.57
0.24
-5.81
-13.31
-21.23
-27.90
-31.34
-29.88
-22.88
-11.18
2.88
16.16
25.65
29.57
27.58
20.57
9.86
-3.56
-19.15
-36.34
-53.89
-69.66
-81.05
-86.17
-84.96
-79.69
-74.25
-72.66
-77.12
-86.87
-98.12
-105.35
-103.32
-88.96
-62.40
-26.79
12.94
51.71
85.58
112.34
131.36
142.94
147.68
146.32
139.91
130.08
119.17
109.93
104.89
105.78
113.04
125.79
142.01
158.91
173.34
182.27
183.30
175.14
157.92
133.19
103.46
71.67
40.55
12.23
-11.81
-30.76
-44.51
-53.66
-59.52
-63.97
-68.94
-75.88
-85.26
-96.47
-108.00
-118.07
-125.24
-128.94
-129.49
-127.96
-125.64
-123.64
-122.61
-122.70
-123.64
-124.97
-126.13
-126.60
-125.99
-124.05
-120.82
-116.59
-111.86
-107.14
-102.75
-98.70
-94.70
-90.40
-85.56
-80.29
-74.97
-70.17
-66.32
-63.57
-61.69
-60.16
-58.42
-55.90
-52.31
-47.56
-41.79
-35.26
-28.32
-21.28
-14.41
-7.81
-1.45
4.75
10.86
16.83
22.40
27.24
31.01
33.56
34.98
35.61
35.86
36.10
36.53
37.16
37.88
38.61
39.29
39.91
40.48
40.85
40.71
39.74
37.66
34.43
30.29
25.68
21.00
16.49
12.18
7.97
3.93
0.35
-2.15
-3.00
-1.83
1.17
5.38
9.94
14.09
17.44
19.99
21.87
23.21
23.89
23.60
22.06
19.25
15.54
11.62
8.24
5.87
4.58
4.03
3.83
3.83
4.46
6.52
10.90
17.90
26.80
35.72
42.01
42.89
36.25
21.28
-1.38
-29.72
-60.69
-90.62
-115.69
-132.43
-138.42
-132.91
-117.15
-94.17
-67.97
-42.44
-20.29
-2.75
10.23
19.16
24.39
25.66
22.54
15.14
4.71
-6.24
-14.67
-17.92
-14.81
-5.90
6.70
20.14
31.58
38.77
40.32
35.76
25.51
10.91
-5.94
-22.41
-35.93
-44.53
-47.32
-44.77
-38.55
-31.13
-25.13
-22.66
-24.70
-30.89
-39.66
-48.87
-56.52
-61.28
-62.75
-61.29
-57.73
-52.96
-47.78
-42.83
-38.60
-35.48
-33.67
-33.13
-33.57
-34.76
-36.62
-39.42
-43.48
-48.82
-54.75
-59.76
-61.83
-59.17
-50.90
-37.55
-21.04
-4.29
9.54
17.83
19.22
14.03
4.29
-6.85
-16.04
-20.67
-19.32
-11.67
1.89
20.56
43.31
68.53
94.13
117.78
137.51
152.21
161.71
166.24
165.82
160.06
148.49
131.53
111.09
90.47
73.38
62.68
59.29
61.97
67.87
73.46
75.70
72.59
63.47
48.86
30.23
9.54
-11.08
-29.67
-44.78
-55.51
-61.70
-63.78
-62.75
-59.95
-56.82
-54.61
-54.27
-56.34
-61.00
-68.24
-77.85
-89.52
-102.70
-116.56
-129.73
-140.32
-146.30
-146.16
-139.87
-129.19
-117.36
-107.96
-103.23
-103.01
-104.47
-103.16
-94.81
-77.13
-50.57
-18.20
15.49
45.90
69.62
84.83
91.33
90.04
82.50
70.48
55.88
40.57
26.49
15.34
8.40
6.42
9.67
18.15
31.79
50.56
74.28
102.27
132.99
163.95
192.03
214.04
227.53
231.35
225.95
213.17
195.68
176.19
156.79
138.68
122.18
106.91
92.22
77.35
61.78
45.39
28.71
12.80
-1.00
-11.58
-18.48
-22.04
-23.35
-23.73
-24.24
-25.34
-26.82
-28.02
-28.23
-27.02
-24.34
-20.57
-16.20
-11.66
-7.25
-3.06
0.81
4.13
6.54
7.68
7.38
5.79
3.30
0.39
-2.43
-4.71
-5.88
-5.36
-2.84
1.38
6.09
9.32
9.00
3.94
-5.42
-16.85
-26.89
-32.06
-30.15
-21.10
-7.09
8.20
20.92
28.54
30.72
29.45
28.12
29.89
36.22
46.09
56.32
62.79
61.99
52.10
33.51
8.71
-18.20
-42.26
-58.78
-64.62
-59.27
-45.25
-27.09
-9.68
3.60
11.68
15.27
15.36
11.94
3.90
-9.97
-29.50
-52.27
-73.99
-90.08
-97.28
-94.79
-84.11
-68.13
-49.82
-31.19
-13.10
4.39
21.01
35.62
46.02
49.66
44.86
31.94
13.75
-4.83
-18.16
-21.53
-12.85
6.53
32.05
57.44
77.09
88.34
92.50
94.06
98.23
108.00
122.32
136.33
143.71
139.79
123.83
99.47
72.98
50.63
36.37
30.98
32.78
39.30
48.69
60.17
73.34
87.13
99.29
106.96
108.00
102.30
92.09
81.03
72.50
68.17
67.44
68.06
67.35
63.07
53.87
39.29
19.68
-3.67
-28.29
-50.74
-67.22
-74.49
-70.97
-57.50
-37.20
-14.73
5.14
18.88
24.98
23.86
17.16
6.78
-5.64
-18.69
-30.98
-40.75
-45.92
-44.61
-35.80
-19.90
1.26
24.75
47.49
67.00
82.19
93.34
101.60
108.17
113.35
116.29
115.33
109.00
96.89
79.93
59.90
38.70
17.67
-2.39
-20.88
-37.03
-49.69
-57.85
-61.18
-60.49
-57.69
-55.33
-55.97
-61.49
-72.52
-88.24
-106.45
-124.26
-138.89
-148.65
-153.46
-154.77
-154.70
-155.13
-156.79
-159.03
-160.18
-158.47
-152.81
-143.19
-130.59
-116.39
-101.74
-87.25
-73.10
-59.37
-46.36
-34.76
-25.44
-19.15
-16.19
-16.29
-18.67
-22.17
-25.45
-27.02
-25.64
-20.74
-13.11
-5.36
-1.58
-6.44
-23.58
-54.27
-96.67
-145.81
-194.33
-234.06
-258.20
-263.36
-251.06
-227.49
-201.78
-182.87
-176.39
-182.87
-198.20
-215.69
-228.73
-232.84
-226.04
-208.31
-180.58
-144.20
-100.83
-52.73
-2.61
46.68
92.52
132.92
166.52
192.69
211.36
222.84
227.63
226.33
219.55
208.01
192.67
174.76
