1520259371.00
64.000000
-0.00
-0.00
-0.00
-0.00
-0.00
-0.00
-0.00
-0.00
-0.00
-0.00
0.00
0.01
0.01
-0.00
-0.03
-0.05
-0.05
0.00
0.13
0.36
0.66
1.01
1.37
1.72
2.06
2.40
2.79
3.24
3.80
4.42
5.06
5.66
6.20
6.68
7.15
7.68
8.31
9.14
10.09
11.04
11.88
12.56
13.14
13.76
14.65
15.96
17.91
20.32
22.90
25.38
27.58
29.57
31.68
34.32
37.81
42.54
48.15
54.10
59.83
64.97
69.58
74.14
79.34
85.71
93.76
103.00
112.62
121.73
129.77
136.75
143.30
150.75
157.77
166.64
177.95
191.79
206.97
220.57
228.25
225.36
208.53
176.87
132.76
80.05
23.07
-34.94
-92.44
-149.16
-205.23
-260.37
-313.74
-363.87
-409.83
-450.91
-486.50
-515.74
-537.23
-549.22
-549.96
-538.37
-514.21
-478.67
-433.88
-382.45
-327.02
-269.84
-212.63
-156.66
-102.95
-52.37
-5.90
35.58
71.43
101.35
125.50
144.38
158.69
169.15
176.37
180.75
182.57
182.07
179.51
175.23
169.65
163.18
156.15
148.81
141.30
133.69
126.02
118.33
110.69
103.16
95.80
88.68
81.83
75.25
68.95
62.95
57.25
51.86
46.78
42.03
37.59
33.45
29.61
26.07
22.81
19.83
17.11
14.67
12.48
10.54
8.83
7.35
6.07
4.97
4.05
3.27
2.62
2.09
1.65
1.30
1.02
0.80
0.63
0.50
0.41
0.34
0.30
0.28
0.28
0.29
0.31
0.34
0.37
0.41
0.45
0.49
0.54
0.59
0.64
0.69
0.75
0.82
0.88
0.96
1.04
1.13
1.23
1.35
1.47
1.62
1.78
1.96
2.16
2.38
2.63
2.90
3.20
3.53
3.89
4.29
4.72
5.18
5.69
6.23
6.82
7.44
8.12
8.83
9.59
10.40
11.25
12.15
13.09
14.09
15.15
16.27
17.46
18.71
20.01
21.32
22.61
23.79
24.78
25.42
25.63
25.25
24.19
22.39
19.85
16.62
12.76
8.45
3.85
-0.85
-5.44
-9.72
-13.50
-16.62
-18.97
-20.52
-21.26
-21.35
-20.91
-20.09
-19.03
-17.82
-16.50
-15.06
-13.51
-11.85
-10.18
-8.61
-7.21
-6.03
-4.99
-3.98
-2.86
-1.49
0.17
1.90
3.46
4.64
5.38
5.80
6.19
6.90
8.22
10.28
12.60
14.67
16.02
16.45
16.14
15.59
15.42
16.12
17.91
19.98
21.45
21.51
19.80
16.53
12.40
8.31
5.06
3.05
1.46
-0.79
-5.05
-12.74
-25.08
-42.67
-65.23
-91.70
-115.40
-131.43
-136.46
-129.82
-113.70
-92.30
-70.15
-50.47
-34.42
-21.41
-10.92
-2.59
3.28
6.07
5.47
1.93
-3.43
-9.26
-14.44
-19.03
-23.58
-28.96
-35.96
-45.08
-56.32
-69.16
-82.50
-94.60
-103.55
-107.14
-103.34
-90.92
-69.94
-41.87
-9.43
24.10
55.58
82.48
103.34
117.72
125.98
128.94
127.63
123.08
116.31
108.16
99.27
90.08
80.89
71.98
63.63
56.17
49.79
44.44
39.75
35.07
29.74
23.31
15.77
7.45
-1.13
-9.59
-17.82
-26.07
-34.88
-44.92
-56.78
-70.64
-85.91
-100.96
-113.22
-119.70
-117.82
-106.34
-85.88
-58.77
-28.37
1.87
29.24
52.13
69.87
82.46
90.17
93.44
92.93
89.58
84.48
78.74
73.15
68.08
63.48
59.05
54.60
50.18
46.04
42.47
39.54
36.92
33.93
29.80
23.96
16.22
6.86
-3.56
-14.47
-25.47
-36.56
-48.09
-60.64
-74.71
-90.39
-107.02
-122.99
-135.87
-142.89
-141.69
-131.03
-111.25
-84.24
-52.86
-20.36
10.52
37.82
60.57
78.51
91.89
101.14
106.70
108.97
108.33
105.23
100.16
93.69
86.28
78.30
70.00
61.54
53.21
45.37
38.45
32.58
27.55
22.67
17.08
10.03
1.23
-9.07
-20.17
-31.19
-41.41
-50.51
-58.69
-66.69
-75.49
-85.91
-98.06
-110.94
-122.39
-129.55
-129.69
-121.03
-103.45
-78.48
-48.93
-18.07
11.06
36.28
56.32
70.78
79.85
84.12
84.34
81.37
76.09
69.30
61.71
53.90
46.30
39.29
33.17
28.21
24.52
22.01
20.30
18.76
16.68
13.47
8.81
2.76
-4.37
-12.07
-19.93
-27.73
-35.55
-43.87
-53.34
-64.61
-77.95
-92.82
-107.68
-120.04
-126.95
-125.84
-115.38
-96.09
-70.28
-41.43
-13.20
11.56
31.27
45.60
55.07
60.49
62.60
61.98
59.17
54.75
49.42
43.90
38.74
34.30
30.67
27.79
25.51
23.63
21.90
19.97
17.45
13.97
9.24
3.19
-3.99
-11.92
-20.10
-28.19
-36.14
-44.28
-53.29
-63.86
-76.23
-89.74
-102.59
-112.12
-115.45
-110.46
-96.54
-74.91
-48.25
-19.94
6.91
30.08
48.46
61.81
70.44
74.89
75.77
73.85
70.01
65.16
60.08
55.25
50.81
46.70
42.88
39.45
36.69
34.80
33.71
32.94
31.65
28.99
24.36
17.70
9.44
0.37
-8.72
-17.27
-25.15
-32.67
-40.54
-49.65
-60.71
-73.86
-88.25
-101.93
-112.15
-116.05
-111.62
-98.38
-77.62
-51.99
-24.71
1.36
24.27
43.15
57.88
68.67
75.79
79.47
80.08
78.28
75.00
71.23
67.73
64.81
62.30
59.76
56.82
53.38
49.76
46.42
43.74
41.68
39.71
36.95
32.57
26.12
17.79
8.26
-1.53
-10.85
-19.42
-27.46
-35.59
-44.50
-54.74
-66.43
-79.16
-91.79
-102.45
-108.85
-108.77
-100.84
-85.05
-62.93
-37.16
-10.77
13.63
34.51
51.39
64.51
74.34
81.20
85.18
86.36
85.06
81.94
77.90
73.81
70.25
67.36
64.95
62.67
60.22
57.48
54.45
51.26
48.03
44.80
41.45
37.71
33.17
27.40
20.11
11.37
1.62
-8.43
-18.07
-26.78
-34.47
-41.45
-48.38
-56.02
-65.03
-75.63
-87.40
-99.04
-108.52
-113.46
-111.74
-102.26
-85.36
-62.77
-37.20
-11.56
11.74
31.24
46.53
57.93
66.12
71.74
75.27
76.95
76.98
75.63
73.34
70.64
68.03
65.84
64.12
62.75
61.46
60.05
58.39
56.42
54.11
51.33
47.93
43.72
38.62
32.64
25.89
18.56
10.82
2.82
-5.27
-13.27
-20.99
-28.25
-35.00
-41.42
-47.90
-55.06
-63.56
-73.72
-85.24
-96.94
-106.79
-112.34
-111.41
-102.76
-86.54
-64.36
-38.84
-12.97
10.69
30.46
45.76
56.84
64.40
69.16
71.60
71.96
70.47
67.52
63.80
60.15
57.27
55.50
54.68
54.30
53.78
52.70
50.91
48.52
45.72
42.67
39.34
35.54
30.94
25.23
18.21
9.90
0.62
-9.12
-18.70
-27.62
-35.60
-42.66
-49.08
-55.42
-62.35
-70.51
-80.26
-91.41
-102.95
-113.05
-119.35
-119.59
-112.36
-97.62
-76.85
-52.62
-27.87
-5.10
14.13
29.30
40.62
48.63
53.80
56.43
56.78
55.14
52.07
48.27
44.51
41.37
39.14
37.75
36.92
36.28
35.53
34.52
33.24
31.70
29.83
27.43
24.17
19.70
13.81
6.55
-1.74
-10.48
-19.07
-27.06
-34.27
-40.83
-47.14
-53.79
-61.40
-70.52
-81.33
-93.42
-105.50
-115.55
-121.14
-120.10
-111.27
-94.93
-72.84
-47.71
-22.47
0.51
19.80
34.97
46.22
54.08
59.07
61.59
61.98
60.63
58.03
54.78
51.47
48.49
46.06
44.16
42.63
41.31
40.11
39.01
37.97
36.91
35.55
33.46
30.15
25.20
18.47
10.16
0.80
-8.83
-18.03
-26.32
-33.67
-40.44
-47.34
-55.18
-64.64
-76.00
-88.89
-102.16
-113.80
-121.38
-122.57
-115.94
-101.44
-80.55
-55.84
-30.26
-6.37
14.22
30.90
43.84
53.56
60.62
65.38
68.07
68.94
68.28
66.53
64.20
61.69
59.27
57.06
55.05
53.20
51.50
49.92
48.38
46.71
44.66
42.02
38.59
34.28
29.03
22.84
15.76
7.91
-0.43
-8.87
-16.99
-24.50
-31.29
-37.61
-43.96
-51.05
-59.56
-69.81
-81.45
-93.17
-102.73
-107.40
-104.63
-92.97
-72.62
-45.54
-14.94
15.67
43.47
66.90
85.68
100.43
112.00
121.13
128.31
133.94
138.61
143.22
148.79
156.20
165.80
177.27
189.61
201.43
211.30
218.01
220.69
218.72
211.67
199.27
181.39
158.21
130.19
97.79
61.18
20.17
-25.33
-74.41
-124.44
-171.04
-209.20
-235.17
-247.96
-249.93
-245.74
-240.53
-237.99
-239.38
-243.71
-248.63
-251.50
-249.99
-242.38
-227.61
-205.45
-176.73
-143.45
-108.46
-74.81
-45.12
-20.93
-2.54
10.84
20.60
28.21
34.77
40.74
46.04
50.25
53.01
54.24
54.25
53.61
52.93
52.64
52.83
53.31
53.69
53.52
52.48
50.44
47.45
43.66
39.23
34.19
28.47
21.94
14.50
6.17
-2.84
-12.16
-21.36
-30.08
-38.16
-45.79
-53.51
-62.13
-72.32
-84.22
-96.99
-108.75
-116.89
-118.77
-112.64
-98.23
-76.95
-51.43
-24.76
0.31
21.96
39.41
52.71
62.39
69.05
73.25
75.43
75.97
75.25
73.61
71.40
68.89
66.26
63.72
61.47
59.70
58.53
57.90
57.56
57.05
55.85
53.60
50.15
45.60
40.20
34.21
27.79
20.99
13.74
6.00
-2.20
-10.71
-19.30
-27.73
-35.84
-43.68
-51.54
-59.95
-69.51
-80.67
-93.27
-106.30
-117.76
-125.07
-125.70
-118.04
-102.01
-79.18
-52.35
-24.81
0.58
21.92
38.51
50.59
58.92
64.33
67.53
68.95
68.93
67.74
65.74
63.32
60.86
58.65
56.81
55.38
54.29
53.44
52.70
51.89
50.79
49.15
46.76
43.49
39.39
34.53
28.98
22.78
15.93
8.40
0.24
-8.36
-17.15
-25.81
-34.15
-42.15
-50.03
-58.25
-67.40
-78.01
-90.17
-103.28
-115.88
-125.70
-130.22
-127.32
-116.00
-96.86
-71.97
-44.36
-17.24
6.89
26.62
41.62
52.37
59.58
63.98
66.07
66.27
65.03
62.90
60.48
58.24
56.49
55.31
54.58
54.13
53.79
53.37
52.74
51.78
50.39
48.44
45.80
42.32
37.84
32.28
25.64
18.07
9.77
0.97
-8.09
-17.19
-26.13
-34.73
-42.91
-50.80
-58.82
-67.62
-77.89
-89.90
-103.18
-116.17
-126.44
-131.20
-128.14
-116.25
-96.23
-70.40
-42.00
-14.26
10.39
30.66
46.33
57.85
65.86
70.97
73.72
74.58
74.07
72.68
70.80
68.68
66.46
64.27
62.30
60.76
59.81
59.44
59.40
59.29
58.66
57.21
54.78
51.33
46.92
41.59
35.40
28.34
20.45
11.81
2.60
-6.90
-16.31
-25.27
-33.55
-41.20
-48.59
-56.39
-65.34
-75.98
-88.31
-101.52
-113.89
-123.00
-126.21
-121.45
-107.88
-86.37
-59.36
-30.25
-2.43
21.59
40.61
54.67
64.48
70.89
74.48
75.56
74.40
71.45
67.44
63.22
59.55
56.89
55.29
54.52
54.13
53.68
52.82
51.39
49.36
46.87
44.07
41.05
37.70
33.73
28.76
22.43
14.67
5.66
-4.11
-14.00
-23.44
-32.09
-39.97
-47.45
-55.24
-64.19
-75.00
-87.83
-101.97
-115.65
-126.23
-130.85
-127.28
-114.67
-94.05
-67.93
-39.67
-12.48
11.30
30.51
45.00
55.20
61.69
64.98
65.49
63.72
60.31
56.08
51.81
48.11
45.27
43.23
41.71
40.45
39.25
38.14
37.18
36.40
35.56
34.20
31.73
27.62
21.63
13.89
4.89
-4.67
-14.13
-22.99
-31.05
-38.44
-45.60
-53.28
-62.37
-73.60
-87.21
-102.41
-117.36
-129.32
-135.35
-133.22
-122.16
-103.12
-78.55
-51.62
-25.33
-1.84
17.78
33.39
45.30
53.93
59.53
62.35
62.76
61.38
59.05
56.57
54.45
52.81
51.39
49.85
47.96
45.79
43.62
41.74
40.23
38.80
36.80
33.48
28.20
20.76
11.47
1.06
-9.53
-19.54
-28.56
-36.73
-44.58
-52.92
-62.61
-74.26
-87.93
-102.76
-116.91
-127.75
-132.49
-129.06
-116.88
-97.07
-72.21
-45.45
-19.64
3.28
22.49
38.03
50.35
59.86
66.84
71.37
73.54
73.55
71.86
69.10
65.88
62.61
59.42
56.22
52.88
49.41
46.07
43.23
41.11
39.56
38.02
35.68
31.75
25.83
18.03
8.91
-0.71
-10.13
-18.94
-27.13
-35.08
-43.37
-52.73
-63.71
-76.51
-90.64
-104.74
-116.59
-123.58
-123.42
-114.91
-98.42
-75.87
-50.10
-24.05
0.02
20.85
38.16
52.23
63.51
72.35
78.93
83.33
85.67
86.17
85.18
83.12
80.41
77.38
74.26
71.19
68.25
65.49
62.93
60.54
58.24
55.83
53.07
49.67
45.33
39.76
32.81
24.48
15.04
5.02
-4.94
-14.28
-22.74
-30.43
-37.85
-45.68
-54.61
-65.08
-77.10
-90.08
-102.70
-113.02
-118.81
-118.12
-109.84
-94.21
-72.81
-48.13
-22.91
0.58
20.91
37.55
50.66
60.70
68.22
73.69
77.44
79.72
80.71
80.52
79.33
77.32
74.75
71.95
69.19
66.73
64.73
63.19
61.94
60.64
58.82
56.09
52.17
47.08
41.07
34.42
27.34
19.83
11.74
3.01
-6.25
-15.63
-24.65
-32.90
-40.24
-46.93
-53.54
-60.81
-69.47
-79.96
-92.18
-105.29
-117.58
-126.69
-130.14
-126.08
-113.90
-94.58
-70.41
-44.32
-19.06
3.44
22.25
37.29
48.88
57.42
63.27
66.70
68.09
67.96
66.92
65.51
64.06
62.68
61.27
59.73
58.08
56.57
55.49
55.11
55.40
55.94
56.08
55.11
52.62
48.65
43.68
38.41
33.38
28.77
24.24
19.20
13.03
5.51
-3.08
-12.04
-20.54
-27.96
-34.19
-39.66
-45.31
-52.27
-61.46
-73.12
-86.44
-99.51
-109.61
-113.90
-110.35
-98.39
-79.30
-55.81
-31.34
-8.99
9.17
22.44
31.36
37.09
40.89
43.64
45.69
46.98
47.26
46.43
44.64
42.33
40.06
38.37
37.57
37.76
38.84
40.61
42.81
45.15
47.27
48.76
49.17
48.15
45.45
41.07
35.19
28.13
20.25
11.89
3.34
-5.12
-13.26
-20.90
-27.99
-34.79
-41.82
-49.86
-59.60
-71.24
-84.14
-96.64
-106.36
-110.74
-107.85
-97.03
-79.23
-56.68
-32.26
-8.70
12.08
29.19
42.54
52.48
59.36
63.34
64.57
63.35
60.32
56.44
52.72
49.89
48.20
47.37
46.78
45.81
44.10
41.69
38.91
36.16
33.60
31.06
28.03
23.85
18.04
10.49
1.53
-8.12
-17.66
-26.45
-34.25
-41.28
-48.10
-55.47
-64.08
-74.33
-86.01
-98.16
-109.01
-116.27
-117.63
-111.55
-97.73
-77.41
-52.99
-27.32
-2.98
18.33
35.91
49.78
60.22
67.45
71.59
72.80
71.49
68.37
64.38
60.37
56.86
53.91
51.28
48.65
45.88
43.12
40.74
39.02
37.93
37.00
35.38
32.22
26.90
19.39
10.21
0.25
-9.56
-18.67
-27.02
-35.09
-43.72
-53.86
-66.23
-80.96
-97.39
-113.83
-127.81
-136.57
-137.87
-130.73
-115.80
-95.19
-71.79
-48.44
-27.23
-9.26
5.12
16.02
23.65
28.21
29.93
29.20
26.55
22.63
18.10
13.51
9.26
5.66
2.90
1.10
0.32
0.46
1.23
2.11
2.44
1.52
-1.11
-5.63
-11.75
-18.92
-26.51
-34.01
-41.28
-48.60
-56.61
-66.05
-77.46
-90.68
-104.62
-117.11
-125.30
-126.39
-118.57
-101.67
-77.38
-48.80
-19.54
7.22
29.43
46.30
58.00
65.26
68.93
69.74
68.36
65.37
61.31
56.67
51.83
47.02
42.43
38.25
34.75
32.22
30.73
30.04
29.51
28.20
25.30
20.37
13.50
5.32
-3.36
-11.84
-19.80
-27.41
-35.27
-44.23
-55.12
-68.29
-83.24
-98.31
-110.88
-117.94
-116.96
-106.81
-88.14
-63.28
-35.47
-7.94
16.88
37.66
54.05
66.28
74.75
79.85
81.94
81.51
79.18
75.66
71.61
67.43
63.24
58.96
54.59
50.31
46.48
43.49
41.41
39.90
38.27
35.64
31.34
25.13
17.25
8.27
-1.11
-10.29
-19.04
-27.50
-36.25
-46.11
-57.82
-71.54
-86.46
-100.60
-111.14
-115.13
-110.41
-96.43
-74.41
-47.06
-17.72
10.54
35.48
55.96
71.71
83.01
90.34
94.25
95.31
94.14
91.47
88.01
84.38
80.92
77.74
74.72
71.71
68.62
65.56
62.77
60.45
58.57
56.73
54.21
50.22
44.23
36.25
26.82
16.92
7.49
-0.90
-8.25
-15.17
-22.62
-31.55
-42.49
-55.26
-68.83
-81.34
-90.44
-93.78
-89.76
-77.96
-59.39
-36.24
-11.19
13.23
35.18
53.61
68.18
78.92
85.99
89.63
90.18
88.22
84.57
80.14
75.72
71.75
68.28
65.11
61.94
58.66
55.33
52.14
49.23
46.51
43.66
40.22
35.73
29.95
22.93
15.02
6.69
-1.58
-9.46
-16.95
-24.35
-32.26
-41.37
-52.13
-64.40
-77.21
-88.71
-96.59
-98.72
-93.76
-81.71
-63.85
-42.35
-19.66
2.09
21.40
37.34
49.46
57.58
61.74
62.30
59.93
55.57
50.23
44.75
39.66
35.15
31.20
27.80
25.02
23.00
21.84
21.41
21.27
20.75
19.17
16.05
11.33
5.32
-1.41
-8.30
-14.99
-21.37
-27.54
-33.83
-40.63
-48.36
-57.25
-67.05
-76.80
-84.83
-89.05
-87.64
-79.69
-65.60
-47.01
-26.28
-5.76
12.68
27.95
39.52
47.32
51.50
52.42
50.69
47.12
42.57
37.82
33.39
29.52
26.24
23.44
20.99
18.83
16.94
15.32
13.90
12.47
10.64
7.95
4.10
-0.99
-7.04
-13.51
-19.86
-25.77
-31.38
-37.21
-43.99
-52.16
-61.63
-71.45
-79.98
-85.28
-85.67
-80.30
-69.38
-54.11
-36.35
-18.09
-1.03
13.64
25.31
33.78
39.12
41.60
41.64
39.80
36.74
33.10
29.40
25.90
22.66
19.64
16.79
14.23
12.18
10.80
10.07
9.61
8.82
7.04
3.82
-0.90
-6.85
-13.52
-20.39
-27.07
-33.37
-39.32
-45.20
-51.46
-58.58
-66.80
-75.77
-84.40
-90.91
-93.32
-90.15
-80.88
-66.31
-48.20
-28.79
-10.13
6.33
19.82
30.11
37.21
41.22
42.32
40.88
37.57
33.32
29.09
25.61
23.12
21.42
20.03
18.49
16.67
14.77
13.16
12.10
11.45
10.67
8.94
5.51
0.05
-7.18
-15.48
-23.90
-31.65
-38.39
-44.24
-49.81
-55.79
-62.82
-71.19
-80.73
-90.73
-99.99
-106.95
-109.96
-107.68
-99.45
-85.51
-67.09
-46.07
-24.63
-4.72
12.21
25.40
34.70
40.35
42.85
42.76
40.76
37.61
34.07
30.79
28.15
26.19
24.66
23.25
21.76
20.19
18.74
17.55
16.57
15.47
13.73
10.81
6.42
0.56
-6.48
-14.23
-22.16
-29.86
-37.11
-43.92
-50.56
-57.53
-65.44
-74.78
-85.70
-97.65
-109.42
-119.15
-124.78
-124.56
-117.47
-103.59
-84.06
-60.91
-36.50
-13.10
7.64
24.79
38.17
48.01
54.70
58.61
60.04
59.36
57.11
54.04
50.91
48.36
46.74
46.08
46.20
46.76
47.40
47.73
47.37
46.07
43.75
40.46
36.39
31.64
26.20
19.90
12.55
4.09
-5.30
-15.14
-24.91
-34.17
-42.79
-50.95
-59.09
-67.76
-77.50
-88.61
-100.93
-113.63
-125.10
-133.02
-134.99
-129.13
-114.85
-93.08
-66.16
-37.11
-8.80
16.70
38.31
55.76
69.20
78.81
84.77
87.30
86.91
84.42
80.92
77.50
74.95
73.63
73.45
74.00
74.77
75.35
75.49
75.10
74.16
72.60
70.27
66.91
62.29
56.22
48.69
39.82
29.90
19.28
8.33
-2.55
-13.07
-23.04
-32.49
-41.66
-51.01
-61.18
-72.76
-85.98
-100.32
-114.33
-125.62
-131.34
-129.01
-117.29
-96.59
-68.99
-37.80
-6.53
21.87
45.58
63.99
77.30
86.13
91.08
92.66
91.38
87.93
83.26
78.40
74.30
71.45
69.86
69.15
68.77
68.30
67.56
66.58
65.39
63.90
61.86
58.89
54.64
48.87
41.52
32.76
22.92
12.44
1.80
-8.58
-18.46
-27.78
-36.79
-45.96
-55.93
-67.30
-80.38
-94.86
-109.54
-122.28
-130.40
-131.25
-123.12
-105.83
-80.85
-51.02
-19.71
9.96
35.79
56.67
72.39
83.24
89.73
92.35
91.68
88.45
83.61
78.31
73.64
70.35
68.69
68.32
68.51
68.51
67.82
66.35
64.39
62.28
60.17
57.83
54.71
50.13
43.62
35.09
24.89
13.67
2.13
-9.13
-19.77
-29.66
-38.91
-47.86
-57.08
-67.28
-79.11
-92.71
-107.34
-121.11
-131.19
-134.57
-128.94
-113.63
-89.92
-60.71
-29.66
-0.12
25.59
46.43
62.35
73.83
81.46
85.70
86.96
85.76
82.75
78.70
74.43
70.61
67.71
65.88
65.07
64.96
65.15
65.22
64.82
63.70
61.70
58.74
54.72
49.52
43.08
35.39
26.56
16.86
6.63
-3.76
-13.93
-23.65
-32.82
-41.59
-50.30
-59.50
-69.78
-81.52
-94.61
-108.14
-120.26
-128.47
-130.16
-123.40
-107.66
-84.11
-55.42
-25.00
3.88
28.93
49.04
64.18
74.85
81.65
85.01
85.36
83.26
79.53
75.17
71.12
67.98
65.87
64.54
63.58
62.60
61.39
59.86
57.93
55.49
52.44
48.66
44.13
38.89
32.94
26.26
18.77
10.40
1.20
-8.58
-18.47
-27.96
-36.66
-44.46
-51.66
-58.90
-66.94
-76.45
-87.57
-99.68
-111.24
-119.94
-123.25
-119.12
-106.69
-86.64
-61.10
-33.06
-5.60
18.85
38.85
53.95
64.44
70.94
74.22
75.03
74.06
71.94
69.21
66.30
63.49
60.98
58.90
57.36
56.40
55.98
55.86
55.69
55.02
53.50
50.92
47.25
42.60
37.14
31.00
24.28
17.01
9.21
0.94
-7.69
-16.51
-25.31
-33.90
-42.07
-49.79
-57.13
-64.45
-72.25
-81.05
-91.00
-101.63
-111.53
-118.54
-120.30
-114.91
-101.72
-81.60
-56.70
-29.93
-4.10
18.70
37.29
51.36
61.16
67.17
70.01
70.32
68.80
66.18
63.14
60.23
57.78
55.94
54.71
54.03
53.77
53.85
54.12
54.40
54.42
53.85
52.39
49.78
45.95
41.01
35.22
28.86
22.15
15.09
7.58
-0.51
-9.12
-17.97
-26.56
-34.40
-41.26
-47.31
-53.12
-59.49
-67.20
-76.62
-87.39
-98.24
-107.14
-111.70
-109.82
-100.40
-83.76
-61.66
-36.80
-12.11
10.00
28.12
41.82
51.47
57.72
61.26
62.66
62.34
60.72
58.28
55.58
53.15
51.41
50.49
50.25
50.38
50.49
50.32
49.72
48.66
47.15
45.11
42.43
38.96
34.62
29.42
23.48
16.88
9.65
1.80
-6.65
-15.51
-24.42
-32.94
-40.75
-47.79
-54.42
-61.33
-69.34
-79.02
-90.38
-102.53
-113.67
-121.45
-123.43
-117.89
-104.41
-84.08
-59.35
-33.30
-8.90
11.66
27.36
38.21
44.88
48.23
49.08
48.04
45.63
42.36
38.84
35.64
33.21
31.69
30.92
30.51
30.02
29.14
27.77
25.98
23.92
21.66
19.10
15.97
11.90
6.54
-0.24
-8.27
-17.14
-26.29
-35.24
-43.65
-51.43
-58.71
-65.78
-73.19
-81.53
-91.41
-103.05
-115.94
-128.62
-138.73
-143.51
-140.63
-129.03
-109.38
-83.92
-55.89
-28.59
-4.51
15.05
29.90
40.62
47.95
52.49
54.64
54.71
53.15
50.62
47.84
45.39
43.57
42.26
41.13
39.86
38.30
36.54
34.79
33.18
31.63
29.79
27.05
22.80
16.62
8.45
-1.35
-12.05
-22.82
-32.87
-41.80
-49.66
-56.99
-64.71
-73.85
-85.26
-99.13
-114.65
-129.83
-141.77
-147.32
-144.03
-131.02
-109.36
-81.75
-51.75
-22.72
2.98
24.27
41.11
54.06
63.72
70.49
74.65
76.43
76.28
74.85
72.88
70.97
69.43
68.17
66.86
65.19
62.94
60.22
57.32
54.50
51.80
48.94
45.32
40.28
33.34
24.33
13.59
1.82
-10.07
-21.27
-31.32
-40.30
-48.75
-57.64
-68.06
-80.83
-96.08
-112.88
-129.11
-141.73
-147.51
-143.92
-130.05
-106.98
-77.50
-45.36
-14.16
13.43
36.14
53.89
67.39
77.46
84.77
89.66
92.29
92.90
91.90
89.89
87.51
85.15
82.92
80.64
78.07
75.13
71.98
68.94
66.26
63.89
61.45
58.25
53.50
46.61
37.41
26.20
13.74
1.01
-11.09
-22.01
-31.73
-40.76
-49.96
-60.33
-72.64
-87.20
-103.50
-120.08
-134.52
-143.85
-145.19
-136.67
-118.15
-91.49
-60.11
-28.00
1.40
26.02
45.30
59.81
70.60
78.60
84.33
88.04
89.88
90.06
88.95
86.98
84.53
81.94
79.44
77.21
75.38
73.90
72.59
71.12
69.07
66.10
62.02
56.85
50.72
43.76
36.02
27.46
18.00
7.70
-3.16
-14.11
-24.67
-34.50
-43.56
-52.19
-60.98
-70.67
-81.91
-94.91
-109.16
-123.20
-134.63
-140.60
-138.54
-127.04
-106.41
-78.80
-47.56
-16.36
11.75
34.97
52.85
65.96
75.26
81.68
85.82
88.03
88.57
87.75
86.05
83.95
81.86
79.97
78.34
76.95
75.77
74.80
74.01
73.21
71.98
69.83
66.28
61.13
54.47
46.69
38.25
29.48
20.45
11.04
1.11
-9.32
-19.96
-30.32
-39.93
-48.54
-56.24
-63.46
-70.94
-79.49
-89.77
-101.92
-115.16
-127.66
-136.68
-139.24
-133.01
-117.24
-93.07
-63.41
-32.03
-2.54
22.47
41.88
55.84
65.32
71.49
75.29
77.30
77.83
77.12
75.46
73.30
71.04
68.97
67.23
65.81
64.68
63.81
63.14
62.52
61.64
60.08
57.46
53.57
48.43
42.26
35.35
27.91
20.04
11.75
2.96
-6.33
-15.98
-25.72
-35.19
-44.05
-52.15
-59.66
-67.10
-75.23
-84.77
-95.91
-108.00
-119.37
-127.49
-129.68
-123.88
-109.35
-87.17
-59.85
-30.76
-3.13
20.68
39.50
53.25
62.52
68.13
70.86
71.38
70.31
68.26
65.82
63.44
61.37
59.59
58.02
56.58
55.36
54.47
54.05
53.99
53.94
53.36
51.74
48.73
44.33
38.82
32.67
26.28
19.80
13.14
6.07
-1.66
-10.09
-19.03
-28.05
-36.66
-44.50
-51.52
-58.05
-64.72
-72.36
-81.69
-92.94
-105.48
-117.68
-126.99
-130.66
-126.48
-113.61
-92.95
-66.93
-38.81
-11.74
11.94
31.04
45.37
55.37
61.66
64.87
65.56
64.34
61.89
58.92
56.04
53.64
51.82
50.49
49.50
48.77
48.34
48.24
48.46
48.71
48.52
47.33
44.73
40.56
35.05
28.63
21.77
14.82
7.83
0.67
-6.87
-14.91
-23.38
-32.00
-40.43
-48.39
-55.80
-62.85
-70.09
-78.20
-87.84
-99.19
-111.56
-123.22
-131.57
-133.83
-127.90
-113.18
-90.86
-63.66
-34.99
-8.02
15.02
33.12
46.27
55.10
60.40
62.95
63.33
62.06
59.59
56.44
53.13
50.14
47.84
46.38
45.73
45.69
45.97
46.32
46.49
46.25
45.37
43.67
40.98
37.24
32.48
26.79
20.29
13.07
5.21
-3.26
-12.19
-21.41
-30.58
-39.37
-47.58
-55.23
-62.71
-70.70
-80.01
-91.11
-103.69
-116.41
-126.89
-132.32
-130.24
-119.46
-100.52
-75.60
-47.89
-20.65
3.59
23.41
38.48
49.16
56.09
59.93
61.24
60.51
58.28
55.10
51.60
48.37
45.89
44.43
43.98
44.30
44.97
45.59
45.81
45.46
44.45
42.73
40.23
36.86
32.51
27.07
20.46
12.69
3.92
-5.53
-15.19
-24.56
-33.28
-41.28
-48.80
-56.34
-64.50
-73.82
-84.61
-96.64
-109.07
-120.22
-127.79
-129.28
-122.84
-107.89
-85.56
-58.45
-29.91
-3.05
19.97
38.16
51.53
60.60
65.99
68.27
67.98
65.75
62.32
58.47
54.84
51.86
49.66
48.16
47.16
46.42
45.76
45.07
44.33
43.51
42.52
41.11
38.89
35.38
30.17
23.14
14.45
4.62
-5.71
-15.87
-25.41
-34.13
-42.16
-49.97
-58.28
-67.94
-79.57
-93.19
-107.82
-121.42
-131.19
-134.30
-128.82
-114.31
-92.12
-64.92
-35.95
-8.22
16.14
36.09
51.47
62.65
70.14
74.48
76.14
75.70
73.84
71.34
68.94
67.13
66.00
65.28
64.49
63.23
61.32
58.89
56.24
53.64
51.15
48.55
45.33
40.92
34.90
27.19
18.10
8.30
-1.42
-10.44
-18.50
-25.83
-33.06
-41.04
-50.57
-62.15
-75.74
-90.53
-104.84
-116.33
-122.37
-120.78
-110.46
-91.85
-66.84
-38.35
-9.54
16.97
39.46
57.24
70.35
79.22
84.40
86.47
85.98
83.59
80.10
76.33
72.99
70.49
68.80
67.53
66.17
64.35
62.04
59.49
57.06
54.92
52.84
50.24
46.35
40.57
32.70
23.04
12.27
1.21
-9.39
-19.12
-28.00
-36.46
-45.20
-54.98
-66.39
-79.58
-93.97
-108.15
-119.89
-126.60
-125.93
-116.61
-98.84
-74.44
-46.36
-17.90
8.15
30.02
47.06
59.43
67.66
72.29
73.77
72.62
69.54
65.43
61.28
57.84
55.39
53.71
52.24
50.47
48.21
45.67
43.26
41.31
39.80
38.24
35.85
31.75
25.32
16.46
5.66
-6.09
-17.63
-28.03
-36.96
-44.83
-52.63
-61.59
-72.68
-86.17
-101.40
-116.63
-129.39
-136.87
-136.68
-127.58
-109.91
-85.66
-57.87
-29.81
-4.11
17.63
34.96
48.16
57.74
64.18
67.85
69.13
68.48
66.54
63.98
61.36
59.00
56.92
54.93
52.84
50.57
48.26
46.11
44.27
42.54
40.32
36.81
31.24
23.27
13.17
1.79
-9.73
-20.37
-29.62
-37.66
-45.35
-53.93
-64.56
-77.85
-93.38
-109.55
-123.72
-132.85
-134.29
-126.64
-110.22
-86.99
-59.95
-32.26
-6.40
16.20
35.14
50.63
63.01
72.49
79.13
83.04
84.55
84.25
82.86
80.99
78.96
76.75
74.15
70.96
67.20
63.16
59.27
55.90
53.04
50.25
46.70
41.48
33.97
24.18
12.79
0.90
-10.39
-20.41
-29.18
-37.36
-46.03
-56.22
-68.61
-83.16
-98.88
-113.83
-125.40
-130.87
-128.18
-116.62
-97.19
-72.34
-45.27
-18.96
4.53
24.34
40.57
53.79
64.55
73.04
79.19
82.83
84.03
83.21
81.16
78.76
76.62
74.89
73.25
71.16
68.22
64.48
60.33
56.30
52.62
49.03
44.82
39.16
31.47
21.76
10.67
-0.85
-11.81
-21.62
-30.26
-38.24
-46.40
-55.65
-66.71
-79.79
-94.46
-109.48
-122.81
-131.94
-134.45
-128.77
-114.70
-93.64
-68.14
-41.18
-15.34
7.80
27.62
44.18
57.79
68.62
76.70
82.05
84.79
85.28
84.01
81.60
78.65
75.65
72.92
70.54
68.37
66.14
63.54
60.35
56.53
52.16
47.31
41.93
35.80
28.59
20.10
10.38
-0.17
-10.94
-21.29
-30.82
-39.46
-47.49
-55.47
-64.00
-73.69
-84.90
-97.59
-111.06
-123.78
-133.49
-137.70
-134.32
-122.45
-102.79
-77.59
-49.98
-23.10
0.75
20.47
36.06
48.14
57.51
64.68
69.90
73.22
74.68
74.51
73.04
70.75
68.06
65.29
62.69
60.38
58.48
56.97
55.75
54.52
52.85
50.29
46.54
41.56
35.60
29.01
22.00
14.61
6.67
-2.03
-11.48
-21.39
-31.22
-40.41
-48.61
-55.87
-62.67
-69.80
-78.13
-88.31
-100.37
-113.56
-126.17
-135.83
-139.97
-136.58
-124.83
-105.44
-80.54
-53.08
-26.11
-1.90
18.29
34.26
46.45
55.49
61.92
66.08
68.33
69.09
68.89
68.25
67.48
66.62
65.53
64.06
62.29
60.53
59.16
58.40
58.04
57.47
55.96
52.90
48.12
41.95
35.02
27.97
21.22
14.72
8.08
0.78
-7.51
-16.77
-26.53
-36.09
-44.76
-52.19
-58.49
-64.25
-70.37
-77.79
-87.19
-98.62
-111.28
-123.43
-132.60
-136.20
-132.20
-119.88
-100.11
-75.12
-47.92
-21.40
2.29
22.08
37.81
49.93
59.01
65.49
69.67
71.76
72.08
71.13
69.51
67.76
66.13
64.63
63.10
61.43
59.70
58.23
57.33
57.11
57.25
57.08
55.77
52.69
47.63
40.92
33.26
25.44
18.02
11.12
4.39
-2.75
-10.81
-19.94
-29.80
-39.71
-48.92
-56.94
-63.73
-69.80
-76.03
-83.44
-92.85
-104.48
-117.64
-130.63
-140.87
-145.55
-142.35
-130.25
-109.88
-83.44
-54.08
-25.02
1.20
23.14
40.42
53.42
62.75
69.04
72.73
74.30
74.30
73.39
72.23
71.22
70.36
69.39
68.01
66.16
64.22
62.74
62.20
62.60
63.42
63.74
62.64
59.52
54.30
47.40
39.51
31.33
23.32
15.59
7.88
-0.25
-9.17
-18.96
-29.29
-39.55
-49.06
-57.41
-64.66
-71.33
-78.37
-86.81
-97.43
-110.33
-124.64
-138.35
-148.61
-152.42
-147.48
-132.96
-109.86
-80.77
-49.09
-18.16
9.48
32.39
50.20
63.21
72.04
77.37
79.84
80.08
78.74
76.49
73.97
71.63
69.71
68.23
67.12
66.31
65.86
65.84
66.28
66.94
67.30
66.68
64.44
60.28
54.31
47.03
39.06
30.89
22.69
14.28
5.31
-4.53
-15.26
-26.53
-37.70
-48.09
-57.24
-65.19
-72.47
-80.04
-88.93
-99.93
-113.03
-127.18
-140.23
-149.23
-151.20
-144.01
-127.06
-101.61
-70.47
-37.22
-5.32
22.65
45.30
62.25
73.84
80.77
83.86
84.04
82.27
79.48
76.40
73.49
70.92
68.69
66.83
65.44
64.71
64.71
65.27
65.92
66.05
65.04
62.48
58.32
52.79
46.28
39.16
31.66
23.78
15.35
6.18
-3.83
-14.54
-25.60
-36.48
-46.69
-55.98
-64.47
-72.75
-81.78
-92.52
-105.49
-120.27
-135.14
-147.29
-153.38
-150.55
-137.42
-114.62
-84.64
-51.11
-17.78
12.37
37.58
57.25
71.56
81.06
86.39
88.25
87.36
84.57
80.71
76.54
72.65
69.41
66.97
65.35
64.49
64.29
64.53
64.91
64.99
64.25
62.29
58.89
54.06
48.07
41.25
33.87
26.00
17.51
8.21
-1.97
-12.85
-24.01
-34.91
-45.08
-54.43
-63.30
-72.47
-82.88
-95.27
-109.58
-124.59
-137.82
-145.99
-145.94
-135.66
-115.12
-86.42
-53.21
-19.59
10.97
36.32
55.75
69.55
78.41
83.08
84.19
82.41
78.57
73.71
68.91
65.00
62.39
61.00
60.40
60.05
59.52
58.63
57.43
56.11
54.77
53.34
51.44
48.48
43.81
36.99
27.92
16.99
4.95
-7.29
-18.86
-29.26
-38.43
-46.83
-55.31
-64.90
-76.50
-90.48
-106.29
-122.25
-135.68
-143.47
-142.89
-132.47
-112.59
-85.39
-54.24
-22.83
5.76
29.55
47.80
60.69
68.86
73.04
73.92
72.20
68.65
64.21
59.75
56.00
53.22
51.27
49.70
48.06
46.15
44.13
42.33
40.99
39.95
38.55
35.86
30.95
23.35
13.26
1.50
-10.74
-22.35
-32.67
-41.69
-50.04
-58.74
-68.92
-81.36
-96.21
-112.59
-128.55
-141.25
-147.56
-144.94
-132.33
-110.60
-82.34
-51.18
-20.67
6.50
28.93
46.35
59.17
67.94
73.18
75.30
74.79
72.33
68.75
64.87
61.25
58.06
55.20
52.43
49.61
46.84
44.32
42.19
40.24
37.89
34.27
28.62
20.60
10.48
-0.99
-12.83
-24.22
-34.73
-44.53
-54.30
-65.05
-77.78
-92.96
-110.10
-127.46
-142.18
-150.94
-150.93
-140.77
-121.03
-94.09
-63.36
-32.30
-3.57
21.36
42.01
58.52
71.25
80.53
86.67
90.02
91.09
90.43
88.52
85.73
82.24
78.19
73.78
69.31
65.09
61.38
58.15
55.09
51.59
46.97
40.63
32.26
22.00
10.39
-1.74
-13.59
-24.64
-34.89
-44.98
-55.98
-68.94
-84.38
-101.64
-118.73
-132.55
-139.72
-137.65
-125.49
-104.47
-77.41
-47.85
-18.90
7.41
30.26
49.69
66.01
79.43
89.90
97.28
101.55
102.99
102.12
99.56
95.90
91.52
86.63
81.31
75.66
69.93
64.51
59.76
55.77
52.20
48.26
42.95
35.50
25.66
13.89
1.20
-11.22
-22.52
-32.42
-41.42
-50.55
-61.04
-73.84
-89.22
-106.42
-123.56
-137.90
-146.40
-146.56
-137.19
-118.80
-93.52
-64.41
-34.54
-6.25
19.20
41.49
60.74
77.08
90.37
100.31
106.66
109.53
109.45
107.27
103.92
100.15
96.38
92.67
88.86
84.74
80.21
75.37
70.43
65.61
60.92
56.14
50.76
44.17
35.87
25.72
14.00
1.41
-11.19
-23.03
-33.75
-43.41
-52.51
-61.84
-72.26
-84.44
-98.54
-113.97
-129.13
-141.58
-148.45
-147.20
-136.54
-116.89
-90.41
-60.40
-30.22
-2.44
21.67
41.99
59.08
73.49
85.43
94.71
100.98
104.05
104.17
101.98
98.39
94.29
90.28
86.62
83.23
79.91
76.48
72.86
69.04
65.02
60.68
55.85
50.32
43.93
36.59
28.25
18.91
8.71
-2.08
-13.00
-23.55
-33.33
-42.25
-50.63
-59.13
-68.53
-79.54
-92.40
-106.67
-121.02
-133.34
-141.01
-141.63
-133.68
-117.18
-93.75
-66.20
-37.73
-10.98
12.43
32.03
48.17
61.44
72.22
80.62
86.54
89.97
91.09
90.35
88.26
85.28
81.76
77.96
74.17
70.67
67.71
65.34
63.39
61.41
58.92
55.51
50.97
45.34
38.74
31.31
23.14
14.28
4.83
-5.04
-15.08
-25.02
-34.55
-43.45
-51.61
-59.11
-66.32
-73.95
-82.85
-93.75
-106.67
-120.60
-133.34
-142.00
-143.79
-137.00
-121.54
-99.04
-72.28
-44.30
-17.68
5.97
26.03
42.56
55.93
66.46
74.32
79.62
82.50
83.32
82.59
80.88
78.63
76.07
73.27
70.27
67.25
64.54
62.43
60.92
59.65
57.91
54.98
50.41
44.25
36.95
29.18
21.45
13.95
6.46
-1.46
-10.25
-20.03
-30.50
-41.05
-50.93
-59.57
-66.84
-73.16
-79.39
-86.64
-95.85
-107.34
-120.45
-133.40
-143.58
-148.11
-144.73
-132.51
-112.23
-86.19
-57.47
-29.15
-3.50
18.23
35.75
49.35
59.48
66.57
70.98
73.10
73.38
72.34
70.52
68.32
66.03
63.83
61.89
60.38
59.49
59.28
59.59
60.01
59.92
58.72
56.02
51.76
46.20
39.80
33.05
26.20
19.32
12.17
4.45
-4.07
-13.42
-23.31
-33.23
-42.56
-50.88
-58.12
-64.71
-71.52
-79.61
-89.79
-102.12
-115.52
-127.76
-135.92
-137.12
-129.50
-112.88
-88.90
-60.53
-31.18
-3.85
19.57
38.34
52.63
63.08
70.38
75.16
77.86
78.85
78.44
76.89
74.45
71.41
68.08
64.85
62.04
59.90
58.45
57.54
56.82
55.82
54.06
51.14
46.86
41.29
34.67
27.35
19.58
11.43
2.77
-6.53
-16.50
-26.88
-37.25
-47.11
-56.13
-64.27
-71.88
-79.69
-88.61
-99.44
-112.36
-126.48
-139.68
-148.93
-151.08
-143.93
-127.02
-101.92
-71.78
-40.38
-11.08
13.85
33.47
47.91
57.81
63.87
66.66
66.62
64.30
60.37
55.71
51.20
47.52
44.98
43.48
42.64
41.92
40.84
39.14
36.78
33.93
30.78
27.40
23.56
18.79
12.49
4.27
-5.84
-17.30
-29.28
-40.90
-51.58
-61.18
-69.97
-78.55
-87.74
-98.40
-111.17
-126.06
-142.09
-157.04
-167.81
-171.10
-164.52
-147.39
-121.11
-88.74
-54.19
-21.07
7.94
31.45
49.12
61.26
68.54
71.66
71.48
68.93
65.07
60.93
57.30
54.65
52.97
51.89
50.94
49.76
48.22
46.45
44.65
42.90
40.91
38.09
33.66
26.94
17.65
6.06
-7.01
-20.46
-33.25
-44.70
-54.80
-64.21
-74.10
-85.83
-100.36
-117.75
-136.72
-154.57
-167.74
-172.64
-166.74
-149.40
-122.10
-88.05
-51.23
-15.46
16.48
43.03
63.80
79.13
89.69
96.24
99.47
100.03
98.66
96.09
93.03
89.97
87.05
84.12
80.80
76.86
72.36
67.73
63.59
60.37
58.01
55.77
52.47
46.84
38.05
26.09
11.78
-3.45
-18.11
-31.19
-42.49
-52.68
-63.08
-75.17
-90.11
-108.12
-128.11
-147.54
-162.79
-170.02
-166.24
-150.31
-123.42
-88.72
-50.42
-12.62
21.61
50.56
73.76
91.49
104.30
112.79
117.52
119.10
118.25
115.73
112.30
108.51
104.64
100.67
96.45
91.85
86.95
82.12
77.79
74.21
71.19
68.03
63.64
56.99
47.50
35.32
21.32
6.70
-7.32
-20.00
-31.22
-41.48
-51.72
-63.13
-76.76
-93.12
-111.74
-130.84
-147.37
-157.61
-158.13
-146.94
-124.22
-92.37
-55.39
-17.72
16.88
46.05
68.98
86.03
98.19
106.47
111.63
114.18
114.47
112.85
109.86
106.10
102.16
98.46
95.14
92.06
88.95
85.55
81.75
77.65
73.43
69.21
64.92
60.17
54.37
46.97
37.67
26.60
14.35
1.77
-10.36
-21.50
-31.55
-40.88
-50.13
-60.19
-71.92
-85.89
-102.07
-119.36
-135.47
-147.11
-150.74
-143.69
-125.07
-96.27
-60.68
-22.69
13.56
45.15
70.77
90.52
105.23
115.85
123.10
127.38
128.97
128.26
125.84
122.40
118.60
114.84
111.27
107.77
104.18
100.33
96.17
91.71
87.00
81.99
76.57
70.55
63.74
55.98
47.16
37.25
26.31
14.47
2.01
-10.66
-23.03
-34.59
-45.07
-54.64
-63.96
-74.12
-86.29
-101.04
-117.91
-135.04
-149.32
-157.13
-155.30
-142.14
-118.18
-86.05
-49.82
-13.85
18.27
44.49
64.29
78.21
87.24
92.27
93.90
92.61
88.96
83.72
77.84
72.11
67.00
62.48
58.21
53.74
48.87
43.72
38.74
34.39
30.91
28.12
25.40
21.87
16.69
9.34
-0.16
-11.26
-23.10
-34.72
-45.41
-54.88
-63.37
-71.61
-80.63
-91.55
-105.12
-121.33
-139.00
-155.65
-167.92
-172.36
-166.50
-149.73
-123.60
-91.38
-57.12
-24.51
3.88
26.81
44.06
55.98
63.03
65.76
64.86
61.33
56.41
51.36
47.13
44.08
42.00
40.33
38.43
36.05
33.29
30.59
28.42
26.96
25.89
24.40
21.38
15.87
7.46
-3.52
-16.01
-28.54
-39.90
-49.50
-57.64
-65.39
-74.17
-85.27
-99.44
-116.39
-134.67
-151.70
-164.10
-168.47
-162.31
-144.89
-117.65
-83.84
-47.67
-13.17
16.75
40.64
58.37
70.53
77.94
81.35
81.41
78.83
74.49
69.40
64.48
60.31
56.94
54.02
51.04
47.71
44.10
40.66
37.80
35.61
33.58
30.69
25.77
17.96
7.10
-6.14
-20.48
-34.42
-46.80
-57.12
-65.82
-74.06
-83.51
-95.79
-111.74
-130.86
-151.01
-168.58
-179.37
-179.78
-167.97
-144.52
-112.26
-75.34
-38.11
-3.99
24.99
48.15
65.69
78.21
86.38
90.85
92.36
91.74
89.88
87.54
85.14
82.70
79.89
76.36
71.90
66.73
61.41
56.65
52.94
50.24
47.86
44.65
39.35
31.07
19.68
5.88
-8.93
-23.21
-35.77
-46.30
-55.51
-64.96
-76.55
-91.77
-110.97
-132.73
-153.96
-170.34
-177.55
-172.53
-154.49
-125.20
-88.41
-48.65
-10.01
24.70
54.18
78.24
97.18
111.32
120.72
125.27
124.91
119.86
110.78
98.83
85.42
71.90
59.13
47.15
35.16
21.93
6.39
-11.63
-31.22
-50.59
-67.76
-81.32
-90.96
-97.42
-102.00
-105.84
-109.25
-111.67
-112.02
-109.35
-103.57
-95.77
-87.98
-82.63
-81.57
-85.36
-92.74
-100.78
-105.61
-103.44
-91.70
-69.85
-39.46
-3.69
33.64
69.10
100.34
126.30
146.88
162.51
173.63
180.44
182.98
181.34
175.90
167.52
157.42
146.95
137.26
128.98
122.17
116.43
111.25
106.22
101.15
96.01
90.72
85.05
78.56
70.71
61.08
49.57
36.47
22.45
8.33
-5.18
-17.68
-29.18
-40.09
-51.01
-62.67
-75.78
-90.92
-108.22
