1520267307.00
64.000000
-0.00
-0.00
-0.00
-0.00
-0.00
-0.00
-0.00
-0.00
-0.00
-0.00
0.00
0.01
0.01
-0.00
-0.03
-0.05
-0.05
0.00
0.13
0.36
0.66
1.01
1.37
1.72
2.06
2.40
2.79
3.24
3.80
4.42
5.06
5.66
6.20
6.68
7.15
7.68
8.31
9.14
10.09
11.04
11.88
12.56
13.14
13.76
14.65
15.96
17.91
20.32
22.90
25.38
27.58
29.57
31.68
34.32
37.81
42.54
48.15
54.10
59.83
64.97
69.58
74.14
79.34
85.71
93.76
103.00
112.62
121.73
129.77
136.75
143.30
150.75
157.77
166.64
177.95
191.79
206.97
220.57
228.25
225.36
208.53
176.87
132.76
80.05
23.07
-34.94
-92.44
-149.16
-205.23
-260.37
-313.74
-363.87
-409.83
-450.91
-486.50
-515.74
-537.23
-549.22
-549.96
-538.37
-514.21
-478.67
-433.88
-382.45
-327.02
-269.84
-212.63
-156.66
-102.95
-52.37
-5.90
35.58
71.43
101.35
125.50
144.38
158.69
169.15
176.37
180.75
182.57
182.07
179.51
175.23
169.65
163.18
156.15
148.81
141.30
133.69
126.02
118.33
110.69
103.16
95.80
88.68
81.83
75.25
68.95
62.95
57.25
51.86
46.78
42.03
37.59
33.45
29.61
26.07
22.81
19.83
17.11
14.67
12.48
10.54
8.83
7.35
6.07
4.97
4.05
3.27
2.62
2.09
1.65
1.30
1.01
0.79
0.61
0.47
0.37
0.28
0.23
0.18
0.15
0.13
0.12
0.12
0.13
0.14
0.16
0.18
0.21
0.24
0.27
0.31
0.35
0.38
0.42
0.46
0.51
0.55
0.59
0.63
0.68
0.74
0.81
0.89
0.96
1.02
1.05
1.07
1.10
1.17
1.30
1.50
1.73
1.97
2.20
2.40
2.58
2.78
3.03
3.36
3.78
4.26
4.75
5.20
5.58
5.91
6.25
6.67
7.26
7.99
8.84
9.64
10.31
10.75
11.04
11.32
11.79
12.60
13.73
14.94
15.86
16.12
15.46
13.91
11.71
9.22
6.76
4.37
1.83
-1.30
-5.38
-10.48
-16.28
-22.11
-27.16
-30.87
-33.07
-34.01
-34.25
-34.29
-34.53
-35.21
-36.47
-38.27
-39.94
-40.08
-36.84
-28.86
-16.30
-1.29
12.62
22.02
25.13
22.58
16.94
11.18
7.31
5.73
5.57
5.82
5.97
6.11
6.44
6.69
6.22
4.42
1.46
-1.73
-3.70
-3.21
0.15
5.65
11.93
17.51
21.53
23.82
24.72
24.87
24.88
25.20
26.11
27.68
29.78
32.00
33.62
33.61
31.32
26.67
20.47
14.13
9.23
6.96
7.61
11.56
18.02
25.53
32.59
38.07
41.40
42.58
42.01
40.25
37.78
34.72
31.05
26.74
21.88
16.75
11.78
7.44
4.02
1.64
0.01
-1.19
-2.20
-3.12
-3.93
-4.67
-5.49
-6.63
-8.29
-10.58
-13.29
-16.04
-18.45
-20.28
-21.52
-22.33
-22.94
-23.60
-24.55
-25.96
-27.93
-30.39
-33.12
-35.84
-38.31
-40.53
-42.78
-45.54
-49.34
-54.58
-61.36
-69.35
-77.68
-84.99
-89.62
-90.05
-85.41
-75.87
-62.65
-47.64
-32.79
-19.46
-8.23
1.06
8.86
15.61
21.45
26.30
30.00
32.55
34.21
35.41
36.61
38.09
39.79
41.42
42.57
43.00
42.73
42.03
41.21
40.44
39.60
38.42
36.57
33.87
30.45
26.58
22.67
19.02
15.79
12.91
10.11
7.08
3.58
-0.42
-4.69
-8.92
-12.80
-16.24
-19.31
-22.29
-25.46
-29.12
-33.53
-38.91
-45.33
-52.52
-59.67
-65.44
-68.16
-66.38
-59.36
-47.44
-31.88
-14.51
2.77
18.43
31.53
41.60
48.51
52.29
53.10
51.23
47.21
41.74
35.65
29.62
24.09
19.09
14.29
9.24
3.45
-3.28
-10.86
-18.80
-26.43
-32.98
-37.88
-40.97
-42.54
-43.32
-44.21
-46.00
-49.06
-53.29
-58.26
-63.40
-68.33
-72.83
-76.81
-80.11
-82.50
-83.92
-84.65
-85.42
-87.15
-90.58
-95.91
-102.70
-110.08
-117.40
-124.72
-132.85
-142.84
-155.01
-168.40
-180.63
-188.64
-189.49
-181.42
-164.29
-139.27
-107.96
-71.88
-32.37
9.17
50.82
90.95
127.99
160.73
188.52
211.48
230.23
245.23
256.54
263.56
266.96
267.69
265.97
260.29
247.48
223.78
186.60
136.63
78.54
22.66
-20.04
-43.00
-46.78
-38.09
-25.86
-17.18
-14.53
-16.54
-16.61
-8.68
9.49
35.66
65.61
96.06
125.72
155.19
170.33
160.77
125.59
74.89
21.59
-26.65
-67.79
-102.43
-127.05
-143.74
-151.18
-148.20
-135.92
-117.97
-98.33
-78.86
-62.86
-50.34
-40.96
-31.68
-20.08
-5.70
9.68
23.51
33.88
39.90
42.32
41.79
40.85
41.80
45.73
52.23
60.01
67.87
74.59
79.81
82.91
84.31
84.57
83.97
82.39
79.62
75.82
70.93
65.50
59.87
54.58
49.91
45.72
41.49
36.67
31.21
24.69
17.36
9.38
0.70
-8.93
-19.96
-32.69
-47.14
-62.39
-77.85
-92.10
-103.75
-111.93
-116.48
-118.09
-117.93
-119.76
-121.16
-122.97
-124.96
-126.65
-127.51
-127.05
-124.83
-120.45
-113.66
-104.07
-92.45
-79.14
-64.25
-47.37
-27.67
-4.39
22.54
52.07
82.34
110.22
133.03
148.81
156.69
157.06
151.53
142.72
133.68
127.32
124.90
126.30
129.93
133.58
135.33
134.09
129.61
121.96
111.13
96.66
78.33
56.49
32.38
7.99
-14.42
-32.90
-46.22
-54.03
-56.97
-56.27
-53.52
-50.22
-47.60
-46.41
-46.94
-49.08
-52.57
-57.14
-62.57
-68.80
-75.83
-83.68
-92.34
-101.63
-111.15
-120.14
-127.66
-132.69
-134.47
-132.81
-128.20
-121.71
-114.65
-108.09
-102.46
-97.57
-92.87
-87.86
-82.26
-75.90
-68.47
-59.45
-48.38
-35.24
-20.66
-5.83
8.00
19.91
29.49
36.54
40.74
41.51
38.34
31.47
22.38
13.59
7.91
7.36
12.27
21.27
31.93
41.68
48.73
52.42
53.05
51.50
48.71
45.40
42.04
38.85
35.83
32.78
29.39
25.30
20.29
14.41
8.02
1.59
-4.45
-10.01
-15.39
-21.13
-27.67
-34.90
-41.89
-46.99
-48.26
-44.19
-34.35
-19.59
-1.85
16.54
33.56
48.12
60.12
70.22
79.31
88.11
96.86
105.28
112.68
118.15
120.87
120.44
117.03
111.46
104.95
98.76
93.79
90.35
88.21
86.89
85.93
85.10
84.41
83.87
83.44
82.81
81.64
79.63
76.73
73.10
69.04
64.79
60.47
56.03
51.40
46.58
41.70
36.91
32.33
27.94
23.60
19.09
14.25
9.02
3.48
-2.25
-8.08
-13.92
-19.74
-25.46
-30.96
-36.14
-40.95
-45.47
-49.89
-54.50
-59.58
-65.30
-71.71
-78.56
-85.27
-90.92
-94.33
-94.41
-90.43
-82.48
-71.48
-58.95
-46.51
-35.39
-26.12
-18.52
-12.08
-6.35
-1.14
3.39
7.03
9.62
11.21
12.04
12.46
12.67
12.83
12.98
13.09
13.15
13.09
12.82
12.20
11.15
9.62
7.66
5.41
3.00
0.55
-1.94
-4.51
-7.19
-9.93
-12.62
-15.14
-17.48
-19.75
-22.24
-25.25
-28.97
-33.45
-38.58
-44.05
-49.41
-53.97
-56.86
-57.20
-54.41
-48.48
-40.05
-30.27
-20.39
-11.37
-3.64
2.80
8.24
12.86
16.72
19.71
21.75
22.92
23.48
23.79
24.16
24.74
25.45
26.06
26.32
26.07
25.33
24.30
23.20
22.19
21.26
20.29
19.10
17.48
15.33
12.65
9.59
6.41
3.43
0.90
-1.09
-2.70
-4.24
-6.07
-8.41
-11.29
-14.53
-17.90
-21.17
-24.25
-27.16
-30.00
-32.94
-36.25
-40.16
-44.77
-49.83
-54.64
-58.15
-59.24
-57.16
-51.85
-43.97
-34.66
-25.14
-16.37
-8.82
-2.61
2.44
6.55
9.85
12.39
14.19
15.36
16.09
16.69
17.39
18.31
19.41
20.54
21.50
22.19
22.63
22.91
23.11
23.24
23.17
22.75
21.84
20.38
18.45
16.19
13.85
11.68
9.90
8.59
7.65
6.80
5.79
4.40
2.63
0.57
-1.64
-3.90
-6.16
-8.39
-10.53
-12.53
-14.37
-16.14
-18.05
-20.31
-22.97
-25.93
-28.85
-31.44
-33.57
-35.41
-37.33
-39.79
-43.08
-47.16
-51.64
-55.79
-58.70
-59.48
-57.46
-52.37
-44.54
-34.85
-24.57
-14.99
-7.08
-1.24
2.73
5.37
7.30
8.87
10.20
11.26
12.04
12.64
13.28
14.13
15.28
16.66
18.16
19.63
20.94
21.96
22.56
22.64
22.25
21.53
20.73
19.93
19.13
18.19
16.96
15.44
13.80
12.20
10.74
9.35
7.87
6.21
4.43
2.67
1.13
-0.16
-1.33
-2.60
-4.13
-5.97
-8.02
-10.14
-12.25
-14.37
-16.59
-18.99
-21.54
-24.11
-26.53
-28.70
-30.65
-32.57
-34.72
-37.36
-40.65
-44.63
-49.20
-54.10
-58.81
-62.56
-64.39
-63.43
-59.18
-51.80
-42.11
-31.42
-21.02
-11.93
-4.56
1.13
5.41
8.58
10.83
12.26
13.01
13.36
13.66
14.23
15.21
16.58
18.15
19.71
21.15
22.44
23.62
24.75
25.81
26.70
27.19
27.05
26.16
24.57
22.51
20.33
18.32
16.57
14.97
13.28
11.36
9.25
7.18
5.38
3.92
2.55
0.86
-1.54
-4.84
-8.91
-13.44
-18.04
-22.46
-26.61
-30.58
-34.49
-38.39
-42.24
-45.89
-49.21
-52.12
-54.65
-56.89
-58.97
-61.06
-63.37
-66.13
-69.53
-73.51
-77.57
-80.74
-81.77
-79.45
-73.11
-62.88
-49.65
-34.81
-19.87
-6.06
5.89
15.75
23.67
30.04
35.26
39.63
43.30
46.42
49.12
51.64
54.31
57.39
60.96
64.85
68.64
71.91
74.37
75.97
76.78
76.96
76.54
75.38
73.34
70.36
66.60
62.50
58.53
55.14
52.47
50.41
48.63
46.77
44.59
41.96
38.88
35.44
31.80
28.13
24.63
21.43
18.52
15.77
12.89
9.66
5.94
1.80
-2.64
-7.22
-11.89
-16.65
-21.57
-26.66
-31.97
-37.53
-43.40
-49.57
-55.80
-61.54
-65.89
-67.84
-66.61
-61.96
-54.35
-44.83
-34.63
-24.88
-16.27
-9.04
-3.13
1.59
5.23
7.79
9.34
10.03
10.20
10.27
10.63
11.56
13.10
15.16
17.50
19.89
22.09
23.92
25.25
25.99
26.12
25.70
24.88
23.87
22.84
21.90
21.00
20.00
18.67
16.79
14.26
11.15
7.71
4.36
1.48
-0.75
-2.38
-3.77
-5.40
-7.66
-10.67
-14.26
-18.09
-21.84
-25.39
-28.88
-32.62
-36.93
-42.06
-48.09
-54.81
-61.68
-67.82
-72.05
-73.21
-70.48
-63.68
-53.48
-41.13
-28.12
-15.78
-4.94
4.08
11.27
16.79
20.82
23.57
25.31
26.44
27.32
28.30
29.53
31.06
32.83
34.77
36.80
38.81
40.62
42.06
42.99
43.41
43.36
42.90
41.99
40.50
38.32
35.51
32.34
29.19
26.33
23.82
21.46
18.95
16.11
12.98
9.76
6.68
3.76
0.84
-2.39
-6.15
-10.54
-15.46
-20.66
-25.88
-30.92
-35.71
-40.35
-45.06
-50.20
-56.15
-63.14
-71.04
-79.23
-86.65
-91.97
-94.02
-92.09
-86.18
-76.95
-65.55
-53.27
-41.21
-30.12
-20.27
-11.63
-3.93
3.10
9.72
16.10
22.35
28.54
34.67
40.62
46.19
51.13
55.27
58.60
61.27
63.54
65.63
67.55
69.13
70.07
70.07
68.93
66.55
63.05
58.66
53.74
48.65
43.60
38.51
33.01
26.62
18.96
9.98
0.06
-10.20
-20.18
-29.45
-37.85
-45.42
-52.24
-58.31
-63.52
-67.65
-70.54
-72.18
-72.76
-72.71
-72.67
-73.38
-75.55
-79.69
-85.80
-93.28
-100.78
-106.44
-108.31
-104.90
-95.69
-81.44
-63.93
-45.41
-27.90
-12.62
0.18
10.95
20.37
28.89
36.63
43.45
49.31
54.44
59.27
64.32
69.75
75.40
80.79
85.48
89.26
92.25
94.64
96.44
97.39
97.00
94.87
90.94
85.58
79.47
73.29
67.49
62.25
57.49
53.01
48.61
44.16
39.61
35.01
30.50
26.27
22.39
18.84
15.39
11.72
7.60
2.90
-2.23
-7.52
-12.66
-17.39
-21.61
-25.38
-28.94
-32.67
-37.04
-42.36
-48.64
-55.34
-61.38
-65.32
-65.74
-61.75
-53.24
-41.05
-26.64
-11.78
1.90
13.31
22.00
28.11
32.22
34.98
36.94
38.41
39.51
40.28
40.82
41.34
42.05
43.09
44.42
45.86
47.20
48.31
49.16
49.78
50.09
49.89
48.90
46.92
43.96
40.27
36.32
32.54
29.22
26.44
24.04
21.79
19.49
17.03
14.43
11.75
9.10
6.54
4.04
1.50
-1.26
-4.45
-8.16
-12.30
-16.65
-20.90
-24.80
-28.24
-31.34
-34.38
-37.74
-41.79
-46.81
-52.79
-59.29
-65.37
-69.68
-70.87
-67.92
-60.59
-49.55
-36.23
-22.34
-9.45
1.43
9.97
16.35
21.05
24.53
27.13
28.98
30.19
30.88
31.30
31.75
32.47
33.59
35.07
36.74
38.38
39.80
40.92
41.68
42.03
41.89
41.22
39.95
38.05
35.62
32.81
29.82
26.84
24.01
21.38
18.99
16.83
14.88
13.15
11.58
10.02
8.27
6.19
3.72
0.94
-1.99
-4.94
-7.88
-10.86
-14.00
-17.34
-20.84
-24.37
-27.80
-31.07
-34.21
-37.32
-40.49
-43.84
-47.52
-51.73
-56.61
-62.18
-68.07
-73.46
-77.11
-77.69
-74.26
-66.60
-55.41
-42.10
-28.32
-15.53
-4.62
4.11
10.85
15.95
19.79
22.69
24.89
26.64
28.15
29.58
30.97
32.25
33.36
34.26
34.96
35.50
35.92
36.20
36.31
36.24
35.97
35.54
34.90
33.98
32.69
31.02
29.10
27.11
25.29
23.68
22.22
20.73
19.04
17.05
14.80
12.45
10.10
7.80
5.55
3.31
1.08
-1.11
-3.23
-5.35
-7.63
-10.29
-13.53
-17.42
-21.80
-26.36
-30.63
-34.30
-37.31
-39.94
-42.74
-46.34
-51.21
-57.34
-64.18
-70.62
-75.25
-76.73
-74.20
-67.55
-57.45
-45.19
-32.30
-20.17
-9.73
-1.35
5.10
10.09
14.08
17.50
20.52
23.20
25.54
27.55
29.33
30.98
32.57
34.06
35.35
36.32
36.88
37.10
37.09
36.96
36.74
36.33
35.58
34.38
32.74
30.80
28.79
26.90
25.21
23.68
22.17
20.54
18.71
16.65
14.40
12.02
9.57
7.14
4.79
2.57
0.48
-1.56
-3.62
-5.79
-8.18
-10.87
-13.94
-17.42
-21.24
-25.23
-29.17
-32.84
-36.13
-39.17
-42.26
-45.89
-50.47
-56.18
-62.72
-69.23
-74.45
-77.01
-75.88
-70.73
-62.06
-51.02
-39.05
-27.36
-16.74
-7.51
0.38
6.99
12.41
16.64
19.74
21.84
23.22
24.21
25.11
26.18
27.49
29.08
30.89
32.87
34.97
37.14
39.29
41.21
42.65
43.28
42.89
41.44
39.12
36.30
33.39
30.67
28.23
25.99
23.80
21.54
19.15
16.62
13.98
11.20
8.25
5.09
1.74
-1.71
-5.13
-8.39
-11.44
-14.35
-17.23
-20.23
-23.44
-26.82
-30.22
-33.42
-36.25
-38.66
-40.80
-42.98
-45.52
-48.76
-52.87
-57.84
-63.37
-68.88
-73.45
-75.97
-75.42
-71.16
-63.22
-52.30
-39.63
-26.64
-14.53
-4.05
4.56
11.45
16.95
21.42
25.09
28.12
30.63
32.71
34.50
36.13
37.70
39.23
40.61
41.66
42.20
42.18
41.64
40.71
39.49
38.03
36.27
34.14
31.66
28.94
26.15
23.47
21.01
18.78
16.74
14.83
13.02
11.28
9.57
7.82
5.98
4.05
2.06
0.05
-1.98
-4.05
-6.23
-8.54
-10.98
-13.52
-16.15
-18.93
-21.90
-25.07
-28.35
-31.55
-34.48
-37.00
-39.16
-41.18
-43.35
-45.96
-49.18
-52.94
-56.91
-60.45
-62.66
-62.65
-59.75
-53.76
-45.13
-34.82
-24.02
-13.81
-4.85
2.70
9.04
14.50
19.24
23.28
26.53
29.00
30.92
32.64
34.55
36.75
39.09
41.15
42.54
43.13
43.05
42.70
42.38
42.22
41.98
41.32
39.90
37.67
34.82
31.73
28.72
26.03
23.70
21.74
20.12
18.85
17.89
17.10
16.28
15.22
13.75
11.88
9.66
7.23
4.71
2.17
-0.35
-2.83
-5.31
-7.93
-10.84
-14.19
-18.04
-22.28
-26.67
-30.92
-34.82
-38.33
-41.62
-45.02
-48.98
-53.87
-59.73
-66.14
-72.16
-76.44
-77.69
-75.07
-68.48
-58.70
-47.09
-35.17
-24.14
-14.69
-6.89
-0.43
5.14
10.13
14.64
18.65
22.05
24.82
27.05
28.93
30.59
32.06
33.33
34.34
35.10
35.71
36.30
36.97
37.67
38.24
38.44
38.06
37.01
35.35
33.29
31.08
28.92
26.90
24.99
23.10
21.17
19.19
17.21
15.28
13.41
11.48
9.36
6.95
4.27
1.51
-1.13
-3.46
-5.48
-7.36
-9.39
-11.85
-14.85
-18.28
-21.88
-25.37
-28.55
-31.39
-34.03
-36.70
-39.72
-43.36
-47.88
-53.32
-59.42
-65.43
-70.19
-72.36
-70.84
-65.19
-55.82
-43.91
-31.01
-18.56
-7.57
1.56
8.90
14.77
19.58
23.61
27.04
29.95
32.39
34.40
36.09
37.54
38.83
39.99
41.03
41.94
42.76
43.53
44.22
44.73
44.87
44.42
43.26
41.46
39.28
37.01
34.93
33.14
31.55
29.97
28.26
26.34
24.28
22.23
20.32
18.62
17.11
15.68
14.14
12.26
9.84
6.80
3.21
-0.70
-4.62
-8.33
-11.83
-15.31
-19.01
-23.06
-27.37
-31.67
-35.68
-39.25
-42.52
-45.73
-49.26
-53.39
-58.34
-64.05
-70.15
-75.84
-79.95
-81.23
-78.75
-72.27
-62.44
-50.58
-38.24
-26.72
-16.77
-8.49
-1.52
4.64
10.43
16.08
21.57
26.77
31.47
35.53
38.89
41.58
43.69
45.30
46.48
47.29
47.78
48.03
48.14
48.17
48.16
48.01
47.57
46.67
45.23
43.29
41.04
38.69
36.42
34.27
32.12
29.87
27.45
24.91
22.38
19.98
17.75
15.57
13.27
10.59
7.39
3.68
-0.38
-4.52
-8.47
-12.11
-15.51
-18.90
-22.57
-26.70
-31.20
-35.78
-39.98
-43.46
-46.08
-48.01
-49.66
-51.56
-54.20
-57.97
-62.98
-68.91
-74.97
-79.92
-82.32
-80.96
-75.27
-65.59
-53.07
-39.42
-26.29
-14.78
-5.28
2.52
9.25
15.51
21.54
27.21
32.21
36.26
39.28
41.43
43.03
44.35
45.63
46.96
48.42
49.97
51.43
52.39
52.29
50.55
46.82
41.19
34.15
26.55
19.31
13.21
8.71
5.92
4.64
4.46
4.85
5.31
5.41
4.90
3.75
2.06
0.02
-2.20
-4.47
-6.75
-8.99
-11.19
-13.27
-15.16
-16.77
-18.11
-19.29
-20.57
-22.23
-24.43
-27.12
-29.99
-32.52
-34.23
-34.81
-34.24
-32.82
-31.04
-29.46
-28.57
-28.73
-30.02
-32.15
-34.36
-35.50
-34.31
-29.88
-22.05
-11.57
0.13
11.45
21.14
28.64
34.05
37.89
40.70
42.90
44.67
46.06
47.12
47.91
48.48
48.81
48.79
48.28
47.19
45.51
43.40
41.09
38.86
36.94
35.38
34.09
32.77
31.11
28.86
26.00
22.70
19.31
16.18
13.54
11.43
9.72
8.16
6.51
4.54
2.14
-0.70
-3.86
-7.09
-10.14
-12.83
-15.07
-16.96
-18.64
-20.34
-22.23
-24.38
-26.79
-29.38
-32.01
-34.55
-36.93
-39.16
-41.43
-44.05
-47.39
-51.74
-57.06
-62.78
-67.88
-71.07
-71.15
-67.45
-60.06
-49.81
-38.05
-26.22
-15.42
-6.25
1.24
7.39
12.65
17.38
21.69
25.50
28.62
30.93
32.41
33.14
33.25
32.81
31.95
30.82
29.72
29.01
28.94
29.55
30.51
31.23
31.07
29.57
26.61
22.42
17.52
12.48
7.77
3.67
0.17
-2.91
-5.79
-8.64
-11.49
-14.30
-17.02
-19.68
-22.40
-25.25
-28.20
-31.07
-33.68
-35.92
-37.84
-39.69
-41.72
-44.08
-46.75
-49.61
-52.49
-55.26
-57.93
-60.59
-63.41
-66.65
-70.57
-75.28
-80.60
-85.88
-89.98
-91.60
-89.56
-83.31
-73.17
-60.23
-46.03
-32.08
-19.46
-8.60
0.55
8.32
15.04
20.86
25.82
29.93
33.31
36.16
38.70
41.06
43.28
45.28
46.95
48.32
49.48
50.60
51.79
52.99
54.00
54.54
54.42
53.59
52.19
50.47
48.66
46.90
45.24
43.63
42.01
40.36
38.65
36.81
34.76
32.38
29.63
26.53
23.21
19.82
16.52
13.40
10.47
7.68
4.88
1.91
-1.39
-5.08
-9.09
-13.20
-17.15
-20.71
-23.78
-26.48
-29.09
-32.05
-35.77
-40.53
-46.24
-52.37
-57.90
-61.58
-62.28
-59.32
-52.76
-43.34
-32.31
-21.00
-10.58
-1.87
4.79
9.43
12.45
14.41
15.85
17.14
18.41
19.58
20.54
21.31
22.08
23.12
24.66
26.80
29.50
32.61
35.91
39.09
41.81
43.61
44.14
43.27
41.12
38.12
34.79
31.64
29.05
27.15
25.86
24.89
23.87
22.42
20.32
17.62
14.58
11.59
8.96
6.71
4.64
2.40
-0.28
-3.41
-6.80
-10.08
-12.97
-15.32
-17.22
-18.94
-20.89
-23.41
-26.72
-30.69
-34.81
-38.14
-39.52
-37.93
-32.80
-24.26
-13.14
-0.64
12.01
23.94
34.71
44.28
52.77
60.34
66.99
72.73
77.60
81.83
85.82
90.03
94.76
99.92
104.91
108.82
110.76
110.35
108.01
104.94
102.79
103.03
106.59
113.53
123.10
133.82
143.58
149.78
149.71
141.14
123.09
96.42
63.85
29.20
-3.80
-32.51
-55.82
-73.70
-86.56
-94.62
-97.91
-96.68
-91.83
-84.90
-77.62
-71.29
-66.38
-62.76
-60.24
-59.14
-60.36
-64.98
-73.57
-85.75
-100.08
-114.45
-126.77
-135.49
-139.93
-140.27
-137.20
-131.63
-124.35
-115.93
-106.61
-96.42
-85.30
-73.42
-61.33
-50.05
-40.83
-34.68
-31.82
-31.38
-31.51
-30.05
-25.40
-17.10
-5.99
6.31
18.17
28.60
37.43
45.11
52.25
59.23
66.02
72.27
77.41
80.98
82.62
82.19
79.67
75.20
69.05
61.64
53.59
45.65
38.65
33.28
29.85
28.18
27.58
27.08
25.69
22.76
18.13
12.20
5.77
-0.18
-4.84
-7.82
-9.34
-10.18
-11.37
-13.82
-17.80
-22.73
-27.23
-29.59
-28.27
-22.52
-12.52
0.53
14.78
28.17
38.89
45.82
48.75
48.41
46.12
43.38
41.38
40.69
41.21
42.43
43.72
44.54
44.47
43.09
39.90
34.23
25.38
12.91
-3.01
-21.28
-39.99
-56.83
-69.85
-78.03
-81.54
-81.25
-78.24
-73.20
-66.58
-58.83
-50.66
-42.98
-36.34
-30.52
-24.50
-17.13
-8.03
1.98
11.30
18.62
23.93
28.51
34.11
41.44
49.36
55.05
55.27
47.98
33.47
14.24
-5.83
-22.90
-34.30
-38.92
-37.04
-29.91
-19.24
-6.89
5.20
15.34
22.29
25.42
25.00
22.06
18.21
15.16
14.40
16.70
22.11
29.91
38.91
47.70
54.96
59.66
61.23
59.60
55.21
48.90
41.69
34.48
27.85
21.97
16.70
11.85
7.31
3.13
-0.65
-4.09
-7.40
-10.93
-14.94
-19.51
-24.57
-29.91
-35.32
-40.58
-45.52
-49.97
-53.85
-57.20
-60.24
-63.30
-66.71
-70.70
-75.34
-80.49
-85.84
-90.89
-94.88
-96.99
-96.48
-92.92
-86.48
-77.89
-68.21
-58.58
-49.85
-42.45
-36.39
-31.35
-26.95
-22.82
-18.81
-14.90
-11.19
-7.80
-4.75
-1.96
0.77
3.64
6.78
10.22
13.90
17.72
21.56
25.22
28.40
30.70
31.75
31.37
29.71
27.21
24.47
21.97
19.90
18.03
15.89
12.94
8.83
3.56
-2.47
-8.57
-14.00
-18.15
-20.76
-22.03
-22.50
-23.02
-24.47
-27.61
-32.85
-40.08
-48.54
-56.92
-63.62
-67.19
-66.80
-62.52
-55.28
-46.57
-37.88
-30.35
-24.44
-20.04
-16.66
-13.76
-10.95
-8.03
-4.98
-1.86
1.29
4.49
7.71
10.89
13.86
16.40
18.28
19.36
19.64
19.17
18.09
16.51
14.49
12.12
9.49
6.71
3.87
1.08
-1.59
-4.03
-6.09
-7.63
-8.56
-8.93
-8.94
-8.89
-9.13
-9.97
-11.66
-14.40
-18.26
-23.15
-28.65
-34.06
-38.49
-41.09
-41.37
-39.29
-35.31
-30.17
-24.70
-19.57
-15.14
-11.43
-8.22
-5.14
-1.90
1.56
5.09
8.33
10.90
12.56
13.29
13.25
12.70
11.95
11.31
11.01
11.21
11.88
12.76
13.41
13.33
12.09
9.53
5.76
1.23
-3.41
-7.42
-10.21
-11.48
-11.39
-10.51
-9.60
-9.31
-9.95
-11.38
-13.26
-15.23
-17.27
-19.66
-22.83
-27.08
-32.30
-37.86
-42.76
-45.92
-46.48
-44.07
-38.94
-31.84
-23.77
-15.70
-8.28
-1.79
3.84
8.85
13.42
17.58
21.17
24.01
25.97
27.17
27.90
28.53
29.33
30.35
31.43
32.33
32.92
33.25
33.52
33.86
34.27
34.45
34.02
32.67
30.28
27.07
23.43
19.81
16.59
13.92
11.72
9.76
7.71
5.22
2.13
-1.51
-5.50
-9.53
-13.35
-16.91
-20.33
-23.88
-27.84
-32.44
-37.77
-43.80
-50.18
-56.31
-61.33
-64.28
-64.37
-61.22
-55.05
-46.64
-37.07
-27.43
-18.48
-10.48
-3.31
3.30
9.55
15.43
20.71
25.15
28.64
31.32
33.51
35.54
37.62
39.73
41.74
43.47
44.82
45.79
46.48
47.01
47.45
47.76
47.77
47.26
46.08
44.24
41.93
39.47
37.08
34.79
32.48
29.91
26.95
23.67
20.32
17.20
14.47
12.06
9.73
7.13
3.96
0.08
-4.47
-9.54
-14.85
-20.12
-25.10
-29.70
-33.98
-38.17
-42.70
-48.00
-54.40
-61.86
-69.75
-76.90
-81.80
-83.08
-80.01
-72.75
-62.40
-50.53
-38.64
-27.76
-18.24
-9.94
-2.44
4.62
11.39
17.88
23.97
29.55
34.50
38.73
42.21
44.89
46.81
48.06
48.77
49.17
49.50
50.03
50.87
52.01
53.20
54.08
54.31
53.73
52.39
50.53
48.45
46.34
44.24
42.13
39.96
37.77
35.60
33.49
31.42
29.26
26.90
24.23
21.24
17.93
14.32
10.45
6.37
2.18
-2.01
-6.16
-10.33
-14.67
-19.25
-24.06
-28.92
-33.55
-37.78
-41.63
-45.41
-49.61
-54.77
-61.20
-68.78
-76.83
-84.16
-89.32
-90.99
-88.34
-81.33
-70.73
-57.89
-44.32
-31.32
-19.61
-9.38
-0.41
7.63
15.00
21.70
27.67
32.84
37.22
40.98
44.26
47.14
49.58
51.48
52.79
53.59
54.04
54.36
54.68
54.99
55.17
55.02
54.37
53.11
51.25
48.95
46.43
43.94
41.63
39.51
37.46
35.30
32.90
30.28
27.56
24.89
22.36
19.92
17.43
14.70
11.65
8.31
4.81
1.28
-2.24
-5.81
-9.65
-13.87
-18.48
-23.27
-27.92
-32.13
-35.80
-39.09
-42.34
-46.00
-50.50
-56.07
-62.73
-70.09
-77.39
-83.44
-86.88
-86.48
-81.55
-72.23
-59.50
-44.92
-30.17
-16.58
-4.91
4.74
12.63
19.20
24.82
29.70
33.92
37.51
40.52
43.05
45.24
47.25
49.17
51.00
52.68
54.07
55.10
55.76
56.08
56.14
55.97
55.49
54.61
53.19
51.19
48.65
45.73
42.61
39.44
36.33
33.29
30.33
27.42
24.59
21.82
19.03
16.12
12.98
9.55
5.87
2.06
-1.70
-5.36
-8.97
-12.72
-16.79
-21.28
-26.11
-31.05
-35.84
-40.28
-44.31
-48.08
-51.90
-56.20
-61.42
-67.75
-75.00
-82.36
-88.48
-91.73
-90.73
-84.84
-74.38
-60.63
-45.36
-30.31
-16.76
-5.29
4.12
11.90
18.50
24.30
29.47
34.03
37.95
41.23
43.90
46.01
47.67
48.95
49.97
50.85
51.70
52.62
53.63
54.63
55.42
55.71
55.17
53.56
50.85
47.27
43.26
39.37
36.02
33.37
31.24
29.30
27.17
24.66
21.76
18.54
15.08
11.42
7.55
3.59
-0.30
-3.96
-7.33
-10.49
-13.67
-17.14
-21.08
-25.57
-30.51
-35.69
-40.86
-45.74
-50.18
-54.22
-58.12
-62.32
-67.34
-73.48
-80.67
-88.27
-95.10
-99.69
-100.61
-96.92
-88.43
-75.84
-60.55
-44.27
-28.60
-14.72
-3.17
6.06
13.34
19.23
24.20
28.62
32.62
36.24
39.42
42.16
44.51
46.58
48.48
50.29
51.99
53.53
54.82
55.78
56.33
56.43
56.06
55.18
53.81
52.01
49.90
47.64
45.40
43.28
41.33
39.52
37.74
35.86
33.76
31.34
28.58
25.51
22.17
18.57
14.68
10.48
6.00
1.35
-3.29
-7.73
-11.97
-16.09
-20.32
-24.89
-29.84
-35.01
-40.12
-44.85
-49.10
-53.02
-57.05
-61.76
-67.65
-74.82
-82.75
-90.24
-95.66
-97.37
-94.26
-86.11
-73.71
-58.58
-42.51
-27.06
-13.25
-1.52
8.20
16.16
22.66
27.93
32.13
35.39
37.84
39.65
40.97
41.96
42.79
43.64
44.67
45.94
47.31
48.45
48.97
48.56
47.18
45.05
42.58
40.07
37.63
35.11
32.30
29.12
25.68
22.25
19.12
16.46
14.25
12.33
10.54
8.75
6.90
4.94
2.85
0.63
-1.77
-4.31
-6.95
-9.70
-12.63
-15.89
-19.64
-23.90
-28.54
-33.26
-37.69
-41.55
-44.80
-47.69
-50.63
-54.12
-58.55
-64.07
-70.42
-76.89
-82.31
-85.23
-84.26
-78.54
-68.02
-53.63
-36.97
-19.88
-3.90
9.97
21.41
30.55
37.67
42.99
46.58
48.45
48.71
47.66
45.84
43.93
42.51
41.94
42.28
43.34
44.86
46.63
48.53
50.51
52.51
54.35
55.78
56.50
56.31
55.18
53.33
51.13
48.97
47.09
45.58
44.37
43.39
42.64
42.21
42.19
42.51
42.91
43.00
42.41
40.98
38.79
36.13
33.22
30.10
26.55
22.25
16.97
10.77
4.04
-2.65
-8.81
-14.24
-19.08
-23.84
-29.13
-35.52
-43.29
-52.31
-61.95
-71.13
-78.45
-82.49
-82.21
-77.30
-68.36
-56.74
-44.16
-32.17
-21.84
-13.52
-7.08
-2.10
1.77
4.72
6.77
7.99
8.60
9.03
9.82
11.32
13.60
16.44
19.41
22.14
24.42
26.32
28.03
29.70
31.32
32.71
33.63
33.90
33.51
32.62
31.45
30.23
29.12
28.13
27.18
26.16
24.96
23.55
21.94
20.26
18.65
17.30
16.34
15.80
15.53
15.22
14.43
12.74
9.81
5.52
-0.10
-6.85
-14.47
-22.71
-31.33
-40.17
-49.18
-58.36
-67.77
-77.41
-87.11
-96.57
-105.27
-112.65
-118.18
-121.45
-122.24
-120.60
-116.84
-111.50
-105.31
-99.01
-93.14
-87.97
-83.44
-79.28
-75.13
-70.75
-65.99
-60.84
-55.33
-49.51
-43.41
-37.04
-30.47
-23.90
-17.70
-12.41
-8.62
-6.82
-7.22
-9.70
-13.84
-19.02
-24.59
-29.87
-34.05
-36.21
-35.35
-30.74
-22.28
-10.80
2.04
14.24
24.14
30.98
35.05
37.38
39.10
40.97
43.10
45.10
46.46
46.83
46.15
44.58
42.37
39.78
37.04
34.37
31.93
29.69
27.25
23.92
18.89
11.75
2.92
-6.25
-13.73
-17.49
-16.21
-9.79
0.73
13.57
26.88
39.27
49.96
58.78
65.84
71.34
75.46
78.40
80.47
82.06
83.58
85.32
87.34
89.39
91.03
91.71
90.94
88.41
84.01
77.77
69.77
60.11
48.99
36.72
23.85
11.03
-1.06
-11.93
-21.29
-29.05
-35.26
-40.01
-43.45
-45.87
-47.71
-49.54
-51.88
-55.03
-59.00
-63.48
-68.00
-72.10
-75.40
-77.65
-78.77
-78.77
-77.75
-75.88
-73.38
-70.47
-67.32
-63.91
-60.15
-55.89
-51.08
-45.81
-40.19
-34.21
-27.49
-19.28
-8.64
5.09
21.87
40.74
60.07
78.04
93.27
105.21
114.13
120.77
125.91
130.08
133.42
135.82
137.09
137.09
135.72
132.93
128.60
122.57
114.73
105.07
93.69
80.85
66.76
51.58
35.31
17.87
-0.75
-20.40
-40.56
-60.29
-78.40
-93.62
-105.02
-112.22
-115.58
-116.00
-114.58
-112.22
-109.35
-105.96
-101.83
-96.86
-91.26
-85.56
-80.38
-76.16
-73.01
-70.71
-68.92
-67.35
-65.97
-64.94
-64.54
-65.07
-66.80
-70.06
-75.16
-82.21
-90.84
-99.82
-107.26
-110.92
-108.97
-100.74
-86.99
-69.74
-51.53
-34.62
-20.37
-9.04
-0.12
7.18
13.55
19.28
24.42
28.97
33.04
36.91
40.88
45.09
49.44
53.62
57.25
60.09
62.00
63.01
63.19
62.61
61.41
59.84
58.30
57.27
57.18
58.36
61.00
65.11
70.54
76.96
83.78
90.23
95.58
99.37
101.60
102.74
103.52
104.59
106.20
108.07
109.55
109.85
108.50
105.46
101.17
96.31
91.55
87.25
83.42
79.71
75.58
70.45
63.85
55.54
45.57
34.42
23.01
12.59
4.40
-0.70
-2.65
-2.31
-1.13
-0.71
-2.15
-5.70
-10.83
-16.60
-22.21
-27.40
-32.51
-38.23
-45.17
-53.59
-63.26
-73.64
-84.08
-93.94
-102.62
-109.44
-113.64
-114.52
-111.71
-105.46
-96.65
-86.57
-76.61
-67.86
-61.00
-56.24
-53.49
-52.48
-52.73
-53.69
-54.80
-55.67
-56.12
-56.30
-56.40
-56.53
-56.55
-56.17
-55.11
-53.37
-51.32
-49.55
-48.57
-48.57
-49.25
-49.97
-50.05
-49.01
-46.86
-44.14
-41.76
-40.67
-41.45
-43.99
-47.34
-49.89
-49.77
-45.42
-36.09
-22.02
-4.36
15.31
35.37
54.60
72.35
88.45
102.98
116.09
127.83
138.14
146.89
154.00
159.55
163.78
167.08
169.89
172.52
175.04
177.27
178.92
179.72
179.63
178.82
177.54
175.92
173.80
170.83
166.65
161.05
154.11
146.05
137.02
126.91
115.40
102.15
87.12
70.75
53.91
37.60
22.61
9.14
-3.13
-14.93
-26.98
-39.70
-53.02
-66.47
-79.39
-91.26
-101.87
-111.37
-120.11
-128.57
-137.24
-146.57
-156.94
-168.42
-180.58
-192.33
-202.11
-208.23
-209.63
-206.29
-199.42
-191.10
-183.58
-178.52
-176.49
-176.95
-178.56
-179.83
-179.54
-177.06
-172.26
-165.31
-156.35
-145.35
-132.12
-116.51
-98.72
-79.33
-59.28
-39.64
-21.25
-4.60
10.21
23.30
34.81
44.75
53.06
59.67
64.62
68.21
70.88
73.16
75.51
78.22
81.45
85.28
89.83
95.28
101.79
109.41
117.92
126.75
135.09
141.96
146.46
147.90
145.90
140.44
131.78
120.49
107.29
92.97
78.20
63.47
49.03
34.84
20.64
6.11
-8.95
-24.31
-39.17
-52.08
-61.31
-65.34
-63.51
-56.34
-45.45
-33.06
-21.28
-11.43
-3.87
1.82
6.42
10.56
14.46
17.98
20.80
22.64
23.44
23.35
22.59
21.34
19.61
17.29
14.19
10.30
5.71
0.68
-4.54
-9.81
-15.22
-21.05
-27.69
-35.45
-44.42
-54.41
-64.96
-75.50
-85.57
-94.96
-103.79
-112.36
-120.93
-129.45
-137.38
-143.78
-147.60
-147.99
-144.68
-138.09
-129.13
-119.05
-108.98
-99.68
-91.43
-84.14
-77.55
-71.43
-65.76
-60.79
-56.97
-54.87
-54.97
-57.48
-62.12
-67.91
-73.16
-75.77
-73.81
-66.13
-52.87
-35.37
-15.81
3.62
21.39
36.86
50.13
61.56
71.22
78.75
83.51
85.02
83.40
79.68
75.57
73.12
73.98
78.91
87.47
98.29
109.55
119.55
127.21
132.10
134.25
133.84
131.00
125.77
118.26
108.69
97.42
84.92
71.72
58.51
46.14
35.65
27.94
23.48
21.98
22.39
23.16
22.66
19.65
13.38
3.67
-9.20
-24.53
-41.25
-57.97
-73.19
-85.67
-94.66
-100.21
-103.01
-104.15
-104.76
-105.67
-107.30
-109.74
-112.99
-117.11
-122.25
-128.38
-134.93
-140.49
-142.94
-139.91
-129.67
-111.72
-87.19
-58.43
-28.32
0.68
27.06
50.42
71.13
89.79
106.84
122.34
136.12
147.94
157.80
166.02
173.08
179.45
185.33
190.60
194.91
197.96
199.74
200.59
201.02
201.43
201.80
201.67
200.24
196.80
190.94
182.83
173.04
162.32
151.24
139.91
128.08
115.26
101.08
85.48
68.79
51.54
34.26
17.28
0.71
-15.47
-31.34
-46.94
-62.36
-77.70
-93.07
-108.49
-123.76
-138.42
-151.90
-163.67
-173.45
-181.28
-187.43
-192.37
-196.49
-199.94
-202.38
-202.83
-199.69
-191.05
-175.30
-151.84
-121.49
-86.54
-50.10
-15.22
15.95
42.65
65.32
85.17
103.37
120.57
136.67
150.92
162.29
169.83
173.02
171.87
166.91
158.98
149.01
137.89
126.31
114.77
103.59
92.86
82.50
72.19
61.58
50.39
38.60
26.50
14.53
3.19
-7.15
-16.37
-24.56
-32.02
-39.21
-46.64
-54.80
-63.96
-74.00
-84.45
-94.63
-103.98
-112.35
-120.19
-128.25
-137.27
-147.52
-158.59
-169.51
-179.11
-186.49
-191.35
-194.10
-195.72
-197.44
-200.42
-205.45
-212.67
-221.37
-229.88
-235.70
-235.99
-228.32
-211.49
-186.13
-154.62
-120.57
-87.69
-58.84
-35.33
-16.91
-2.28
10.19
21.79
33.13
44.18
54.60
64.11
72.66
80.39
87.44
93.90
99.63
104.36
107.77
109.65
110.17
109.75
108.94
108.18
107.69
107.39
107.04
106.43
105.51
104.65
104.29
104.55
105.09
105.21
104.17
101.57
97.48
92.43
87.70
84.33
82.51
81.52
80.25
77.79
73.79
68.32
61.75
55.61
51.07
48.13
45.71
42.55
38.05
32.40
26.15
19.74
14.99
12.84
12.32
10.96
6.58
-1.37
-11.42
-20.92
-26.84
-24.32
-10.10
15.74
49.82
87.57
124.95
159.42
189.50
199.78
180.87
135.82
78.85
24.49
-20.02
-54.31
-80.90
-102.82
-121.98
-136.48
-143.52
-142.82
-135.91
-125.06
-112.22
-98.15
-83.15
-67.34
-49.08
-27.13
-1.54
24.96
50.04
69.21
79.86
81.38
75.69
67.18
59.68
54.61
51.24
47.87
42.99
36.56
29.00
21.08
13.75
7.80
1.91
-5.13
-13.79
-23.72
-33.65
-42.76
-50.52
-56.80
-61.90
-66.43
-70.66
-74.59
-78.15
-77.87
-72.13
-60.39
-43.55
-23.84
-4.40
11.92
23.28
29.34
31.36
30.99
29.95
29.28
29.05
28.63
27.41
25.21
22.39
19.75
17.67
16.31
15.46
14.71
13.75
12.54
11.26
10.17
9.43
8.79
7.96
6.67
4.84
2.65
0.44
-1.33
-2.28
-2.26
-1.53
-0.62
-0.19
-0.81
-2.76
-5.81
-9.36
-12.65
-15.13
-16.78
-18.02
-19.55
-22.01
-25.62
-30.16
-35.06
-39.73
-43.84
-47.43
-50.90
-54.79
-59.67
-65.92
-73.54
-81.99
-90.05
-95.91
-97.61
-93.56
-83.24
-67.46
-48.16
-27.86
-8.81
7.53
20.73
31.18
39.70
47.08
53.80
59.99
65.49
70.01
73.30
75.31
76.25
76.51
76.58
76.79
77.23
77.67
77.73
76.94
75.00
71.74
67.20
61.52
54.86
47.31
38.84
29.33
18.60
6.48
-7.16
-22.52
-39.77
-58.86
-79.15
-99.05
-116.19
-128.18
-133.62
-132.94
-128.37
-122.98
-119.38
-118.72
-120.62
-123.96
-127.84
-132.21
-137.64
-144.66
-153.22
-162.62
-172.14
-181.51
-191.05
-201.18
-211.71
-221.34
-227.82
-228.64
-222.03
-207.65
-186.75
-161.77
-135.48
-110.21
-87.35
-67.19
-49.20
-32.48
-16.18
0.21
16.76
33.22
49.16
64.19
78.08
90.77
102.31
112.80
122.36
131.09
139.08
146.36
152.82
158.17
161.95
163.72
163.20
160.45
155.83
149.94
143.38
136.66
130.08
123.76
117.67
111.61
105.39
98.77
91.66
84.03
75.96
67.43
58.34
48.46
37.63
25.85
13.40
0.80
-11.42
-22.94
-33.84
-44.61
-56.01
-68.68
-82.77
-97.60
-111.63
-122.69
-128.67
-128.20
-121.22
-109.04
-93.91
-78.33
-64.25
-52.61
-43.22
-34.99
-26.43
-16.21
-3.67
10.97
26.71
42.27
56.64
69.45
81.07
92.20
103.40
114.72
125.67
135.46
143.24
148.31
150.15
148.40
143.03
134.43
123.44
111.17
98.60
86.28
74.25
62.24
49.97
37.35
24.59
12.06
0.23
-10.45
-19.56
-26.96
-32.91
-38.19
-43.91
-51.08
-60.24
-71.15
-82.93
-94.42
-104.61
-112.87
-119.08
-123.39
-126.07
-127.15
-126.26
-122.55
-114.80
-101.84
-83.05
-58.78
-30.45
-0.26
29.41
56.65
80.39
100.50
117.62
132.71
146.68
159.96
172.39
183.23
191.41
195.88
196.00
191.79
183.94
173.62
162.17
150.79
140.28
131.01
122.92
115.74
109.11
102.77
96.51
90.23
83.78
76.96
69.54
61.39
52.60
43.42
34.22
25.27
16.66
8.21
-0.42
-9.58
-19.42
-29.85
-40.56
-51.11
-61.14
-70.47
-79.13
-87.24
-95.00
-102.59
-110.12
-117.69
-125.31
-132.78
-139.48
-144.34
-145.98
-143.17
-135.23
-122.45
-106.06
-87.92
-69.86
-53.21
-38.48
-25.47
-13.72
-2.81
7.32
16.48
24.37
30.85
36.06
40.35
44.09
47.54
50.71
53.47
55.67
57.25
58.22
58.57
58.26
57.14
55.05
51.93
47.91
43.31
38.60
34.20
30.34
27.01
23.94
20.79
17.24
13.19
8.79
4.30
-0.01
-4.08
-8.07
-12.26
-16.88
-21.90
-27.09
-32.08
-36.56
-40.41
-43.75
-46.84
-50.08
-53.86
-58.46
-63.90
-69.75
-75.00
-78.19
-77.76
-72.50
-62.17
-47.44
-29.76
-10.82
7.86
25.26
40.89
54.75
67.12
78.24
88.31
97.42
105.55
112.63
118.56
123.36
127.16
130.10
131.97
132.48
131.36
128.58
124.43
119.14
112.89
105.71
97.24
86.48
72.48
54.89
34.15
11.47
-12.11
-35.65
-58.45
-80.11
-101.07
-121.48
-140.74
-157.59
-170.35
-178.50
-182.19
-181.91
-178.37
-173.05
-166.98
-160.47
-153.29
-144.78
-135.43
-125.83
-116.25
-101.24
-78.32
-49.31
-19.51
3.12
18.64
28.28
33.04
34.36
33.05
29.20
23.48
17.45
13.15
12.60
15.89
21.95
29.20
35.96
40.46
41.95
40.95
38.96
37.83
38.16
39.73
41.89
43.86
44.72
44.01
41.85
38.80
35.61
32.50
29.61
27.20
25.48
24.29
23.25
21.77
19.45
16.19
12.07
7.48
2.96
-1.13
-4.71
-7.94
-10.99
-13.92
-16.63
-19.06
-21.27
-23.42
-25.71
-28.20
-30.69
-32.68
-33.53
-32.81
-30.43
-26.80
-22.62
-18.65
-15.36
-12.77
-10.54
-8.15
-5.19
-1.61
2.33
6.15
9.41
11.92
13.84
15.61
17.85
21.11
25.74
31.87
39.31
47.65
56.29
64.55
71.79
77.61
81.88
84.71
86.28
86.63
85.62
82.95
78.41
71.99
64.05
55.16
46.02
37.28
29.42
22.79
17.56
13.68
10.94
8.93
7.17
5.19
2.61
-0.81
-5.21
-10.53
-16.56
-22.93
-29.20
-34.99
-40.07
-44.30
-47.60
-49.80
-50.65
-49.88
-47.39
-43.30
-38.06
-32.28
-26.65
-21.82
-18.33
-16.47
-16.27
-17.42
-19.34
-21.39
-23.03
-24.12
-24.87
-25.81
-27.51
-30.43
-34.70
-40.05
-45.73
-50.63
-53.54
-53.35
-49.50
-42.00
-31.48
-18.96
-5.55
7.73
20.17
31.28
40.88
48.95
55.57
60.84
64.74
67.22
68.24
67.97
66.77
65.12
63.37
61.63
59.72
57.31
54.19
50.41
46.22
41.90
37.56
33.09
28.20
22.66
16.50
10.04
3.82
-1.59
-5.87
-9.04
-11.44
-13.64
-16.12
-19.16
-22.68
-26.43
-30.05
-33.34
-36.30
-39.09
-41.88
-44.80
-47.81
-50.88
-53.96
-57.08
-60.29
-63.62
-67.06
-70.60
-74.32
-78.39
-83.04
-88.30
-93.81
-98.77
-102.08
-102.68
-100.00
-94.19
-86.09
-76.86
-67.53
-58.68
-50.33
-42.16
-33.86
-25.38
-17.04
-9.32
-2.67
2.73
6.96
10.24
12.81
14.84
16.40
17.58
18.50
19.42
20.52
21.88
23.29
24.35
24.59
23.66
21.49
18.30
14.48
10.44
6.49
2.72
-0.84
-4.22
-7.46
-10.56
-13.57
-16.52
-19.50
-22.55
-25.69
-28.87
-32.02
-35.12
-38.16
-41.22
-44.44
-47.98
-52.05
-56.91
-62.71
-69.44
-76.76
-83.93
-89.98
-93.88
-94.87
-92.75
-87.93
-81.25
-73.76
-66.36
-59.68
-54.02
-49.55
-46.35
-44.52
-44.14
-45.17
-47.43
-50.54
-54.03
-57.40
-60.22
-62.21
-63.27
-63.48
-63.07
-62.39
-61.74
-61.39
-61.53
-62.21
-63.41
-64.89
-66.15
-66.46
-64.96
-60.96
-54.26
-45.29
-35.05
-24.81
-15.65
-8.14
-2.22
2.61
7.00
11.42
15.94
20.34
24.17
27.06
28.88
29.84
30.53
31.72
34.17
38.49
44.97
53.56
63.88
75.18
86.33
95.96
102.59
105.00
102.46
94.88
82.74
66.86
48.10
27.19
4.74
-18.64
-42.16
-64.83
-85.50
-103.10
-116.82
-126.24
-131.43
-132.80
-131.13
-127.38
-122.53
-117.45
-112.67
-108.25
-103.89
-99.05
-93.28
-86.47
-78.82
-70.71
-62.42
-54.05
-45.64
-37.36
-29.79
-23.89
-20.66
-20.82
-24.46
-31.07
-39.66
-49.09
-58.31
-66.43
-72.75
-76.64
-77.56
-75.13
-69.25
-60.22
-48.64
-35.37
-21.26
-7.05
6.84
20.20
32.94
44.87
55.63
64.65
71.41
75.71
77.94
79.07
80.37
82.99
87.43
93.38
99.77
105.26
108.72
109.70
108.50
106.03
103.40
101.41
100.20
99.14
96.94
92.21
84.22
73.59
62.36
53.47
49.28
50.36
54.76
58.47
57.20
48.09
31.29
9.77
-11.61
-27.96
-35.64
-32.71
-19.14
2.92
28.47
49.95
58.87
49.15
20.67
-19.27
-57.87
-81.72
-82.33
-59.36
-19.93
25.34
67.58
102.37
129.49
150.69
167.09
178.09
181.93
177.36
165.13
148.41
131.56
118.24
110.16
106.47
104.63
101.62
95.34
85.50
74.20
64.16
57.05
52.73
49.65
45.79
39.62
30.56
19.37
9.44
3.42
1.49
1.33
-0.16
-4.84
-12.54
-21.70
-29.29
-28.42
-14.70
11.17
43.79
76.63
105.20
127.74
143.86
155.28
170.23
194.44
227.61
263.86
296.42
321.70
339.46
350.40
357.74
372.77
403.29
449.35
503.65
557.61
606.39
649.07
685.52
663.81
556.53
376.09
169.26
-18.82
-167.45
-276.05
-344.16
-388.96
-420.00
-433.77
-427.15
-403.11
-370.70
-340.54
-318.05
-304.20
-298.95
-299.28
-296.39
-284.50
-263.79
-239.86
-218.93
-204.06
-195.43
-192.91
-194.47
-194.82
-190.82
-183.10
-175.43
-171.46
-172.14
-175.97
-180.90
-183.86
-181.02
-170.78
-154.47
-135.73
-118.54
-105.45
-97.53
-95.01
-96.84
-100.87
-104.97
-107.44
-107.24
-103.74
-96.57
-85.76
-71.79
-55.16
-36.48
-16.30
4.82
26.27
47.34
67.26
85.27
100.81
113.45
122.96
129.20
132.17
132.10
129.45
124.97
119.52
113.88
108.55
103.64
98.94
94.01
88.46
82.06
74.86
67.16
59.35
51.78
44.70
38.17
32.13
26.36
20.61
14.63
8.25
1.47
-5.52
-12.39
-18.77
-24.47
-29.53
-34.27
-39.16
-44.65
-51.07
-58.45
-66.47
-74.38
-81.04
-85.16
-85.64
-81.94
-74.37
-63.93
-52.05
-40.07
-28.90
-18.93
-10.20
-2.65
3.82
9.26
13.82
17.69
21.04
24.01
26.60
28.77
30.57
32.12
33.63
35.28
37.10
38.94
40.55
41.68
42.12
41.80
40.81
39.29
37.44
35.44
33.42
31.38
29.22
26.78
23.91
20.54
16.70
12.61
8.52
4.73
1.41
-1.42
-3.88
-6.17
-8.43
-10.75
-13.17
-15.73
-18.53
-21.70
-25.31
-29.28
-33.38
-37.30
-40.75
-43.64
-46.09
-48.41
-50.99
-54.26
-58.50
-63.82
-69.97
-76.25
-81.63
-84.90
-85.05
-81.62
-74.88
-65.74
-55.46
-45.19
-35.74
-27.45
-20.38
-14.49
-9.75
-6.20
-3.81
-2.35
-1.44
-0.59
0.60
2.32
4.47
6.86
9.31
11.86
14.72
18.14
22.24
26.84
31.52
35.82
39.43
42.33
44.75
46.95
49.10
51.12
52.81
53.98
54.51
54.48
54.11
53.70
53.59
54.04
55.10
56.59
58.02
58.70
57.91
55.15
50.25
43.45
35.35
26.78
18.54
11.26
5.30
0.62
-3.12
-6.44
-9.83
-13.65
-17.99
-22.74
-27.70
-32.67
-37.57
-42.46
-47.48
-52.69
-57.95
-62.74
-66.21
-67.37
-65.44
-60.24
-52.28
-42.67
-32.67
-23.32
-15.21
-8.49
-3.13
0.85
3.27
4.00
3.11
1.13
-1.15
-2.89
-3.55
-3.04
-1.71
-0.06
1.41
2.49
3.20
3.69
4.15
4.74
5.52
6.46
7.49
8.45
9.20
9.62
9.74
9.73
9.86
10.36
11.31
12.55
13.75
14.57
14.81
14.53
14.02
13.63
13.52
13.58
13.48
12.84
11.47
9.49
7.24
5.12
3.34
1.86
0.46
-1.09
-2.93
-4.97
-7.04
-8.96
-10.62
-12.02
-13.25
-14.49
-16.01
-18.11
-21.13
-25.29
-30.67
-37.05
-43.93
-50.55
-56.10
-59.93
-61.80
-61.92
-60.82
-59.04
-56.82
-53.94
-49.92
-44.31
-37.00
-28.35
-19.10
-9.97
-1.47
6.19
12.96
18.78
23.42
26.67
28.43
28.92
28.56
27.79
26.84
25.62
23.86
21.28
17.81
13.63
9.04
4.35
-0.28
-4.77
-9.02
-12.88
-16.12
-18.61
-20.39
-21.65
-22.58
-23.16
-23.14
-22.19
-20.11
-17.05
-13.49
-10.08
-7.34
-5.50
-4.43
-3.84
-3.50
-3.38
-3.68
-4.70
