1520861316.00
64.000000
-0.00
-0.00
-0.00
-0.00
-0.00
-0.00
-0.00
-0.00
-0.00
-0.00
0.00
0.01
0.01
-0.00
-0.03
-0.05
-0.05
0.00
0.13
0.36
0.66
1.01
1.37
1.72
2.06
2.40
2.79
3.24
3.80
4.42
5.06
5.66
6.20
6.68
7.15
7.68
8.31
9.14
10.09
11.04
11.88
12.56
13.14
13.76
14.65
15.96
17.91
20.32
22.90
25.38
27.58
29.57
31.68
34.32
37.81
42.54
48.15
54.10
59.83
64.97
69.58
74.14
79.34
85.71
93.76
103.00
112.62
121.73
129.77
136.75
143.30
150.75
157.77
166.64
177.95
191.79
206.97
220.57
228.25
225.36
208.53
176.87
132.76
80.05
23.07
-34.94
-92.44
-149.16
-205.23
-260.37
-313.74
-363.87
-409.83
-450.91
-486.50
-515.74
-537.23
-549.22
-549.96
-538.37
-514.21
-478.67
-433.88
-382.45
-327.02
-269.84
-212.63
-156.66
-102.95
-52.37
-5.90
35.58
71.43
101.35
125.50
144.38
158.69
169.15
176.37
180.75
182.57
182.07
179.51
175.23
169.65
163.18
156.15
148.81
141.30
133.69
126.02
118.33
110.69
103.16
95.80
88.68
81.83
75.25
68.95
62.95
57.25
51.86
46.78
42.03
37.59
33.45
29.61
26.07
22.81
19.83
17.11
14.67
12.48
10.54
8.83
7.35
6.07
4.97
4.05
3.27
2.62
2.09
1.65
1.30
1.01
0.79
0.61
0.47
0.37
0.29
0.24
0.20
0.18
0.17
0.17
0.18
0.20
0.23
0.26
0.30
0.34
0.39
0.43
0.48
0.53
0.58
0.63
0.68
0.74
0.81
0.87
0.95
1.03
1.12
1.22
1.33
1.46
1.60
1.76
1.93
2.13
2.35
2.59
2.86
3.16
3.48
3.84
4.23
4.66
5.12
5.62
6.16
6.74
7.36
8.03
8.74
9.49
10.30
11.14
12.04
12.98
13.96
15.02
16.13
17.31
18.55
19.85
21.17
22.46
23.66
24.67
25.37
25.62
25.32
24.34
22.63
20.15
16.96
13.09
8.72
4.05
-0.72
-5.35
-9.62
-13.35
-16.38
-18.64
-20.08
-20.72
-20.67
-20.03
-18.90
-17.43
-15.72
-13.85
-11.91
-9.93
-7.97
-6.08
-4.31
-2.66
-1.10
0.48
2.11
3.87
5.82
7.98
10.22
12.49
14.76
17.04
19.42
21.95
24.72
27.77
31.16
34.62
38.02
41.31
44.58
47.97
51.64
55.71
60.20
65.11
69.88
74.20
77.96
81.32
84.64
88.26
92.42
97.11
102.14
106.51
109.56
110.93
110.67
108.97
105.88
100.79
92.00
81.54
69.12
54.38
37.28
18.37
-1.49
-21.32
-40.47
-58.74
-76.33
-94.45
-114.33
-137.14
-163.69
-193.76
-225.52
-255.14
-277.51
-287.61
-282.96
-264.10
-234.79
-200.69
-167.42
-138.87
-116.58
-100.07
-87.90
-78.88
-72.02
-66.41
-61.04
-54.81
-46.88
-37.19
-26.52
-16.29
-8.17
-3.17
-1.29
-1.58
-2.59
-3.08
-2.42
-0.80
1.01
2.07
1.72
-0.13
-3.08
-6.34
-9.06
-10.43
-9.90
-7.19
-2.35
4.27
12.16
20.65
29.14
37.08
44.02
49.65
53.78
56.29
57.21
56.69
55.02
52.62
50.02
47.79
46.38
46.02
46.66
47.92
49.26
50.09
50.01
48.80
46.51
43.30
39.32
34.69
29.38
23.34
16.54
8.98
0.83
-7.60
-15.82
-23.22
-29.15
-33.07
-34.62
-33.79
-30.90
-26.64
-21.86
-17.33
-13.49
-10.22
-6.97
-3.00
2.22
8.69
15.81
22.67
28.38
32.39
34.54
34.86
33.36
29.90
24.40
17.04
8.43
-0.44
-8.53
-15.11
-20.02
-23.62
-26.61
-29.64
-33.11
-37.08
-41.27
-45.25
-48.42
-50.17
-49.95
-47.39
-42.45
-35.44
-27.06
-18.18
-9.65
-2.13
4.00
8.65
11.90
13.93
14.98
15.33
15.28
15.12
15.12
15.40
15.92
16.48
16.77
16.45
15.32
13.38
10.84
8.00
5.21
2.65
0.35
-1.87
-4.27
-7.15
-10.70
-14.98
-19.88
-25.10
-30.13
-34.34
-37.05
-37.64
-35.76
-31.45
-25.14
-17.57
-9.58
-1.93
4.90
10.65
15.23
18.63
20.83
21.86
21.92
21.35
20.62
20.20
20.35
21.08
22.13
23.09
23.56
23.27
22.14
20.29
17.99
15.56
13.25
11.12
9.07
6.80
4.00
0.49
-3.71
-8.20
-12.33
-15.16
-15.73
-13.25
-7.44
1.29
11.75
22.27
31.25
37.54
40.79
41.34
39.94
37.35
34.13
30.65
27.15
23.92
21.20
19.18
17.89
17.19
16.79
16.40
15.85
15.10
14.31
13.66
13.30
13.19
13.05
12.49
11.10
8.68
5.34
1.43
-2.63
-6.59
-10.46
-14.56
-19.23
-24.60
-30.37
-35.82
-40.00
-42.09
-41.65
-38.73
-33.80
-27.52
-20.55
-13.44
-6.60
-0.32
5.17
9.70
13.20
15.68
17.27
18.18
18.69
19.08
19.58
20.35
21.39
22.60
23.73
24.55
24.83
24.44
23.36
21.59
19.19
16.28
12.99
9.50
5.96
2.39
-1.34
-5.41
-9.99
-15.04
-20.18
-24.76
-27.89
-28.78
-26.99
-22.60
-16.22
-8.77
-1.23
5.62
11.40
16.01
19.57
22.14
23.77
24.46
24.32
23.65
22.83
22.16
21.74
21.36
20.61
19.11
16.63
13.20
9.05
4.47
-0.21
-4.48
-7.60
-8.56
-6.40
-0.74
7.81
17.54
26.08
31.19
31.55
27.15
19.18
9.39
-0.50
-9.20
-15.91
-20.11
-21.48
-20.02
-16.21
-11.12
-6.27
-3.17
-2.98
-6.36
-13.47
-24.26
-38.50
-55.65
-74.58
-93.47
-110.14
-122.62
-129.80
-131.71
-129.38
-124.29
-117.88
-111.17
-104.80
-99.14
-94.40
-90.59
-87.46
-84.46
-80.92
-76.31
-70.46
-63.59
-56.25
-49.00
-42.10
-35.21
-27.42
-17.35
-3.70
14.10
35.28
57.51
77.29
90.89
95.57
90.54
77.26
58.85
39.07
21.16
7.14
-2.35
-7.78
-10.15
-10.63
-10.15
-9.34
-8.47
-7.50
-6.26
-4.59
-2.44
0.04
2.64
5.07
7.07
8.36
8.61
7.48
4.69
0.23
-5.55
-11.89
-17.79
-22.16
-24.07
-22.93
-18.66
-11.66
-2.75
7.11
16.98
26.16
34.10
40.45
44.89
47.26
47.59
46.20
43.64
40.58
37.65
35.30
33.69
32.71
32.10
31.43
30.31
28.39
25.53
21.81
17.52
13.03
8.62
4.41
0.35
-3.71
-7.95
-12.54
-17.62
-23.25
-29.37
-35.65
-41.44
-45.79
-47.69
-46.28
-41.20
-32.74
-21.79
-9.64
2.34
13.01
21.62
27.95
32.19
34.81
36.36
37.35
38.07
38.66
39.16
39.56
39.92
40.29
40.71
41.08
41.17
40.65
39.25
36.80
33.41
29.29
24.76
20.09
15.41
10.79
6.18
1.49
-3.37
-8.54
-14.11
-20.08
-26.18
-31.89
-36.41
-38.89
-38.62
-35.31
-29.20
-21.01
-11.75
-2.44
6.13
13.46
19.39
23.92
27.20
29.37
30.61
31.17
31.34
31.47
31.85
32.62
33.73
34.95
36.00
36.59
36.58
35.86
34.43
32.31
29.53
26.12
22.16
17.76
13.08
8.30
3.50
-1.36
-6.48
-12.10
-18.35
-25.01
-31.42
-36.60
-39.52
-39.45
-36.21
-30.20
-22.22
-13.23
-4.15
4.25
11.33
16.66
20.00
21.36
21.07
19.66
17.81
16.16
15.17
15.05
15.70
16.81
17.96
18.72
18.83
18.18
16.84
14.94
12.66
10.13
7.49
4.79
1.98
-1.14
-4.86
-9.47
-15.08
-21.49
-28.15
-34.21
-38.72
-40.79
-39.85
-35.73
-28.81
-19.88
-10.02
-0.33
8.28
15.25
20.42
23.89
25.88
26.65
26.45
25.55
24.29
23.05
22.19
21.88
22.05
22.45
22.67
22.38
21.40
19.72
17.40
14.52
11.17
7.46
3.50
-0.54
-4.55
-8.54
-12.67
-17.21
-22.33
-27.96
-33.67
-38.69
-42.02
-42.77
-40.38
-34.85
-26.74
-17.10
-7.17
1.95
9.49
15.18
19.16
21.77
23.40
24.34
24.76
24.79
24.58
24.33
24.20
24.31
24.63
25.04
25.30
25.23
24.70
23.64
22.04
19.92
17.32
14.27
10.88
7.22
3.39
-0.58
-4.71
-9.14
-13.96
-19.23
-24.71
-29.89
-33.99
-36.13
-35.63
-32.18
-26.00
-17.77
-8.48
0.80
9.12
15.81
20.60
23.56
25.09
25.69
25.77
25.63
25.36
25.03
24.69
24.47
24.39
24.40
24.26
23.74
22.67
21.12
19.26
17.25
15.15
12.80
10.00
6.70
3.05
-0.63
-4.07
-7.18
-10.21
-13.51
-17.43
-22.02
-26.95
-31.52
-34.86
-36.17
-34.97
-31.20
-25.21
-17.69
-9.46
-1.30
6.14
12.40
17.21
20.46
22.21
22.69
22.28
21.43
20.58
20.02
19.90
20.16
20.57
20.91
20.97
20.67
20.03
19.16
18.11
16.89
15.40
13.48
11.05
8.15
4.93
1.63
-1.53
-4.45
-7.17
-9.85
-12.73
-16.06
-19.93
-24.28
-28.83
-33.07
-36.30
-37.76
-36.79
-33.06
-26.75
-18.57
-9.61
-1.04
6.25
11.81
15.63
18.03
19.36
19.92
19.94
19.59
19.10
18.73
18.70
19.10
19.83
20.65
21.30
21.58
21.38
20.73
19.64
18.09
16.05
13.49
10.46
7.16
3.85
0.83
-1.74
-3.90
-5.90
-8.10
-10.82
-14.20
-18.11
-22.18
-25.90
-28.64
-29.77
-28.86
-25.76
-20.75
-14.46
-7.79
-1.59
3.50
7.25
9.74
11.27
12.15
12.57
12.63
12.39
11.95
11.47
11.13
11.02
11.15
11.40
11.62
11.66
11.41
10.80
9.84
8.51
6.84
4.88
2.70
0.44
-1.84
-4.07
-6.30
-8.66
-11.29
-14.34
-17.82
-21.54
-25.06
-27.78
-29.00
-28.20
-25.17
-20.13
-13.65
-6.51
0.45
6.55
11.34
14.64
16.54
17.29
17.25
16.80
16.24
15.78
15.52
15.45
15.47
15.49
15.37
15.03
14.44
13.69
12.82
11.88
10.81
9.47
7.66
5.28
2.38
-0.83
-4.05
-7.04
-9.73
-12.19
-14.64
-17.33
-20.33
-23.54
-26.63
-29.12
-30.48
-30.25
-28.19
-24.33
-19.00
-12.81
-6.43
-0.52
4.47
8.33
11.01
12.63
13.36
13.40
13.01
12.45
12.05
12.01
12.40
13.09
13.82
14.34
14.52
14.42
14.19
13.96
13.74
13.37
12.59
11.18
9.06
6.30
3.14
-0.16
-3.32
-6.18
-8.68
-10.92
-13.07
-15.37
-18.03
-21.12
-24.57
-28.10
-31.20
-33.27
-33.70
-32.12
-28.46
-23.08
-16.61
-9.80
-3.32
2.33
6.88
10.23
12.37
13.40
13.48
12.90
12.00
11.13
10.57
10.48
10.83
11.45
12.08
12.47
12.46
12.01
11.24
10.31
9.37
8.43
7.38
6.04
4.22
1.88
-0.87
-3.80
-6.63
-9.16
-11.35
-13.28
-15.16
-17.24
-19.69
-22.55
-25.64
-28.59
-30.89
-31.95
-31.27
-28.58
-23.98
-17.91
-11.11
-4.38
1.59
6.38
9.88
12.18
13.51
14.10
14.21
14.05
13.82
13.73
13.88
14.33
15.02
15.81
16.50
16.90
16.84
16.24
15.13
13.62
11.88
10.08
8.29
6.48
4.53
2.33
-0.15
-2.84
-5.58
-8.21
-10.66
-13.03
-15.50
-18.34
-21.67
-25.41
-29.17
-32.35
-34.28
-34.37
-32.37
-28.34
-22.67
-15.95
-8.86
-2.02
3.99
8.75
12.00
13.66
13.92
13.23
12.13
11.21
10.88
11.27
12.28
13.56
14.76
15.58
15.91
15.75
15.26
14.55
13.65
12.50
10.98
8.93
6.30
3.15
-0.28
-3.69
-6.83
-9.59
-12.03
-14.36
-16.87
-19.78
-23.18
-26.96
-30.79
-34.16
-36.47
-37.12
-35.69
-32.07
-26.51
-19.64
-12.30
-5.32
0.60
5.08
8.00
9.52
9.93
9.54
8.72
7.75
6.91
6.41
6.41
6.93
7.86
8.97
9.93
10.50
10.52
9.97
8.98
7.64
6.00
4.09
1.85
-0.65
-3.32
-5.94
-8.37
-10.55
-12.59
-14.74
-17.22
-20.13
-23.26
-26.15
-28.12
-28.49
-26.74
-22.78
-16.96
-10.02
-2.88
3.56
8.73
12.33
14.40
15.17
14.93
13.94
12.49
10.89
9.48
8.58
8.37
8.88
9.91
11.10
12.12
12.68
12.65
12.03
10.88
9.35
7.53
5.55
3.51
1.47
-0.56
-2.66
-5.00
-7.77
-11.05
-14.72
-18.37
-21.31
-22.83
-22.31
-19.54
-14.71
-8.45
-1.58
5.09
10.88
15.39
18.43
20.02
20.33
19.67
18.40
16.95
15.66
14.78
14.41
14.53
14.99
15.60
16.13
16.33
15.99
15.02
13.43
11.35
8.95
6.40
3.80
1.19
-1.43
-4.11
-6.95
-10.06
-13.60
-17.57
-21.81
-25.83
-28.90
-30.26
-29.30
-25.84
-20.18
-13.05
-5.37
1.93
8.17
12.95
16.20
18.10
18.91
18.91
18.38
17.51
16.53
15.60
14.92
14.58
14.59
14.82
15.06
15.06
14.65
13.73
12.37
10.64
8.65
6.43
4.00
1.32
-1.62
-4.77
-8.12
-11.66
-15.43
-19.45
-23.66
-27.79
-31.40
-33.88
-34.62
-33.20
-29.52
-23.90
-16.96
-9.54
-2.47
3.61
8.33
11.63
13.71
14.88
15.43
15.61
15.59
15.50
15.45
15.54
15.84
16.30
16.82
17.22
17.32
17.02
16.25
15.02
13.35
11.26
8.79
6.01
3.06
0.10
-2.76
-5.45
-7.99
-10.55
-13.33
-16.50
-20.10
-23.91
-27.45
-30.00
-30.81
-29.36
-25.55
-19.77
-12.84
-5.71
0.78
6.07
9.97
12.54
14.03
14.71
14.84
14.68
14.43
14.25
14.23
14.37
14.60
14.81
14.88
14.77
14.43
13.88
13.07
11.90
10.27
8.14
5.60
2.86
0.20
-2.17
-4.19
-5.98
-7.78
-9.81
-12.25
-15.17
-18.52
-22.14
-25.75
-28.89
-31.01
-31.56
-30.13
-26.64
-21.37
-14.91
-8.04
-1.50
4.12
8.53
11.65
13.59
14.56
14.79
14.50
13.90
13.19
12.56
12.16
12.05
12.21
12.53
12.87
13.08
13.05
12.67
11.90
10.67
9.01
6.98
4.72
2.40
0.12
-2.04
-4.09
-6.09
-8.05
-10.03
-12.10
-14.41
-17.09
-20.14
-23.38
-26.34
-28.38
-28.93
-27.56
-24.24
-19.28
-13.26
-6.87
-0.76
4.58
8.82
11.80
13.51
14.10
13.84
13.12
12.35
11.81
11.68
11.96
12.52
13.19
13.80
14.25
14.44
14.28
13.70
12.69
11.28
9.57
7.64
5.56
3.34
0.99
-1.39
-3.71
-5.81
-7.68
-9.53
-11.69
-14.49
-18.06
-22.20
-26.30
-29.59
-31.31
-30.96
-28.45
-24.07
-18.38
-12.08
-5.85
-0.23
4.43
7.95
10.33
11.67
12.09
11.78
10.99
10.01
9.15
8.67
8.67
9.10
9.79
10.50
11.04
11.31
11.29
10.94
10.19
8.97
7.22
4.98
2.43
-0.19
-2.64
-4.81
-6.68
-8.43
-10.26
-12.40
-14.96
-17.97
-21.36
-24.91
-28.33
-31.20
-33.06
-33.43
-31.99
-28.67
-23.70
-17.64
-11.25
-5.36
-0.59
2.73
4.65
5.43
5.49
5.21
4.86
4.61
4.55
4.73
5.14
5.72
6.39
7.00
7.46
7.71
7.71
7.43
6.87
5.99
4.85
3.53
2.15
0.75
-0.71
-2.37
-4.31
-6.53
-8.87
-11.16
-13.30
-15.34
-17.39
-19.49
-21.40
-22.61
-22.51
-20.63
-16.89
-11.58
-5.38
0.94
6.63
11.15
14.18
15.70
15.93
15.28
14.25
13.28
12.66
12.48
12.72
13.24
13.92
14.65
15.31
15.75
15.80
15.33
14.28
12.70
10.75
8.61
6.42
4.26
2.18
0.21
-1.62
-3.35
-5.08
-7.02
-9.36
-12.15
-15.17
-17.92
-19.76
-20.08
-18.50
-15.01
-9.96
-3.97
2.22
7.90
12.49
15.68
17.39
17.77
17.14
15.88
14.31
12.73
11.39
10.48
10.12
10.27
10.78
11.39
11.87
12.06
11.90
11.40
10.60
9.50
8.05
6.25
4.15
1.84
-0.57
-3.03
-5.54
-8.13
-10.90
-13.90
-17.15
-20.61
-24.19
-27.60
-30.42
-32.13
-32.15
-30.13
-26.04
-20.31
-13.64
-6.90
-0.84
4.02
7.52
9.72
10.85
11.17
10.91
10.29
9.53
8.85
8.40
8.31
8.60
9.21
10.01
10.81
11.44
11.73
11.52
10.77
9.45
7.61
5.32
2.73
0.00
-2.67
-5.14
-7.32
-9.22
-11.01
-12.93
-15.26
-18.23
-21.86
-25.94
-29.96
-33.20
-34.89
-34.43
-31.55
-26.44
-19.74
-12.30
-5.04
1.30
6.28
9.78
11.92
12.94
13.17
12.91
12.47
12.06
11.83
11.82
12.03
12.35
12.66
12.85
12.80
12.46
11.84
10.96
9.86
8.55
7.01
5.20
3.10
0.76
-1.75
-4.31
-6.83
-9.27
-11.67
-14.14
-16.83
-19.93
-23.49
-27.40
-31.29
-34.56
-36.50
-36.49
-34.23
-29.77
-23.60
-16.41
-9.01
-2.15
3.62
7.94
10.71
12.07
12.34
11.95
11.37
10.91
10.78
10.99
11.53
12.31
13.23
14.17
14.92
15.26
15.00
14.09
12.60
10.68
8.48
6.06
3.45
0.64
-2.25
-5.04
-7.52
-9.58
-11.32
-13.00
-15.00
-17.62
-20.92
-24.70
-28.41
-31.30
-32.60
-31.72
-28.41
-22.90
-15.81
-8.01
-0.37
6.37
11.72
15.46
17.61
18.38
18.11
17.23
16.17
15.27
14.78
14.81
15.33
16.26
17.45
18.73
19.91
20.77
21.13
20.85
19.86
18.16
15.84
13.04
9.90
6.65
3.49
0.59
-2.02
-4.50
-7.07
-10.01
-13.36
-16.93
-20.18
-22.42
-22.92
-21.17
-17.07
-10.95
-3.56
4.17
11.29
17.09
21.18
23.53
24.32
23.87
22.52
20.65
18.65
16.94
15.83
15.47
15.75
16.43
17.15
17.65
17.76
17.41
16.56
15.18
13.27
10.85
8.04
5.01
1.93
-1.07
-3.94
-6.72
-9.55
-12.60
-16.05
-20.01
-24.41
-28.92
-32.97
-35.77
-36.60
-34.96
-30.75
-24.39
-16.66
-8.54
-0.93
5.51
10.46
13.95
16.20
17.47
18.04
18.13
17.92
17.57
17.28
17.16
17.24
17.43
17.53
17.36
16.81
15.88
14.68
13.31
11.79
10.09
8.06
5.61
2.67
-0.65
-4.15
-7.57
-10.67
-13.36
-15.77
-18.17
-20.93
-24.29
-28.18
-32.12
-35.31
-36.84
-36.01
-32.51
-26.54
-18.73
-10.01
-1.35
6.39
12.61
17.05
19.75
20.99
21.17
20.73
20.04
19.35
18.78
18.41
18.22
18.19
18.30
18.44
18.52
18.41
18.00
17.21
15.95
14.19
11.93
9.25
6.29
3.24
0.28
-2.44
-4.89
-7.13
-9.33
-11.75
-14.69
-18.34
-22.68
-27.40
-31.84
-35.11
-36.32
-34.91
-30.74
-24.24
-16.25
-7.80
0.14
6.85
11.98
15.51
17.63
18.68
18.95
18.67
18.06
17.28
16.58
16.16
16.11
16.36
16.69
16.85
16.66
16.13
15.36
14.45
13.42
12.18
10.58
8.55
6.06
3.21
0.17
-2.83
-5.59
-8.04
-10.23
-12.40
-14.88
-17.92
-21.56
-25.57
-29.41
-32.44
-34.03
-33.70
-31.24
-26.69
-20.45
-13.12
-5.47
1.70
7.75
12.29
15.27
16.81
17.22
16.80
15.82
14.57
13.31
12.30
11.77
11.83
12.46
13.53
14.76
15.84
16.52
16.64
16.18
15.20
13.81
12.08
10.04
7.68
5.05
2.24
-0.65
-3.50
-6.28
-9.07
-11.97
-15.08
-18.47
-22.12
-25.88
-29.43
-32.28
-33.83
-33.52
-31.02
-26.36
-19.94
-12.47
-4.75
2.44
8.52
13.11
16.04
17.39
17.42
16.54
15.24
13.99
13.10
12.67
12.66
12.89
13.18
13.33
13.22
12.81
12.04
10.98
9.66
8.16
6.51
4.68
2.66
0.42
-2.00
-4.49
-6.92
-9.19
-11.32
-13.51
-16.07
-19.29
-23.28
-27.80
-32.30
-35.97
-37.97
-37.67
-34.83
-29.72
-23.02
-15.65
-8.53
-2.35
2.47
5.81
7.72
8.39
8.04
7.01
5.70
4.52
3.83
3.79
4.38
5.40
6.63
7.89
9.09
10.15
11.01
11.50
11.43
10.64
9.07
6.79
3.97
0.91
-2.13
-4.87
-7.17
-9.10
-10.88
-12.86
-15.29
-18.20
-21.24
-23.80
-25.11
-24.56
-21.88
-17.28
-11.34
-4.81
1.58
7.29
12.02
15.61
18.04
19.26
19.28
18.24
16.47
14.46
12.77
11.83
11.82
12.57
13.72
14.87
15.68
16.01
15.83
15.17
14.07
12.57
10.72
8.62
6.39
4.07
1.63
-1.07
-4.19
-7.76
-11.64
-15.51
-18.88
-21.23
-22.13
-21.25
-18.48
-13.91
-7.91
-1.10
5.76
11.88
16.67
19.81
21.25
21.18
19.87
17.72
15.15
12.69
10.80
9.79
9.74
10.40
11.39
12.22
12.60
12.35
11.47
10.05
8.18
5.96
3.55
1.07
-1.34
-3.65
-5.99
-8.54
-11.52
-15.02
-18.91
-22.81
-26.15
-28.32
-28.79
-27.28
-23.78
-18.61
-12.35
-5.68
0.68
6.16
10.39
13.26
14.89
15.52
15.47
15.02
14.39
13.68
12.95
12.27
11.71
11.39
11.35
11.52
11.71
11.64
11.08
9.88
8.06
5.74
3.07
0.20
-2.80
-5.86
-8.97
-12.11
-15.30
-18.59
-22.00
-25.45
-28.69
-31.27
-32.61
-32.17
-29.63
-25.06
-18.95
-12.07
-5.26
0.78
5.69
9.37
11.96
13.61
14.46
14.61
14.22
13.50
12.71
12.12
11.95
12.30
13.11
14.16
15.11
15.57
15.22
13.88
11.66
8.81
5.70
2.64
-0.26
-3.00
-5.70
-8.47
-11.35
-14.39
-17.58
-20.88
-24.12
-26.94
-28.78
-29.09
-27.46
-23.80
-18.43
-12.00
-5.35
0.73
5.66
9.11
11.07
11.73
11.44
10.52
9.29
7.97
6.74
5.76
5.12
4.87
4.94
5.17
5.34
5.26
4.83
4.03
2.88
1.48
-0.13
-1.85
-3.66
-5.54
-7.49
-9.59
-11.92
-14.60
-17.68
-21.05
-24.45
-27.40
-29.37
-29.83
-28.43
-25.13
-20.17
-14.06
-7.45
-1.01
4.73
9.35
12.62
14.50
15.09
14.68
13.63
12.37
11.29
10.67
10.67
11.24
12.22
13.29
14.09
14.28
13.71
12.43
10.72
8.95
7.43
6.27
5.34
4.35
2.97
0.97
-1.71
-4.96
-8.52
-11.99
-14.91
-16.74
-16.93
-15.15
-11.36
-5.93
0.45
6.91
12.66
17.16
20.17
21.70
21.93
21.08
19.46
17.41
15.34
13.66
12.63
12.34
12.65
13.20
13.67
13.79
13.45
12.67
11.50
9.95
8.01
5.68
2.99
0.08
-2.98
-6.13
-9.44
-12.97
-16.74
-20.56
-24.00
-26.45
-27.30
-26.07
-22.65
-17.31
-10.67
-3.52
3.37
9.41
14.24
17.73
19.86
20.73
20.52
19.47
17.92
16.23
14.74
13.61
12.86
12.42
12.14
11.88
11.51
10.89
9.93
8.54
6.69
4.45
1.93
-0.71
-3.34
-5.90
-8.48
-11.22
-14.31
-17.81
-21.59
-25.27
-28.29
-30.02
-29.94
-27.80
-23.72
-18.10
-11.63
-5.01
1.16
6.46
10.67
13.77
15.80
16.90
17.23
16.99
16.42
15.73
15.07
14.45
13.83
13.18
12.49
11.83
11.26
10.75
10.15
9.21
7.75
5.70
3.20
0.51
-2.09
-4.42
-6.57
-8.75
-11.19
-14.10
-17.47
-21.09
-24.60
-27.55
-29.44
-29.84
-28.45
-25.15
-20.10
-13.76
-6.82
-0.08
5.75
10.26
13.38
15.29
16.38
16.98
17.32
17.44
17.32
16.90
16.21
15.32
14.39
13.54
12.92
12.56
12.43
12.33
12.00
11.13
9.56
7.23
4.31
1.08
-2.17
-5.19
-7.87
-10.25
-12.53
-14.95
-17.77
-21.13
-24.91
-28.71
-31.91
-33.82
-33.91
-31.94
-28.02
-22.57
-16.16
-9.45
-3.03
2.51
6.82
9.66
11.09
11.37
10.88
10.04
9.20
8.57
8.26
8.28
8.54
8.91
9.25
9.44
9.37
8.98
8.25
7.14
5.63
3.74
1.54
-0.82
-3.10
-5.07
-6.61
-7.81
-8.89
-10.23
-12.14
-14.72
-17.78
-20.83
-23.24
-24.36
-23.77
-21.31
-17.19
-11.86
-5.94
-0.11
5.03
9.05
11.72
13.06
13.27
12.74
11.89
11.15
10.84
11.19
12.25
13.93
15.94
17.94
19.53
20.38
20.30
19.25
17.32
14.74
11.77
8.67
5.65
2.83
0.25
-2.15
-4.48
-6.90
-9.52
-12.33
-15.14
-17.56
-19.08
-19.18
-17.53
-14.08
-9.14
-3.26
2.89
8.67
13.59
17.32
19.74
20.90
20.99
20.26
19.02
17.52
16.02
14.73
13.78
13.26
13.11
13.22
13.39
13.40
13.06
12.21
10.83
8.92
6.60
4.01
1.35
-1.21
-3.56
-5.75
-7.97
-10.49
-13.49
-17.02
-20.87
-24.65
-27.83
-29.87
-30.30
-28.82
-25.42
-20.36
-14.22
-7.75
-1.74
3.27
7.01
9.56
11.16
12.06
12.45
12.45
12.15
11.71
11.30
11.10
11.14
11.34
11.52
11.46
11.01
10.18
9.02
7.62
6.06
4.39
2.64
0.83
-1.03
-2.90
-4.82
-6.81
-8.92
-11.20
-13.68
-16.36
-19.19
-22.05
-24.69
-26.73
-27.67
-27.06
-24.59
-20.30
-14.57
-8.08
-1.62
4.10
8.59
11.67
13.44
14.21
14.32
14.12
13.81
13.48
13.13
12.77
12.44
12.23
12.21
12.38
12.59
12.65
12.36
11.68
10.63
9.33
7.83
6.10
4.07
1.70
-0.93
-3.63
-6.19
-8.54
-10.75
-13.06
-15.68
-18.68
-21.81
-24.62
-26.50
-26.92
-25.55
-22.35
-17.59
-11.79
-5.63
0.18
5.02
8.47
10.43
11.08
10.80
10.06
9.25
8.59
8.20
8.07
8.21
8.56
9.02
9.43
9.61
9.45
8.97
8.28
7.53
6.74
5.85
4.69
3.14
1.16
-1.14
-3.60
-6.04
-8.38
-10.56
-12.64
-14.74
-17.02
-19.67
-22.76
-26.10
-29.20
-31.37
-31.92
-30.37
-26.70
-21.30
-14.93
-8.42
-2.52
2.28
5.77
7.99
9.13
9.46
9.28
8.85
8.39
8.04
7.87
7.92
8.17
8.58
9.04
9.42
9.58
9.41
8.87
8.01
6.90
5.65
4.28
2.82
1.26
-0.34
-1.89
-3.31
-4.61
-5.94
-7.53
-9.56
-12.04
-14.65
-16.85
-18.01
-17.63
-15.48
-11.69
-6.68
-0.99
4.78
10.08
14.44
17.55
19.27
19.69
19.10
17.88
16.42
15.01
13.83
12.98
12.50
12.41
12.65
13.06
13.36
13.30
12.64
11.37
9.59
7.48
5.24
3.00
0.83
-1.22
-3.16
-5.01
-6.86
-8.83
-11.07
-13.70
-16.68
-19.88
-22.92
-25.31
-26.47
-25.91
-23.42
-19.14
-13.54
-7.37
-1.37
3.84
7.94
10.79
12.48
13.14
13.01
12.38
11.58
10.94
10.68
10.89
11.47
12.22
12.86
13.21
13.19
12.78
12.05
11.06
9.88
8.51
6.90
5.01
2.81
0.39
-2.09
-4.43
-6.50
-8.29
-10.00
-11.87
-14.17
-17.01
-20.34
-23.90
-27.32
-30.13
-31.81
-31.89
-30.03
-26.19
-20.69
-14.18
-7.49
-1.38
3.62
7.32
9.80
11.23
11.84
11.81
11.28
10.45
9.56
8.85
8.54
8.74
9.43
10.45
11.56
12.46
12.87
12.63
11.76
10.41
8.85
7.31
5.86
4.41
2.81
0.92
-1.22
-3.43
-5.49
-7.23
-8.69
-10.13
-11.89
-14.26
-17.32
-20.85
-24.35
-27.18
-28.71
-28.49
-26.36
-22.52
-17.41
-11.57
-5.55
0.19
5.26
9.36
12.24
13.79
14.09
13.42
12.24
11.04
10.23
10.01
10.39
11.22
12.21
13.12
13.71
13.88
13.65
13.09
12.30
11.28
9.95
8.24
6.16
3.81
1.44
-0.75
-2.65
-4.32
-5.94
-7.70
-9.72
-12.05
-14.66
-17.51
-20.52
-23.55
-26.24
-28.09
-28.52
-27.02
-23.45
-18.06
-11.54
-4.75
1.46
6.57
10.42
13.14
14.99
16.15
16.69
16.59
15.84
14.54
12.93
11.33
10.04
9.26
9.05
9.34
9.92
10.57
10.99
10.92
10.17
8.64
6.34
3.40
0.08
-3.30
-6.41
-8.94
-10.76
-11.88
-12.43
-12.69
-12.95
-13.50
-14.56
-16.30
-18.71
-21.59
-24.49
-26.74
-27.65
-26.65
-23.52
-18.45
-12.01
-4.96
1.94
8.03
12.87
16.20
17.95
18.18
17.17
15.39
13.39
11.71
10.70
10.37
10.50
10.72
10.77
10.62
10.42
10.36
10.48
10.63
10.48
9.72
8.24
6.17
3.77
1.31
-1.08
-3.39
-5.71
-8.11
-10.61
-13.22
-15.94
-18.76
-21.63
-24.40
-26.69
-28.05
-27.98
-26.14
-22.49
-17.34
-11.27
-5.00
0.80
5.62
9.18
11.38
12.31
12.13
11.14
9.69
8.17
6.92
6.19
6.05
6.45
7.22
8.18
9.12
9.89
10.31
10.24
9.57
8.31
6.58
4.58
2.54
0.61
-1.21
-3.02
-5.06
-7.54
-10.55
-13.97
-17.43
-20.31
-21.93
-21.69
-19.28
-14.78
-8.64
-1.62
5.48
11.88
17.05
20.66
22.61
22.99
22.06
20.20
17.90
15.65
13.86
12.83
12.60
13.01
13.76
14.46
14.77
14.47
13.50
11.84
9.61
6.92
3.93
0.82
-2.23
-5.11
-7.88
-10.71
-13.84
-17.40
-21.34
-25.33
-28.89
-31.43
-32.44
-31.54
-28.62
-23.78
-17.41
-10.09
-2.57
4.45
10.36
14.82
17.76
19.33
19.86
19.71
19.17
18.45
17.68
16.97
16.45
16.23
16.34
16.68
16.99
16.96
16.33
15.03
13.12
10.82
8.35
5.85
3.36
0.84
-1.77
-4.53
-7.53
-10.88
-14.64
-18.81
-23.15
-27.19
-30.25
-31.61
-30.74
-27.50
-22.23
-15.71
-8.82
-2.39
3.06
7.35
10.49
12.63
13.90
14.39
14.25
13.69
13.03
12.59
12.56
12.95
13.60
14.28
14.79
15.05
15.04
14.74
14.04
12.84
11.01
8.60
5.81
2.96
0.36
-1.82
-3.54
-4.97
-6.36
-8.02
-10.26
-13.31
-17.25
-21.92
-26.81
-31.13
-33.95
-34.48
-32.33
-27.66
-21.12
-13.60
-6.02
0.95
6.89
11.59
14.94
16.87
17.37
16.64
15.10
13.31
11.81
10.92
10.67
10.83
11.11
11.32
11.47
11.65
11.92
12.18
12.19
11.69
10.53
8.71
6.38
3.77
1.10
-1.41
-3.52
-5.01
-5.87
-6.33
-6.93
-8.31
-10.91
-14.63
-18.77
-22.21
-23.82
-22.87
-19.30
-13.60
-6.67
0.57
7.33
13.05
17.34
19.99
20.95
20.35
18.52
15.96
13.23
10.82
9.07
8.08
7.79
7.96
8.34
8.70
8.89
8.86
8.65
8.31
7.79
6.99
5.73
3.86
1.40
-1.46
-4.37
-6.95
-9.00
-10.54
-11.82
-13.25
-15.20
-17.85
-21.18
-24.92
-28.58
-31.53
-33.12
-32.83
-30.43
-26.00
-19.97
-13.00
-5.87
0.70
6.14
10.11
12.54
13.56
13.50
12.77
11.76
10.84
10.27
10.20
10.66
11.54
12.63
13.67
14.44
14.81
14.72
14.21
13.26
11.86
9.99
7.71
5.17
2.58
0.13
-2.10
-4.14
-6.10
-8.13
-10.34
-12.79
-15.39
-17.94
-20.02
-21.10
-20.60
-18.13
-13.64
-7.52
-0.52
6.44
12.54
17.29
20.52
22.36
23.03
22.76
21.77
20.29
18.65
17.19
16.17
15.72
15.77
16.13
16.58
16.97
17.17
17.10
16.59
15.48
13.66
11.14
8.16
5.03
2.06
-0.55
-2.83
-4.96
-7.20
-9.78
-12.88
-16.49
-20.47
-24.43
-27.85
-30.07
-30.48
-28.73
-24.82
-19.20
-12.59
-5.87
0.26
5.29
9.05
11.57
13.00
13.55
13.40
12.77
11.91
11.13
10.70
10.74
11.20
11.83
12.34
12.47
12.19
11.65
11.04
10.48
9.87
8.99
7.57
5.47
2.81
-0.13
-2.99
-5.51
-7.60
-9.44
-11.29
-13.47
-16.18
-19.44
-23.07
-26.72
-29.87
-31.98
-32.49
-30.98
-27.31
-21.66
-14.62
-7.05
0.11
6.10
10.54
13.43
15.08
15.90
16.17
16.05
15.65
15.12
14.67
14.54
14.86
15.53
16.28
16.77
16.76
16.20
15.22
14.01
12.64
11.10
9.27
7.11
4.66
2.13
-0.29
-2.44
-4.30
-5.97
-7.58
-9.31
-11.39
-14.02
-17.38
-21.43
-25.86
-30.05
-33.16
-34.37
-33.19
-29.55
-23.91
-17.05
-9.83
-2.97
3.07
8.10
12.03
14.81
16.45
17.00
16.68
15.85
14.94
14.28
14.04
14.20
14.62
15.16
15.74
16.24
16.60
16.66
16.32
15.54
14.40
13.01
11.46
9.79
7.90
5.69
3.09
0.12
-3.04
-6.13
-8.88
-11.17
-13.08
-14.94
-17.18
-20.15
-23.87
-27.90
-31.48
-33.71
-33.88
-31.65
-27.20
-21.06
-13.98
-6.72
0.03
5.76
10.16
13.12
14.76
15.34
15.23
14.75
14.16
13.56
13.05
12.68
12.53
12.67
13.05
13.53
13.86
13.86
13.46
12.70
11.69
10.49
9.05
7.25
5.00
2.31
-0.69
-3.76
-6.65
-9.21
-11.38
-13.26
-15.03
-16.94
-19.19
-21.94
-25.16
-28.64
-31.91
-34.43
-35.57
-34.84
-32.07
-27.36
-21.19
-14.23
-7.23
-0.86
4.40
8.31
10.82
12.06
12.33
11.99
11.43
11.02
10.99
11.42
12.20
13.11
13.92
14.48
14.71
14.62
14.25
13.60
12.68
11.49
10.01
8.29
6.33
4.18
1.90
-0.42
-2.63
-4.65
-6.46
-8.19
-10.06
-12.35
-15.14
-18.29
-21.37
-23.77
-24.88
-24.24
-21.67
-17.32
-11.61
-5.14
1.41
7.39
12.30
15.81
17.84
18.49
18.05
16.89
15.37
13.78
12.34
11.22
10.62
10.70
11.56
13.14
15.19
17.30
19.03
20.03
20.13
19.29
17.59
15.11
12.02
8.51
4.82
1.21
-2.11
-5.11
-7.92
-10.74
-13.80
-17.20
-20.87
-24.48
-27.54
-29.43
-29.54
-27.50
-23.29
-17.34
-10.38
-3.31
3.02
8.04
11.52
13.57
14.54
14.83
14.79
14.64
14.44
14.21
13.96
13.72
13.58
13.62
13.86
14.20
14.56
14.75
14.65
14.13
13.11
11.58
9.49
6.88
3.81
0.40
-3.14
-6.50
-9.42
-11.74
-13.52
-15.01
-16.62
-18.74
-21.59
-25.12
-28.99
-32.66
-35.44
-36.65
-35.77
-32.54
-27.20
-20.32
-12.81
-5.59
0.64
5.52
9.04
11.41
12.94
13.91
14.53
14.96
15.26
15.47
15.60
15.62
15.58
15.51
15.46
15.40
15.26
14.93
14.36
13.54
12.55
11.44
10.16
8.57
6.50
3.82
0.66
-2.69
-5.78
-8.25
-10.00
-11.24
-12.46
-14.18
-16.78
-20.26
-24.32
-28.38
-31.78
-33.89
-34.28
-32.67
-29.01
-23.51
-16.67
-9.21
-1.95
4.41
9.42
12.96
15.16
16.28
16.60
16.37
15.82
15.19
14.71
14.54
14.73
15.18
15.69
16.06
16.19
16.02
15.57
14.91
14.06
13.03
11.81
10.33
8.51
6.35
3.84
1.12
-1.62
-4.22
-6.58
-8.75
-10.83
-12.99
-15.38
-18.10
-21.18
-24.53
-27.89
-30.80
-32.70
-32.96
-31.22
-27.43
-21.94
-15.38
-8.53
-2.12
3.37
7.64
10.57
12.21
12.70
12.24
11.17
9.90
8.87
8.41
8.69
9.61
10.87
12.09
12.94
13.21
12.87
12.01
10.75
9.23
7.52
5.66
3.71
1.72
-0.20
-1.95
-3.44
-4.67
-5.74
-6.87
-8.32
-10.30
-12.90
-16.04
-19.48
-22.82
-25.54
-27.09
-26.99
-24.91
-20.84
-15.11
-8.34
-1.31
5.23
10.66
14.58
16.80
17.42
16.80
15.44
13.99
12.91
12.48
12.66
13.29
14.15
15.14
16.27
17.50
18.72
19.67
20.02
19.54
18.19
16.07
13.42
10.48
7.46
4.50
1.72
-0.79
-3.04
-5.10
-7.16
-9.42
-12.04
-14.97
-17.92
-20.37
-21.64
-21.10
-18.41
-13.60
-7.15
0.12
7.21
13.27
17.70
20.33
21.29
20.96
19.74
17.99
15.97
13.89
11.99
10.48
9.52
9.13
9.13
9.23
9.12
8.61
7.71
6.54
5.26
3.94
2.47
0.66
-1.64
-4.45
-7.57
-10.66
-13.31
-15.31
-16.69
-17.78
-19.06
-20.96
-23.72
-27.20
-30.91
-34.15
-36.15
-36.25
-34.07
-29.59
-23.17
-15.51
-7.50
-0.03
6.22
10.88
13.93
15.58
16.17
16.06
15.55
14.89
14.25
13.78
13.56
13.62
13.90
14.27
14.60
14.72
14.54
14.04
13.24
12.14
10.73
8.91
6.62
3.84
0.66
-2.67
-5.84
-8.60
-10.89
-12.89
-14.99
-17.63
-21.12
-25.37
-29.92
-33.93
-36.42
-36.56
-33.94
-28.75
-21.70
-13.80
-6.14
0.44
5.48
8.89
10.86
11.71
11.80
11.39
10.71
9.93
9.24
8.76
8.64
8.94
9.63
10.53
11.36
11.86
11.86
11.34
10.43
9.31
8.07
6.66
5.00
2.97
0.64
-1.83
-4.19
-6.23
-7.96
-9.53
-11.26
-13.50
-16.43
-19.94
-23.55
-26.53
-28.03
-27.39
-24.34
-19.09
-12.27
-4.73
2.65
9.14
14.28
17.84
19.83
20.47
20.11
19.16
18.00
16.94
16.16
15.73
15.66
15.86
16.21
16.56
16.76
16.69
16.30
15.53
14.38
12.80
10.81
8.46
5.87
3.23
0.68
-1.71
-3.99
-6.31
-8.85
-11.71
-14.88
-18.14
-21.11
-23.23
-23.91
-22.63
-19.19
-13.77
-6.94
0.44
7.51
13.54
18.10
21.06
22.53
22.75
22.06
20.83
19.41
18.13
17.19
16.66
16.52
16.63
16.83
16.96
16.92
16.62
16.03
15.12
13.89
12.28
10.17
7.51
4.32
0.78
-2.78
-6.02
-8.72
-10.94
-12.98
-15.30
-18.30
-22.06
-26.34
-30.53
-33.89
-35.71
-35.47
-32.99
-28.40
-22.19
-15.05
-7.77
-1.10
4.44
8.62
11.46
13.16
13.97
14.14
13.86
13.33
12.78
12.42
12.41
12.78
13.37
14.00
14.47
14.68
14.61
14.28
13.70
12.77
11.42
9.59
7.31
4.68
1.80
-1.14
-3.97
-6.51
-8.61
-10.30
-11.76
-13.37
-15.53
-18.49
-22.26
-26.45
-30.39
-33.29
-34.36
-33.06
-29.22
-23.18
-15.68
-7.72
-0.29
5.90
10.49
13.52
15.24
16.02
16.21
16.15
16.11
16.25
16.61
17.09
17.55
17.87
17.98
17.92
17.70
17.30
16.70
15.88
14.88
13.77
12.57
11.21
9.49
7.23
4.37
1.07
-2.28
-5.27
-7.56
-9.06
-10.00
-10.77
-11.90
-13.79
-16.66
-20.41
-24.65
-28.73
-31.90
-33.42
-32.77
-29.78
-24.64
-17.94
-10.46
-3.07
3.51
8.81
12.64
15.06
16.28
16.60
16.29
15.61
14.77
13.96
13.35
13.07
13.18
13.61
14.15
14.52
14.47
13.90
12.93
11.78
10.70
9.78
8.88
7.74
6.11
3.93
1.29
-1.56
-4.36
-6.92
-9.18
-11.17
-13.00
-14.86
-16.90
-19.32
-22.22
-25.56
-29.05
-32.25
-34.55
-35.37
-34.25
-31.01
-25.82
-19.15
-11.76
-4.45
2.00
7.03
10.38
12.09
12.43
11.83
10.79
9.76
9.06
8.88
9.21
9.94
10.94
12.05
13.13
14.02
14.55
14.52
13.82
12.41
10.41
8.03
5.49
2.98
0.58
-1.75
-4.12
-6.64
-9.33
-12.13
-14.87
-17.38
-19.58
-21.60
-23.77
-26.45
-29.88
-33.92
-38.08
-41.62
-43.82
-44.26
-42.92
-40.03
-35.88
-30.62
-24.35
-17.30
-10.03
-3.34
2.12
6.26
9.64
13.00
16.48
19.10
18.81
13.51
2.25
-13.98
-32.55
-50.25
-64.64
-74.70
-80.72
-83.53
-83.92
-82.34
-79.17
-74.87
-70.02
-64.99
-59.78
-53.98
-47.13
-38.89
-29.15
-17.89
-5.03
9.43
25.23
41.68
57.74
72.51
85.72
97.82
109.57
121.48
133.34
144.33
153.55
160.53
165.38
168.37
169.31
167.35
161.31
150.51
135.52
118.27
101.31
86.72
75.19
65.95
57.47
48.43
38.43
27.99
18.04
9.35
2.29
-3.00
-6.32
-7.33
-5.73
-1.67
4.07
10.16
15.11
17.73
17.42
14.19
8.49
1.02
-7.40
-15.82
-23.24
-28.64
-31.22
-30.62
-26.97
-20.88
-13.32
-5.37
1.96
7.87
11.84
13.74
13.68
11.98
9.09
5.42
1.29
-3.11
-7.57
-11.96
-16.17
-20.18
-24.06
-27.91
-31.80
-35.64
-39.16
-42.04
-44.00
-44.92
-44.91
-44.22
-43.16
-41.97
-40.76
-39.57
-38.40
-37.24
-36.09
-35.00
-34.01
-33.11
-32.24
-31.19
-29.69
-27.38
-23.99
-19.42
-13.79
-7.38
-0.58
6.24
12.76
18.74
23.93
28.16
31.28
33.28
34.24
34.40
34.07
33.55
33.10
32.86
32.83
32.87
32.79
32.36
31.36
29.61
26.94
23.26
18.51
12.82
6.46
-0.12
-6.42
-12.01
-16.69
-20.59
-24.12
-27.79
-31.98
-36.81
-42.17
-47.74
-53.30
-58.69
-63.85
-68.69
-72.96
-76.22
-77.91
-77.61
-75.16
-70.77
-64.97
-58.42
-51.74
-45.35
-39.53
-34.41
-30.06
-26.56
-23.97
-22.26
-21.36
-21.05
-21.06
-21.06
-20.66
-19.46
-17.11
-13.47
-8.72
-3.42
1.63
5.64
8.09
8.92
8.43
7.14
5.48
3.66
1.58
-1.01
-4.35
-8.54
-13.42
-18.57
-23.39
-27.21
-29.51
-30.01
-28.67
-25.64
-21.15
-15.48
-8.91
-1.83
5.28
11.95
17.85
22.92
27.31
31.27
34.95
38.30
41.12
43.27
44.83
46.09
47.47
49.25
51.44
53.77
55.80
57.14
57.51
56.83
55.03
52.08
47.92
42.55
36.07
28.74
20.87
12.83
4.91
-2.65
-9.63
-15.87
-21.26
-25.75
-29.34
-32.00
-33.67
-34.21
-33.52
-31.61
-28.70
-25.11
-21.21
-17.24
-13.33
-9.48
-5.74
-2.22
0.86
3.32
5.06
6.16
6.82
7.27
7.71
8.29
9.04
9.96
11.02
12.12
13.13
13.84
14.05
13.50
12.06
9.71
6.60
3.05
-0.56
-3.89
-6.73
-9.08
-11.04
-12.69
-13.97
-14.57
-13.99
-11.74
-7.58
-1.60
5.77
14.07
23.05
32.87
44.08
57.24
72.59
89.74
107.62
124.63
139.01
148.99
152.93
149.50
137.96
118.56
92.95
64.01
35.29
10.09
-9.47
-22.83
-30.70
-34.38
-35.11
-33.74
-30.88
-27.28
-24.01
-22.38
-23.59
-28.34
-36.60
-47.62
-60.12
-72.61
-83.72
-92.40
-98.02
-100.41
-99.69
-96.21
-90.48
-83.16
-75.17
-67.55
-61.31
-57.10
-55.00
-54.50
-54.70
-54.75
-54.15
-52.92
-51.39
-49.98
-48.87
-47.91
-46.69
-44.77
-41.95
-38.31
-34.21
-30.06
-26.13
-22.46
-18.90
-15.26
-11.49
-7.75
-4.39
-1.77
-0.22
0.14
-0.68
-2.55
-5.29
-8.69
-12.50
-16.38
-19.93
-22.69
-24.19
-24.06
-22.04
-18.06
-12.30
-5.21
2.55
10.25
17.22
22.96
27.20
29.92
31.25
31.46
30.89
29.93
28.92
28.15
27.73
27.62
27.66
27.64
27.37
26.72
25.62
24.02
21.92
19.38
16.61
13.94
11.75
10.43
10.25
11.37
13.64
16.68
19.86
22.43
23.71
23.40
21.71
19.49
18.09
19.01
23.48
32.03
44.17
58.49
72.87
85.09
93.31
96.57
94.86
89.07
80.58
70.83
61.07
52.12
44.41
38.00
32.71
28.21
24.09
19.96
15.55
10.74
5.61
0.40
-4.63
-9.25
-13.45
-17.34
-21.19
-25.30
-29.90
-35.00
-40.38
-45.65
-50.33
-54.08
-56.77
-58.59
-59.97
-61.38
-63.21
-65.57
-68.28
-70.88
-72.79
-73.40
-72.26
-69.11
-63.99
-57.23
-49.42
-41.30
-33.61
-26.99
-21.79
-18.10
-15.69
-14.13
-12.93
-11.71
-10.22
-8.42
-6.31
-3.91
-1.13
2.17
6.23
11.20
17.10
23.68
30.38
36.37
40.63
42.21
40.47
35.38
27.50
17.87
7.67
-2.03
-10.53
-17.51
-22.91
-26.86
-29.61
-31.58
-33.34
-35.64
-39.19
-44.40
-51.21
-58.90
-66.12
-71.27
-72.82
-69.77
-61.87
-49.68
-34.39
-17.57
-0.76
14.62
27.52
37.28
43.59
46.46
46.20
43.40
39.03
34.27
30.46
28.69
29.50
32.67
37.24
41.95
45.68
47.85
48.62
48.68
49.02
50.52
53.59
57.95
62.70
66.45
67.89
66.22
61.45
54.40
46.23
38.00
30.36
23.41
17.19
11.88
7.97
6.05
6.40
8.62
11.67
14.19
15.00
13.49
9.80
4.64
-1.08
-6.55
-11.33
-15.21
-18.15
-20.06
-20.78
-20.15
-18.18
-15.15
-11.60
-8.16
-5.33
-3.31
-1.89
-0.52
1.38
4.18
7.74
11.39
14.16
15.08
13.59
9.72
4.06
-2.50
-9.15
-15.36
-20.89
-25.67
-29.49
-31.98
-32.63
-31.03
-27.02
-20.78
-12.78
-3.66
5.95
15.44
24.35
32.24
38.72
43.33
45.52
44.75
40.64
33.21
23.01
11.08
-1.31
-13.10
-23.67
-32.92
-41.14
-48.60
-55.39
-61.36
-66.24
-69.91
-72.45
-74.17
-75.43
-76.53
-77.57
-78.58
-79.55
-80.58
-81.85
-83.58
-85.82
-88.32
-90.54
-91.69
-90.95
-87.75
-81.86
-73.54
-63.43
-52.34
-41.12
-30.45
-20.75
-12.24
-4.95
1.17
6.24
10.41
13.81
16.60
18.94
21.01
23.00
25.10
27.46
30.14
33.13
36.22
39.12
41.50
43.04
43.54
42.95
41.40
39.15
36.55
33.98
31.73
29.82
28.02
25.88
22.85
18.62
13.28
7.50
2.38
-0.83
-1.11
1.99
8.22
16.60
25.66
33.75
39.43
41.91
41.18
38.03
33.67
29.32
25.89
23.76
22.94
23.17
24.10
25.28
26.10
25.84
23.89
20.05
14.63
8.40
2.25
-3.22
-7.85
-11.93
-15.91
-20.09
-24.46
-28.67
-32.33
-35.11
-37.01
-38.28
-39.37
-40.79
-42.89
-45.80
-49.32
-52.98
-56.06
-57.78
-57.47
-54.76
-49.68
-42.69
-34.49
-25.91
-17.69
-10.36
-4.28
0.42
3.74
5.83
6.90
7.20
6.92
6.18
5.03
3.52
1.79
0.06
-1.38
-2.40
-3.06
-3.65
-4.56
-6.14
-8.49
-11.50
-14.93
-18.42
-21.63
-24.30
-26.30
-27.68
-28.70
-29.82
-31.59
-34.43
-38.42
-43.15
-47.71
-50.94
-51.76
-49.58
-44.36
-36.69
-27.46
-17.62
-7.91
1.25
9.65
17.16
23.65
28.91
32.80
35.34
36.70
37.26
37.41
37.50
37.68
37.93
38.08
37.93
37.30
36.18
34.69
33.02
31.34
29.66
27.82
25.57
22.67
19.02
14.71
9.96
5.03
0.11
-4.76
-9.71
-14.94
-20.70
-27.18
-34.41
-42.21
-50.10
-57.29
-62.79
-65.54
-64.74
-60.03
-51.70
-40.63
-28.08
-15.40
-3.67
6.44
14.71
21.24
26.25
29.95
32.49
34.00
34.66
34.77
34.77
35.04
35.88
37.36
39.34
41.57
43.74
45.60
46.92
47.55
47.35
46.26
44.34
41.69
38.48
34.84
30.89
26.69
22.31
17.87
13.51
9.31
5.30
1.39
-2.58
-6.83
-11.55
-16.93
-23.08
-29.93
-37.11
-43.84
-49.02
-51.45
-50.17
-44.83
-35.84
-24.23
-11.40
1.31
12.91
22.92
31.19
37.75
42.69
46.11
48.19
49.23
49.72
50.16
50.97
52.35
54.26
56.53
58.90
61.11
62.97
64.34
65.11
65.16
64.42
62.85
60.46
57.34
53.65
49.55
45.18
40.62
35.87
30.88
25.63
20.17
14.67
9.35
4.40
-0.08
-4.23
-8.34
-12.84
-18.11
-24.40
-31.73
-39.74
-47.79
-54.85
-59.78
-61.50
-59.27
-52.96
-43.10
-30.72
-17.10
-3.53
8.97
19.66
28.06
33.94
37.30
38.42
37.83
36.20
34.26
32.55
31.48
31.19
31.71
32.91
34.57
36.34
37.80
