1520262324.00
64.000000
-0.00
-0.00
-0.00
-0.00
-0.00
-0.00
-0.00
-0.00
-0.00
-0.00
0.00
0.01
0.01
-0.00
-0.03
-0.05
-0.05
0.00
0.13
0.36
0.66
1.01
1.37
1.72
2.06
2.40
2.79
3.24
3.80
4.42
5.06
5.66
6.20
6.68
7.15
7.68
8.31
9.14
10.09
11.04
11.88
12.56
13.14
13.76
14.65
15.96
17.91
20.32
22.90
25.38
27.58
29.57
31.68
34.32
37.81
42.54
48.15
54.10
59.83
64.97
69.58
74.14
79.34
85.71
93.76
103.00
112.62
121.73
129.77
136.75
143.30
150.75
157.77
166.64
177.95
191.79
206.97
220.57
228.25
225.36
208.53
176.87
132.76
80.05
23.07
-34.94
-92.44
-149.16
-205.23
-260.37
-313.74
-363.87
-409.83
-450.91
-486.50
-515.74
-537.23
-549.22
-549.96
-538.37
-514.21
-478.67
-433.88
-382.45
-327.02
-269.84
-212.63
-156.66
-102.95
-52.37
-5.90
35.58
71.43
101.35
125.50
144.38
158.69
169.15
176.37
180.75
182.57
182.07
179.51
175.23
169.65
163.18
156.15
148.81
141.30
133.69
126.02
118.33
110.69
103.16
95.80
88.68
81.83
75.25
68.95
62.95
57.25
51.86
46.78
42.03
37.59
33.45
29.61
26.07
22.81
19.83
17.11
14.67
12.48
10.54
8.83
7.35
6.07
4.97
4.05
3.27
2.62
2.09
1.65
1.30
1.01
0.79
0.61
0.47
0.37
0.28
0.22
0.18
0.14
0.12
0.11
0.11
0.11
0.12
0.14
0.16
0.19
0.22
0.26
0.30
0.34
0.38
0.43
0.47
0.52
0.57
0.62
0.68
0.73
0.79
0.86
0.94
1.04
1.14
1.25
1.35
1.43
1.49
1.55
1.63
1.74
1.91
2.13
2.40
2.68
2.95
3.23
3.51
3.82
4.21
4.68
5.23
5.82
6.41
6.95
7.45
7.93
8.46
9.11
9.93
10.87
11.86
12.78
13.53
14.11
14.59
15.11
15.84
16.80
17.85
18.69
18.96
18.29
16.54
13.80
10.34
6.51
2.55
-1.55
-5.97
-10.94
-16.60
-22.82
-29.13
-34.86
-39.48
-42.64
-44.44
-45.28
-45.68
-46.16
-47.16
-49.05
-51.99
-55.58
-58.67
-59.47
-56.05
-47.32
-33.71
-17.23
-0.79
12.99
22.69
28.34
31.04
32.02
32.11
31.47
30.03
27.83
25.15
22.48
20.21
18.40
16.78
14.97
12.65
9.83
6.95
4.75
3.93
4.85
7.28
10.44
13.33
15.18
15.72
15.22
14.24
13.24
12.38
11.53
10.43
8.90
6.97
4.84
2.76
0.87
-0.78
-2.36
-4.09
-6.00
-8.12
-10.34
-12.53
-14.53
-16.37
-18.23
-20.37
-22.96
-25.98
-29.13
-31.91
-33.79
-34.31
-33.17
-30.23
-25.47
-19.09
-11.42
-3.08
5.18
12.62
18.73
23.28
26.44
28.54
29.81
30.34
29.98
28.61
26.29
23.42
20.59
18.43
17.34
17.44
18.64
20.69
23.36
26.33
29.31
31.81
33.45
34.06
33.79
32.98
31.93
30.62
28.61
25.32
20.32
13.62
5.68
-2.74
-10.93
-18.41
-24.97
-30.62
-35.35
-39.14
-41.98
-43.92
-45.21
-46.10
-46.77
-47.17
-46.92
-45.43
-42.14
-36.76
-29.44
-20.88
-12.00
-3.73
3.27
8.74
12.76
15.61
17.57
18.82
19.47
19.58
19.26
18.58
17.65
16.51
15.23
13.94
12.87
12.18
11.99
12.26
12.88
13.73
14.75
15.90
16.99
17.69
17.50
15.95
12.86
8.43
3.22
-2.15
-7.17
-11.66
-15.76
-19.70
-23.68
-27.72
-31.65
-35.12
-37.71
-38.98
-38.51
-35.99
-31.32
-24.69
-16.63
-7.94
0.46
7.76
13.42
17.22
19.18
19.53
18.59
16.78
14.59
12.53
11.03
10.34
10.45
11.15
12.10
13.00
13.68
14.09
14.23
14.15
13.86
13.37
12.59
11.41
9.65
7.23
4.17
0.67
-2.89
-6.16
-8.91
-11.17
-13.22
-15.54
-18.56
-22.50
-27.24
-32.22
-36.64
-39.62
-40.45
-38.78
-34.66
-28.52
-20.99
-12.83
-4.78
2.57
8.82
13.80
17.61
20.47
22.62
24.21
25.18
25.42
24.79
23.28
20.99
18.17
15.17
12.45
10.45
9.52
9.76
10.95
12.55
13.98
14.78
14.81
14.26
13.43
12.59
11.79
10.96
9.99
8.77
7.25
5.40
3.16
0.53
-2.46
-5.69
-9.05
-12.51
-16.15
-20.15
-24.60
-29.39
-34.11
-38.12
-40.62
-40.94
-38.65
-33.77
-26.77
-18.52
-10.07
-2.35
3.98
8.69
11.87
13.80
14.78
15.11
15.02
14.70
14.34
14.06
13.90
13.81
13.74
13.63
13.49
13.33
13.15
12.95
12.74
12.57
12.43
12.26
11.87
10.98
9.44
7.27
4.71
2.12
-0.18
-2.10
-3.75
-5.35
-7.05
-8.88
-10.76
-12.63
-14.60
-16.92
-19.86
-23.64
-28.18
-33.09
-37.63
-40.88
-41.95
-40.29
-35.87
-29.19
-21.22
-12.97
-5.25
1.54
7.31
12.16
16.13
19.15
21.18
22.26
22.60
22.52
22.28
22.03
21.82
21.66
21.55
21.52
21.55
21.57
21.47
21.15
20.61
19.90
19.10
18.22
17.16
15.80
14.11
12.14
10.07
8.04
6.12
4.20
2.09
-0.38
-3.23
-6.29
-9.25
-11.87
-14.14
-16.31
-18.80
-21.97
-25.93
-30.43
-34.91
-38.68
-41.03
-41.48
-39.75
-35.86
-30.12
-23.08
-15.46
-8.00
-1.25
4.51
9.27
13.23
16.57
19.34
21.42
22.55
22.64
21.81
20.45
19.13
18.36
18.41
19.22
20.54
22.02
23.36
24.39
25.12
25.63
25.96
26.09
25.90
25.23
23.94
22.03
19.63
16.96
14.22
11.52
8.80
5.99
3.05
0.09
-2.70
-5.08
-7.00
-8.58
-10.12
-11.97
-14.42
-17.62
-21.52
-25.95
-30.52
-34.67
-37.73
-39.04
-38.13
-34.90
-29.63
-22.90
-15.46
-7.98
-1.06
4.94
9.79
13.39
15.77
17.09
17.65
17.83
18.03
18.51
19.31
20.18
20.76
20.71
19.97
18.71
17.23
15.77
14.36
12.77
10.76
8.23
5.35
2.53
0.19
-1.50
-2.64
-3.59
-4.74
-6.31
-8.30
-10.55
-12.90
-15.26
-17.61
-19.93
-22.09
-23.85
-25.02
-25.57
-25.80
-26.15
-27.00
-28.43
-30.06
-31.14
-30.89
-28.75
-24.63
-18.88
-12.17
-5.26
1.19
6.77
11.27
14.69
17.13
18.78
19.86
20.62
21.22
21.82
22.47
23.17
23.89
24.59
25.20
25.68
25.91
25.78
25.18
24.09
22.61
20.91
19.24
17.81
16.72
15.96
15.43
14.99
14.52
13.95
13.22
12.31
11.25
10.15
9.10
8.19
7.37
6.37
4.81
2.35
-1.12
-5.30
-9.49
-12.88
-14.74
-14.72
-12.91
-9.70
-5.70
-1.50
2.41
5.66
7.99
9.37
9.95
10.13
10.42
11.11
12.16
13.15
13.52
12.89
11.43
9.71
8.47
8.21
8.91
10.08
11.00
11.00
9.54
6.21
0.82
-6.60
-15.50
-24.81
-33.09
-38.95
-41.59
-41.01
-38.13
-34.36
-31.20
-29.90
-31.27
-35.61
-42.77
-52.10
-62.57
-72.93
-81.88
-88.45
-92.18
-93.22
-92.18
-89.92
-87.32
-85.10
-83.88
-84.13
-86.27
-90.47
-96.61
-104.24
-112.59
-120.84
-128.40
-134.94
-140.37
-144.65
-147.56
-148.46
-146.28
-139.66
-127.13
-107.53
-80.47
-46.76
-8.53
31.08
68.55
100.79
125.75
142.61
151.62
153.73
150.20
142.42
131.82
119.82
107.66
96.32
86.29
77.63
70.16
63.68
58.21
54.05
51.64
51.25
52.78
55.58
58.54
60.38
60.08
57.20
52.10
45.73
39.29
33.78
29.58
26.30
23.08
18.84
12.94
5.53
-2.38
-9.04
-12.41
-10.65
-2.76
10.89
28.19
45.53
58.67
64.08
60.33
48.66
32.61
16.56
4.13
-3.06
-5.51
-5.10
-3.91
-3.28
-3.57
-4.38
-5.11
-5.20
-4.37
-2.43
0.71
5.08
10.70
17.39
24.69
31.76
37.38
40.15
39.04
33.92
25.89
17.08
9.86
5.90
5.51
7.55
10.08
11.27
10.22
7.16
3.16
-0.58
-3.24
-4.77
-5.76
-7.14
-9.69
-13.71
-18.92
-24.66
-30.18
-34.83
-38.21
-40.04
-40.07
-38.09
-34.07
-28.28
-21.34
-14.06
-7.14
-1.00
4.32
8.97
13.12
16.82
20.00
22.56
24.46
25.77
26.57
26.96
26.96
26.50
25.56
24.11
22.25
20.24
18.39
16.97
16.00
15.28
14.40
13.06
11.20
9.01
6.79
4.70
2.63
0.26
-2.73
-6.42
-10.47
-14.27
-17.11
-18.43
-18.01
-15.93
-12.52
-8.18
-3.37
1.52
6.17
10.40
14.09
17.15
19.46
20.90
21.35
20.85
19.61
18.00
16.43
15.16
14.25
13.61
13.08
12.59
12.19
11.91
11.71
11.46
10.99
10.16
8.96
7.43
5.63
3.53
1.05
-1.99
-5.69
-10.09
-15.02
-20.15
-24.93
-28.70
-30.82
-30.81
-28.48
-24.10
-18.30
-11.99
-6.11
-1.34
2.01
4.01
5.01
5.35
5.27
4.76
3.71
2.02
-0.22
-2.77
-5.22
-7.17
-8.28
-8.31
-7.17
-4.96
-2.04
0.94
3.23
4.29
3.94
2.47
0.39
-1.90
-4.27
-6.86
-9.85
-13.23
-16.66
-19.66
-21.82
-22.91
-22.84
-21.57
-18.99
-15.04
-9.91
-4.12
1.55
6.39
9.99
12.40
13.91
14.84
15.35
15.43
15.06
14.30
13.38
12.58
12.06
11.78
11.49
10.98
10.11
8.98
7.80
6.82
6.14
5.64
5.10
4.24
2.88
1.05
-1.10
-3.41
-5.87
-8.61
-11.86
-15.68
-19.84
-23.73
-26.51
-27.37
-25.84
-22.00
-16.46
-10.17
-4.02
1.37
5.78
9.32
12.14
14.32
15.81
16.52
16.47
15.90
15.15
14.55
14.26
14.20
14.19
14.08
13.83
13.50
13.26
13.15
13.08
12.84
12.16
10.80
8.75
6.20
3.52
1.10
-0.83
-2.31
-3.65
-5.21
-7.31
-10.03
-13.27
-16.82
-20.34
-23.42
-25.53
-26.13
-24.81
-21.51
-16.58
-10.73
-4.78
0.59
5.03
8.49
11.12
13.15
14.81
16.19
17.25
17.88
17.88
17.16
15.82
14.14
12.56
11.43
10.91
10.93
11.27
11.70
12.04
12.23
12.19
11.82
10.98
9.53
7.47
4.96
2.25
-0.41
-2.84
-4.97
-6.86
-8.58
-10.27
-12.10
-14.27
-16.95
-20.17
-23.69
-27.01
-29.40
-30.21
-29.07
-26.05
-21.64
-16.50
-11.23
-6.19
-1.53
2.67
6.37
9.46
11.83
13.44
14.36
14.70
14.64
14.29
13.81
13.31
12.93
12.79
12.91
13.24
13.61
13.85
13.83
13.50
12.91
12.11
11.20
10.17
8.98
7.52
5.69
3.49
1.01
-1.54
-3.94
-6.01
-7.71
-9.12
-10.39
-11.71
-13.26
-15.13
-17.34
-19.78
-22.23
-24.31
-25.61
-25.70
-24.31
-21.37
-17.05
-11.72
-5.88
-0.07
5.19
9.53
12.80
15.08
16.61
17.65
18.40
18.86
18.94
18.54
17.65
16.43
15.14
13.98
13.08
12.46
12.05
11.84
11.85
12.12
12.60
13.09
13.22
12.51
10.61
7.46
3.34
-1.12
-5.24
-8.51
-10.77
-12.24
-13.35
-14.54
-16.10
-18.15
-20.67
-23.62
-26.85
-30.09
-32.87
-34.59
-34.76
-33.15
-29.94
-25.63
-20.91
-16.33
-12.27
-8.86
-6.10
-3.92
-2.24
-0.98
-0.05
0.62
1.03
1.14
0.88
0.25
-0.54
-1.17
-1.30
-0.75
0.39
1.83
3.17
4.15
4.70
4.86
4.70
4.21
3.27
1.76
-0.29
-2.74
-5.33
-7.81
-10.08
-12.15
-14.20
-16.41
-18.85
-21.42
-23.73
-25.16
-25.06
-23.00
-18.98
-13.55
-7.60
-2.10
2.26
5.35
7.44
9.05
10.53
11.98
13.23
14.04
14.25
13.90
13.20
12.37
11.52
10.65
9.73
8.71
7.67
6.83
6.39
6.49
7.02
7.64
7.87
7.26
5.59
2.99
-0.11
-3.20
-5.89
-8.03
-9.77
-11.38
-13.16
-15.28
-17.82
-20.69
-23.72
-26.53
-28.66
-29.57
-28.82
-26.24
-22.06
-16.79
-11.09
-5.56
-0.55
3.74
7.25
9.92
11.73
12.70
12.99
12.86
12.62
12.48
12.48
12.49
12.35
11.91
11.18
10.32
9.54
9.00
8.78
8.78
8.89
8.94
8.84
8.50
7.82
6.63
4.78
2.24
-0.75
-3.73
-6.20
-7.78
-8.48
-8.71
-9.06
-10.05
-11.93
-14.61
-17.75
-20.91
-23.59
-25.27
-25.42
-23.67
-19.89
-14.38
-7.87
-1.31
4.46
8.91
11.99
13.99
15.34
16.39
17.26
17.88
18.10
17.81
17.04
15.94
14.76
13.71
12.91
12.38
12.07
11.93
11.87
11.84
11.73
11.44
10.79
9.66
8.03
5.99
3.73
1.42
-0.81
-2.95
-5.04
-7.11
-9.17
-11.20
-13.19
-15.17
-17.28
-19.65
-22.43
-25.56
-28.83
-31.78
-33.84
-34.45
-33.23
-30.10
-25.35
-19.52
-13.27
-7.23
-1.84
2.68
6.29
9.12
11.30
12.98
14.16
14.81
14.88
14.43
13.66
12.90
12.49
12.65
13.39
14.44
15.46
16.12
16.22
15.80
15.01
14.05
13.07
12.10
11.07
9.86
8.37
6.56
4.52
2.34
0.12
-2.08
-4.26
-6.43
-8.64
-10.97
-13.58
-16.60
-20.11
-23.92
-27.63
-30.67
-32.48
-32.70
-31.27
-28.32
-24.13
-19.00
-13.24
-7.24
-1.45
3.65
7.71
10.58
12.38
13.39
13.90
14.12
14.12
13.95
13.62
13.17
12.64
12.09
11.58
11.17
10.97
11.06
11.41
11.87
12.22
12.21
11.72
10.67
9.08
6.98
4.43
1.57
-1.33
-3.90
-5.83
-7.01
-7.63
-8.16
-9.10
-10.81
-13.35
-16.51
-19.91
-23.14
-25.83
-27.68
-28.40
-27.73
-25.49
-21.75
-16.83
-11.29
-5.79
-0.77
3.57
7.32
10.68
13.74
16.32
18.11
18.85
18.50
17.41
16.11
15.10
14.65
14.76
15.26
15.96
16.80
17.75
18.73
19.59
20.02
19.82
18.88
17.34
15.44
13.39
11.28
9.03
6.53
3.79
0.92
-1.80
-4.10
-5.81
-6.96
-7.80
-8.75
-10.29
-12.78
-16.35
-20.75
-25.41
-29.57
-32.44
-33.46
-32.40
-29.36
-24.72
-18.98
-12.73
-6.50
-0.68
4.44
8.73
12.13
14.63
16.29
17.18
17.46
17.34
17.01
16.58
16.08
15.51
14.91
14.40
14.22
14.52
15.30
16.33
17.22
17.59
17.25
16.22
14.72
12.98
11.18
9.28
7.13
4.61
1.76
-1.17
-3.88
-6.12
-7.91
-9.49
-11.27
-13.57
-16.52
-20.05
-23.95
-27.94
-31.71
-34.87
-36.89
-37.21
-35.40
-31.37
-25.50
-18.58
-11.49
-5.00
0.47
4.83
8.21
10.83
12.89
14.48
15.62
16.31
16.50
16.20
15.52
14.74
14.16
14.03
14.42
15.16
15.98
16.65
17.09
17.40
17.65
17.78
17.61
16.86
15.42
13.36
10.92
8.37
5.82
3.27
0.66
-2.01
-4.61
-6.97
-8.99
-10.73
-12.45
-14.51
-17.15
-20.40
-24.02
-27.55
-30.44
-32.20
-32.42
-30.88
-27.49
-22.40
-15.99
-8.91
-1.94
4.22
9.16
12.79
15.38
17.23
18.55
19.39
19.61
19.16
18.15
16.86
15.68
14.87
14.54
14.62
15.03
15.74
16.74
18.01
19.38
20.53
21.05
20.67
19.31
17.24
14.85
12.49
10.35
8.38
6.40
4.27
1.99
-0.32
-2.42
-4.19
-5.58
-6.77
-8.04
-9.73
-12.07
-15.13
-18.75
-22.57
-26.10
-28.81
-30.19
-29.82
-27.54
-23.41
-17.86
-11.59
-5.40
-0.02
4.13
6.95
8.60
9.37
9.47
9.09
8.39
7.61
6.97
6.69
6.82
7.24
7.74
8.15
8.43
8.62
8.84
9.15
9.50
9.79
9.85
9.55
8.82
7.62
6.01
4.10
2.06
0.05
-1.80
-3.48
-5.00
-6.45
-7.91
-9.46
-11.19
-13.20
-15.62
-18.48
-21.65
-24.77
-27.36
-28.85
-28.84
-27.19
-24.05
-19.76
-14.71
-9.31
-3.87
1.38
6.17
10.28
13.53
15.80
17.08
17.41
16.95
15.91
14.47
12.85
11.23
9.76
8.59
7.86
7.72
8.24
9.35
10.76
12.05
12.75
12.50
11.21
9.02
6.27
3.38
0.75
-1.35
-2.85
-3.91
-4.91
-6.27
-8.35
-11.25
-14.84
-18.72
-22.35
-25.21
-26.82
-26.86
-25.19
-21.92
-17.35
-11.93
-6.20
-0.60
4.46
8.70
11.97
14.25
15.68
16.53
17.06
17.42
17.62
17.53
17.12
16.47
15.79
15.29
15.06
15.01
14.97
14.82
14.58
14.35
14.24
14.19
14.03
13.52
12.48
10.85
8.69
6.18
3.51
0.81
-1.80
-4.24
-6.48
-8.53
-10.41
-12.21
-14.01
-15.97
-18.22
-20.81
-23.68
-26.54
-28.93
-30.24
-29.92
-27.62
-23.43
-17.85
-11.69
-5.83
-0.91
2.82
5.55
7.63
9.37
10.81
11.87
12.49
12.78
13.02
13.45
14.12
14.75
14.99
14.57
13.58
12.45
11.71
11.72
12.49
13.63
14.58
14.84
14.18
12.72
10.80
8.79
6.92
5.21
3.50
1.58
-0.59
-2.89
-5.05
-6.78
-8.00
-8.82
-9.53
-10.54
-12.15
-14.53
-17.64
-21.30
-25.15
-28.75
-31.59
-33.19
-33.18
-31.31
-27.61
-22.40
-16.26
-9.95
-4.20
0.40
3.62
5.62
6.83
7.77
8.78
9.96
11.15
12.11
12.71
13.05
13.34
13.84
14.69
15.72
16.65
17.17
17.13
16.66
16.07
15.63
15.44
15.33
14.96
14.02
12.41
10.31
8.06
5.99
4.25
2.74
1.26
-0.36
-2.15
-4.00
-5.76
-7.40
-9.00
-10.73
-12.75
-15.11
-17.72
-20.45
-23.09
-25.46
-27.30
-28.33
-28.16
-26.54
-23.37
-18.86
-13.52
-8.02
-2.99
1.18
4.41
6.93
9.11
11.19
13.27
15.20
16.76
17.79
18.35
18.59
18.77
19.05
19.38
19.61
19.57
19.24
18.71
18.19
17.83
17.64
17.49
17.15
16.43
15.26
13.66
11.74
9.66
7.57
5.54
3.59
1.62
-0.47
-2.73
-5.11
-7.41
-9.36
-10.77
-11.69
-12.42
-13.49
-15.34
-18.18
-21.86
-25.87
-29.52
-32.12
-33.15
-32.36
-29.81
-25.84
-21.00
-15.90
-11.06
-6.88
-3.53
-0.95
1.10
2.88
4.64
6.47
8.24
9.75
10.78
11.22
11.20
10.96
10.75
10.73
10.85
10.95
10.83
10.43
9.80
9.07
8.34
7.63
6.87
5.97
4.87
3.53
2.00
0.34
-1.31
-2.80
-3.95
-4.71
-5.16
-5.55
-6.17
-7.34
-9.17
-11.62
-14.38
-17.02
-19.03
-19.94
-19.50
-17.66
-14.64
-10.79
-6.60
-2.46
1.36
4.67
7.41
9.61
11.33
12.67
13.74
14.52
14.96
14.93
14.37
13.38
12.22
11.23
10.68
10.59
10.76
10.94
10.94
10.77
10.59
10.52
10.51
10.31
9.60
8.20
6.19
3.90
1.72
-0.12
-1.61
-2.99
-4.49
-6.20
-8.09
-10.03
-11.95
-13.94
-16.20
-18.90
-22.01
-25.15
-27.70
-28.98
-28.52
-26.24
-22.45
-17.74
-12.73
-7.93
-3.61
0.14
3.34
6.07
8.37
10.28
11.82
12.99
13.77
14.18
14.23
14.01
13.62
13.19
12.86
12.78
13.08
13.79
14.80
15.83
16.51
16.50
15.70
14.25
12.54
10.95
9.67
8.68
7.80
6.79
5.52
3.99
2.27
0.41
-1.58
-3.69
-5.80
-7.73
-9.28
-10.39
-11.20
-12.05
-13.33
-15.26
-17.85
-20.83
-23.75
-26.09
-27.38
-27.29
-25.69
-22.66
-18.49
-13.61
-8.53
-3.77
0.27
3.36
5.50
6.92
7.95
8.87
9.77
10.60
11.19
11.44
11.41
11.34
11.47
11.90
12.55
13.16
13.50
13.46
13.13
12.69
12.35
12.16
12.05
11.87
11.46
10.67
9.42
7.72
5.63
3.31
0.91
-1.39
-3.44
-5.16
-6.52
-7.56
-8.36
-9.09
-9.96
-11.16
-12.79
-14.83
-17.18
-19.66
-22.06
-24.21
-25.92
-26.95
-27.03
-25.92
-23.43
-19.64
-14.87
-9.68
-4.67
-0.26
3.40
6.44
9.05
11.35
13.25
14.51
14.92
14.55
13.70
12.81
12.23
12.07
12.14
12.19
12.07
11.83
11.68
11.80
12.20
12.71
13.02
12.91
12.31
11.38
10.39
9.55
8.90
8.31
7.57
6.49
5.06
3.44
1.88
0.55
-0.46
-1.24
-2.01
-3.04
-4.60
-6.86
-9.87
-13.52
-17.49
-21.31
-24.46
-26.50
-27.17
-26.40
-24.30
-21.09
-17.06
-12.58
-8.07
-3.93
-0.51
1.99
3.53
4.22
4.24
3.84
3.25
2.68
2.26
2.10
2.17
2.42
2.81
3.29
3.84
4.44
5.00
5.40
5.53
5.30
4.72
3.88
2.86
1.69
0.31
-1.35
-3.33
-5.51
-7.69
-9.63
-11.20
-12.44
-13.59
-14.94
-16.80
-19.27
-22.19
-25.20
-27.79
-29.41
-29.60
-28.13
-25.05
-20.71
-15.63
-10.35
-5.28
-0.61
3.60
7.30
10.42
12.82
14.39
15.18
15.33
15.07
14.63
14.13
13.62
13.11
12.71
12.57
12.89
13.74
15.01
16.34
17.31
17.60
17.09
15.85
14.11
12.06
9.77
7.26
4.59
1.90
-0.59
-2.79
-4.85
-7.17
-10.21
-14.24
-19.09
-24.20
-28.70
-31.81
-32.99
-32.13
-29.39
-25.21
-20.08
-14.50
-8.95
-3.84
0.52
3.95
6.45
8.10
9.12
9.72
10.14
10.57
11.12
11.82
12.54
13.12
13.40
13.28
12.85
12.32
11.93
11.90
12.27
12.89
13.42
13.40
12.44
10.40
7.44
4.03
0.74
-1.95
-3.84
-5.03
-5.87
-6.78
-8.13
-10.13
-12.77
-15.87
-19.05
-21.74
-23.40
-23.59
-22.14
-19.22
-15.29
-10.91
-6.59
-2.68
0.67
3.48
5.87
7.95
9.81
11.47
12.90
14.04
14.79
15.07
14.84
14.14
13.11
11.93
10.81
9.88
9.21
8.84
8.73
8.82
8.99
9.02
8.69
7.80
6.30
4.28
1.97
-0.40
-2.65
-4.67
-6.41
-7.91
-9.29
-10.79
-12.68
-15.11
-17.95
-20.76
-22.88
-23.62
-22.52
-19.48
-14.74
-8.90
-2.64
3.34
8.53
12.69
15.84
18.18
20.00
21.52
22.83
23.89
24.61
24.94
24.92
24.63
24.18
23.63
23.02
22.39
21.83
21.42
21.20
21.11
20.99
20.56
19.62
18.01
15.67
12.67
9.14
5.25
1.22
-2.74
-6.47
-9.85
-12.87
-15.61
-18.23
-20.96
-23.99
-27.40
-31.11
-34.86
-38.19
-40.60
-41.62
-40.97
-38.58
-34.66
-29.64
-24.07
-18.55
-13.60
-9.52
-6.39
-4.03
-2.20
-0.67
0.63
1.67
2.40
2.84
3.14
3.44
3.86
4.38
4.92
5.37
5.69
5.92
6.14
6.44
6.83
7.18
7.30
6.95
5.97
4.45
2.61
0.82
-0.61
-1.61
-2.38
-3.37
-5.02
-7.63
-11.18
-15.37
-19.68
-23.44
-26.06
-26.99
-26.00
-23.09
-18.61
-13.10
-7.24
-1.67
3.14
6.89
9.53
11.19
12.08
12.44
12.42
12.11
11.54
10.81
10.04
9.42
9.03
8.87
8.84
8.83
8.78
8.74
8.74
8.76
8.67
8.24
7.31
5.74
3.49
0.67
-2.52
-5.70
-8.39
-10.07
-10.45
-9.62
-8.09
-6.62
-5.88
-6.04
-6.68
-6.93
-5.83
-2.85
2.00
8.16
14.80
21.05
26.12
29.36
30.30
28.79
25.15
20.17
14.91
10.40
7.26
5.57
4.85
4.47
3.92
3.02
1.89
0.79
-0.11
-0.79
-1.39
-2.10
-3.08
-4.43
-6.15
-8.13
-10.24
-12.34
-14.26
-15.85
-16.95
-17.41
-17.28
-16.83
-16.54
-16.99
-18.66
-21.67
-25.69
-30.01
-33.71
-35.97
-36.26
-34.44
-30.68
-25.42
-19.22
-12.77
-6.76
-1.78
1.77
3.82
4.58
4.48
3.92
3.19
2.37
1.45
0.38
-0.80
-1.99
-3.02
-3.82
-4.34
-4.57
-4.48
-4.04
-3.25
-2.16
-0.93
0.34
1.60
2.94
4.40
6.05
7.87
9.85
12.02
14.50
17.37
20.53
23.69
26.44
28.53
29.94
31.01
32.21
33.87
36.11
38.89
42.24
46.40
51.76
58.46
66.09
73.57
79.40
82.21
81.30
76.76
69.34
60.05
49.74
38.97
28.10
17.38
7.08
-2.57
-11.45
-19.48
-26.55
-32.47
-37.03
-40.17
-42.12
-43.21
-43.71
-43.67
-42.94
-41.54
-39.92
-39.03
-39.84
-42.73
-47.17
-51.89
-55.46
-56.99
-56.26
-53.51
-48.93
-42.51
-34.28
-24.87
-15.77
-9.13
-6.87
-9.83
-17.27
-27.20
-37.16
-45.11
-49.98
-51.65
-50.60
-47.43
-42.63
-36.49
-29.26
-21.23
-12.75
-4.11
4.63
13.58
22.83
32.24
41.25
48.96
54.51
57.45
57.99
56.90
55.20
53.74
52.92
52.75
53.01
53.52
54.13
54.61
54.64
53.81
51.80
48.56
44.38
39.74
35.07
30.56
26.18
21.71
17.02
12.16
7.41
3.12
-0.40
-3.10
-5.17
-7.03
-9.15
-11.88
-15.31
-19.21
-23.10
-26.41
-28.58
-29.21
-28.13
-25.44
-21.55
-17.04
-12.57
-8.66
-5.51
-3.01
-0.83
1.36
3.70
6.08
8.22
9.83
10.77
11.07
10.90
10.45
9.86
9.23
8.61
8.08
7.70
7.56
7.69
8.05
8.49
8.77
8.60
7.75
6.14
3.88
1.28
-1.31
-3.55
-5.30
-6.65
-7.97
-9.71
-12.26
-15.72
-19.79
-23.85
-27.10
-28.89
-28.89
-27.17
-24.19
-20.59
-16.99
-13.82
-11.19
-8.97
-6.86
-4.53
-1.92
0.79
3.08
4.28
3.80
1.44
-2.38
-6.50
-9.10
-8.19
-2.37
8.51
22.89
37.73
49.40
54.90
52.96
44.46
32.04
18.96
7.93
0.25
-4.28
-6.82
-8.70
-10.84
-13.52
-16.61
-19.89
-23.25
-26.72
-30.24
-33.51
-36.02
-37.24
-36.83
-34.79
-31.40
-27.05
-22.11
-16.73
-10.93
-4.63
2.11
9.14
16.06
22.46
27.90
32.17
35.31
37.49
38.75
38.79
36.92
32.48
25.25
15.86
5.72
-3.41
-10.14
-13.96
-15.32
-15.33
-15.20
-15.87
-17.82
-21.30
-26.36
-32.94
-40.61
-48.56
-55.75
-61.18
-64.31
-65.23
-64.51
-62.92
-61.10
-59.28
-57.30
-54.66
-50.74
-44.96
-37.02
-27.14
-16.14
-5.34
3.79
10.18
13.47
14.13
13.29
12.22
12.00
13.23
16.00
20.10
25.15
30.71
36.25
41.10
44.52
45.84
44.68
41.20
36.08
30.27
24.70
19.92
15.97
12.56
9.34
6.13
3.02
0.23
-2.02
-3.52
-4.01
-3.04
-0.20
4.59
10.80
17.20
22.29
24.85
24.41
21.42
16.88
11.86
7.14
3.06
-0.25
-2.63
-3.81
-3.48
-1.60
1.55
5.29
8.80
11.47
13.03
13.70
14.03
14.62
15.87
17.74
19.84
21.66
22.89
23.60
24.19
25.04
26.24
27.42
27.93
27.21
25.11
22.04
18.78
16.08
14.36
13.51
13.00
12.24
10.78
8.53
5.72
2.76
0.07
-2.08
-3.66
-4.86
-5.99
-7.44
-9.53
-12.45
-16.19
-20.51
-24.95
-29.01
-32.22
-34.34
-35.36
-35.47
-34.93
-33.97
-32.59
-30.61
-27.74
-23.70
-18.42
-12.16
-5.53
0.64
5.49
8.36
8.95
7.41
4.26
0.23
-3.92
-7.56
-10.30
-12.08
-13.02
-13.36
-13.29
-12.90
-12.14
-10.92
-9.25
-7.28
-5.30
-3.66
-2.62
-2.32
-2.79
-3.97
-5.80
-8.28
-11.40
-15.08
-19.08
-23.00
-26.34
-28.58
-29.34
-28.45
-26.02
-22.40
-18.15
-13.93
-10.27
-7.46
-5.45
-3.92
-2.50
-1.03
0.42
1.59
2.28
2.61
2.91
3.55
4.67
5.99
7.04
7.43
7.19
6.80
6.99
8.32
10.86
14.13
17.37
19.84
21.21
21.61
21.49
21.36
21.54
22.10
22.89
23.72
24.41
24.90
25.10
24.83
23.88
22.05
19.30
15.89
12.29
9.09
6.85
5.86
6.12
7.41
9.30
11.33
13.07
14.31
15.06
15.65
16.56
18.17
20.69
24.02
27.77
31.51
34.88
37.73
40.16
42.50
45.16
48.59
53.07
58.62
64.89
71.20
76.61
80.27
81.70
80.93
78.49
75.09
71.37
67.64
63.75
59.13
53.06
44.99
34.93
23.55
12.10
2.01
-5.63
-10.48
-13.11
-14.78
-16.93
-20.62
-26.14
-32.94
-39.96
-46.05
-50.35
-52.56
-52.90
-52.00
-50.60
-49.35
-48.66
-48.71
-49.43
-50.65
-52.11
-53.49
-54.50
-54.91
-54.64
-53.76
-52.48
-50.99
-49.40
-47.65
-45.56
-42.85
-39.24
-34.60
-28.99
-22.76
-16.47
-10.84
-6.43
-3.53
-1.98
-1.25
-0.67
0.28
1.85
3.89
6.04
7.82
8.78
8.56
6.92
3.72
-1.17
-7.83
-16.37
-26.95
