1520866414.00
64.000000
-0.00
-0.00
-0.00
-0.00
-0.00
-0.00
-0.00
-0.00
-0.00
-0.00
0.00
0.01
0.01
-0.00
-0.03
-0.05
-0.05
0.00
0.13
0.36
0.66
1.01
1.37
1.72
2.06
2.40
2.79
3.24
3.80
4.42
5.06
5.66
6.20
6.68
7.15
7.68
8.31
9.14
10.09
11.04
11.88
12.56
13.14
13.76
14.65
15.96
17.91
20.32
22.90
25.38
27.58
29.57
31.68
34.32
37.81
42.54
48.15
54.10
59.83
64.97
69.58
74.14
79.34
85.71
93.76
103.00
112.62
121.73
129.77
136.75
143.30
150.75
157.77
166.64
177.95
191.79
206.97
220.57
228.25
225.36
208.53
176.87
132.76
80.05
23.07
-34.94
-92.44
-149.16
-205.23
-260.37
-313.74
-363.87
-409.83
-450.91
-486.50
-515.74
-537.23
-549.22
-549.96
-538.37
-514.21
-478.67
-433.88
-382.45
-327.02
-269.84
-212.63
-156.66
-102.95
-52.37
-5.90
35.58
71.43
101.35
125.50
144.38
158.69
169.15
176.37
180.75
182.57
182.07
179.51
175.23
169.65
163.18
156.15
148.81
141.30
133.69
126.02
118.33
110.69
103.16
95.80
88.68
81.83
75.25
68.95
62.95
57.25
51.86
46.78
42.03
37.59
33.45
29.61
26.07
22.81
19.83
17.11
14.67
12.48
10.54
8.83
7.35
6.07
4.97
4.05
3.27
2.62
2.09
1.65
1.30
1.01
0.79
0.61
0.47
0.37
0.28
0.22
0.18
0.15
0.13
0.12
0.13
0.13
0.15
0.17
0.20
0.24
0.27
0.31
0.35
0.40
0.44
0.49
0.54
0.59
0.64
0.70
0.76
0.82
0.89
0.97
1.05
1.14
1.25
1.37
1.50
1.65
1.81
2.00
2.20
2.43
2.68
2.96
3.27
3.60
3.97
4.37
4.81
5.28
5.79
6.34
6.93
7.56
8.23
8.95
9.71
10.52
11.37
12.27
13.20
14.20
15.26
16.39
17.57
18.80
20.07
21.33
22.51
23.54
24.30
24.66
24.52
23.77
22.33
20.16
17.29
13.79
9.77
5.40
0.90
-3.53
-7.67
-11.34
-14.39
-16.74
-18.33
-19.18
-19.33
-18.88
-17.94
-16.63
-15.09
-13.44
-11.77
-10.13
-8.53
-6.93
-5.35
-3.74
-2.13
-0.50
1.13
2.76
4.39
6.09
7.97
9.98
12.12
14.38
16.71
19.07
21.40
23.72
26.14
28.90
31.90
35.16
38.63
42.17
45.63
48.86
51.84
54.79
58.12
61.80
65.89
70.28
74.72
78.81
82.18
84.71
86.65
88.63
90.64
92.75
94.67
95.69
94.73
90.59
82.04
67.69
50.92
33.08
15.08
-2.77
-20.64
-39.00
-58.52
-79.85
-103.51
-129.45
-157.31
-185.18
-209.78
-227.27
-234.57
-230.54
-216.49
-195.58
-171.53
-147.87
-126.36
-107.28
-90.21
-74.85
-61.33
-50.08
-41.22
-34.27
-28.52
-23.08
-17.44
-11.77
-6.75
-3.19
-1.49
-1.33
-1.82
-2.11
-1.62
-0.37
1.09
2.07
2.11
1.30
0.22
-0.33
0.33
2.56
6.28
11.10
16.38
21.44
25.68
28.80
30.73
31.65
31.86
31.61
31.04
30.26
29.32
28.42
27.78
27.54
27.70
27.98
28.00
27.46
26.31
24.75
23.12
21.68
20.47
19.32
18.02
16.40
14.41
12.09
9.49
6.72
3.81
0.82
-2.21
-5.24
-8.26
-11.21
-13.94
-16.19
-17.62
-17.94
-17.05
-15.07
-12.32
-9.16
-5.92
-2.78
0.14
2.84
5.31
7.57
9.66
11.63
13.46
15.08
16.29
16.93
16.96
16.55
15.99
15.60
15.49
15.52
15.43
14.97
14.05
12.82
11.54
10.36
9.31
8.21
6.91
5.29
3.34
1.14
-1.21
-3.64
-6.05
-8.33
-10.44
-12.47
-14.63
-17.19
-20.26
-23.64
-26.83
-29.22
-30.25
-29.71
-27.74
-24.71
-21.04
-17.08
-12.95
-8.73
-4.47
-0.35
3.40
6.52
8.85
10.37
11.19
11.56
11.75
11.91
12.11
12.33
12.57
12.88
13.31
13.83
14.26
14.32
13.80
12.69
11.25
9.82
8.69
7.80
6.86
5.45
3.32
0.57
-2.43
-5.24
-7.55
-9.28
-10.56
-11.57
-12.46
-13.36
-14.38
-15.64
-17.20
-18.98
-20.67
-21.81
-21.94
-20.80
-18.41
-15.10
-11.37
-7.68
-4.31
-1.37
1.23
3.61
5.81
7.76
9.31
10.37
11.00
11.33
11.58
11.85
12.15
12.35
12.32
12.00
11.45
10.77
10.09
9.43
8.74
7.91
6.92
5.81
4.75
3.86
3.23
2.77
2.27
1.50
0.26
-1.54
-3.79
-6.26
-8.65
-10.66
-12.15
-13.16
-13.96
-14.98
-16.68
-19.35
-22.89
-26.81
-30.34
-32.67
-33.28
-32.06
-29.31
-25.57
-21.36
-17.04
-12.80
-8.69
-4.82
-1.34
1.54
3.69
5.13
6.14
7.07
8.21
9.65
11.23
12.62
13.55
13.97
14.03
14.02
14.16
14.43
14.64
14.56
14.09
13.28
12.32
11.43
10.73
10.22
9.78
9.13
7.93
5.97
3.18
-0.15
-3.55
-6.49
-8.70
-10.28
-11.72
-13.58
-16.28
-19.83
-23.85
-27.72
-30.78
-32.47
-32.47
-30.75
-27.63
-23.70
-19.60
-15.85
-12.64
-9.79
-6.98
-3.96
-0.75
2.31
4.82
6.55
7.54
8.10
8.56
9.04
9.43
9.50
9.15
8.52
7.98
7.91
8.43
9.35
10.22
10.56
10.14
9.02
7.53
5.96
4.42
2.78
0.88
-1.30
-3.50
-5.37
-6.71
-7.66
-8.76
-10.61
-13.56
-17.50
-21.80
-25.63
-28.25
-29.25
-28.57
-26.40
-22.96
-18.57
-13.56
-8.37
-3.47
0.75
3.99
6.22
7.55
8.24
8.54
8.72
8.94
9.23
9.51
9.63
9.42
8.84
7.97
7.07
6.41
6.23
6.48
6.89
7.02
6.48
5.13
3.11
0.83
-1.34
-3.23
-4.93
-6.69
-8.68
-10.88
-13.11
-15.22
-17.27
-19.50
-22.15
-25.18
-28.19
-30.53
-31.59
-31.10
-29.24
-26.48
-23.34
-20.15
-16.94
-13.54
-9.80
-5.76
-1.69
1.95
4.70
6.33
6.89
6.78
6.54
6.65
7.29
8.38
9.60
10.69
11.56
12.27
12.94
13.62
14.21
14.50
14.35
13.70
12.67
11.38
9.91
8.26
6.34
4.10
1.45
-1.63
-5.17
-9.16
-13.50
-18.09
-22.73
-27.22
-31.29
-34.63
-36.88
-37.74
-37.07
-34.97
-31.75
-27.78
-23.35
-18.52
-13.21
-7.32
-0.95
5.59
11.82
17.22
21.37
24.08
25.37
25.53
25.07
24.62
24.74
25.75
27.62
29.97
32.33
34.27
35.52
36.02
35.78
34.81
33.11
30.73
27.80
24.53
21.17
17.86
14.59
11.30
7.90
4.34
0.68
-3.04
-6.85
-10.86
-15.25
-20.05
-25.06
-29.78
-33.56
-35.73
-35.86
-33.89
-30.15
-25.23
-19.77
-14.28
-8.98
-3.90
0.97
5.54
9.53
12.52
14.16
14.42
13.67
12.58
11.80
11.64
11.89
12.00
11.41
9.92
7.87
5.99
5.02
5.38
7.01
9.43
12.03
14.25
15.70
16.13
15.38
13.43
10.44
6.87
3.24
0.08
-2.37
-4.14
-5.57
-7.05
-8.98
-11.62
-15.08
-19.20
-23.55
-27.44
-30.04
-30.71
-29.16
-25.68
-20.93
-15.67
-10.41
-5.30
-0.19
5.08
10.49
15.80
20.67
24.90
28.50
31.68
34.58
37.16
39.18
40.30
40.31
39.23
37.39
35.22
33.18
31.54
30.31
29.31
28.18
26.53
24.05
20.63
16.42
11.74
6.98
2.37
-1.99
-6.09
-9.85
-13.13
-15.81
-17.98
-20.00
-22.37
-25.44
-29.06
-32.58
-34.96
-35.25
-33.01
-28.44
-22.31
-15.53
-8.84
-2.61
3.01
8.00
12.27
15.58
17.77
18.80
18.94
18.72
18.71
19.33
20.69
22.58
24.59
26.28
27.29
27.40
26.53
24.71
22.08
18.89
15.42
11.93
8.64
5.67
3.10
0.93
-0.93
-2.76
-5.01
-8.16
-12.47
-17.67
-22.97
-27.25
-29.54
-29.40
-27.09
-23.30
-18.85
-14.28
-9.80
-5.39
-1.05
3.07
6.73
9.71
11.99
13.74
15.32
17.02
18.96
21.08
23.15
24.81
25.76
25.88
25.26
24.25
23.17
22.24
21.40
20.36
18.80
16.59
13.86
10.90
8.01
5.30
2.65
-0.22
-3.56
-7.52
-12.03
-16.87
-21.70
-26.12
-29.65
-31.89
-32.52
-31.46
-28.83
-24.99
-20.36
-15.37
-10.32
-5.38
-0.59
4.04
8.45
12.51
16.00
18.77
20.76
22.06
22.85
23.35
23.64
23.73
23.54
23.04
22.31
21.51
20.83
20.39
20.17
20.09
19.91
19.37
18.20
16.25
13.52
10.26
6.83
3.57
0.62
-2.09
-4.81
-7.81
-11.18
-14.76
-18.08
-20.48
-21.21
-19.66
-15.66
-9.71
-2.94
3.28
7.76
10.12
10.77
10.72
10.98
12.14
14.15
16.62
19.14
21.58
24.09
26.82
29.79
32.62
34.80
35.80
35.40
33.77
31.38
28.78
26.36
24.16
21.96
19.46
16.48
13.14
9.79
6.74
4.14
1.87
-0.39
-2.95
-5.96
-9.40
-13.13
-17.01
-21.00
-25.12
-29.35
-33.56
-37.49
-40.76
-43.01
-43.91
-43.28
-41.14
-37.66
-33.13
-27.87
-22.22
-16.50
-10.92
-5.69
-0.99
3.03
6.33
8.98
11.14
13.09
15.03
17.01
18.90
20.46
21.45
21.82
21.69
21.27
20.71
20.03
19.14
18.00
16.74
15.64
14.98
14.79
14.83
14.64
13.81
12.16
9.81
7.03
4.00
0.68
-3.16
-7.77
-13.17
-19.06
-24.91
-30.09
-34.12
-36.75
-37.89
-37.52
-35.67
-32.42
-27.95
-22.56
-16.63
-10.58
-4.81
0.39
4.86
8.53
11.43
13.65
15.38
16.79
18.07
19.34
20.55
21.56
22.20
22.33
21.94
21.09
19.87
18.37
16.63
14.69
12.64
10.64
8.81
7.14
5.41
3.31
0.54
-2.95
-6.94
-11.04
-14.85
-18.14
-20.95
-23.46
-25.88
-28.21
-30.24
-31.49
-31.47
-29.86
-26.65
-22.18
-17.02
-11.79
-6.86
-2.33
1.94
6.07
10.13
13.93
17.22
19.82
21.73
23.09
24.09
24.78
25.06
24.77
23.83
22.35
20.62
18.99
17.65
16.58
15.54
14.25
12.53
10.38
7.96
5.45
2.99
0.56
-1.89
-4.44
-7.13
-9.97
-13.05
-16.44
-20.19
-24.25
-28.30
-31.81
-34.18
-34.92
-33.81
-31.02
-26.96
-22.14
-16.99
-11.79
-6.71
-1.88
2.56
6.51
9.87
12.58
14.61
15.99
16.79
17.10
17.09
16.94
16.77
16.57
16.30
15.87
15.26
14.48
13.59
12.54
11.16
9.25
6.69
3.59
0.26
-2.81
-5.28
-7.08
-8.51
-10.11
-12.45
-15.83
-20.19
-25.04
-29.62
-33.13
-34.94
-34.73
-32.60
-28.95
-24.31
-19.27
-14.27
-9.54
-5.16
-1.10
2.68
6.18
9.35
12.12
14.45
16.32
17.77
18.88
19.69
20.27
20.64
20.77
20.66
20.33
19.86
19.31
18.68
17.81
16.46
14.35
11.43
7.90
4.20
0.87
-1.71
-3.44
-4.49
-5.21
-6.01
-7.17
-8.88
-11.22
-14.15
-17.55
-21.10
-24.37
-26.88
-28.18
-28.03
-26.37
-23.38
-19.38
-14.83
-10.19
-5.84
-2.00
1.31
4.22
6.88
9.37
11.61
13.40
14.54
14.95
14.74
14.18
13.54
13.05
12.79
12.70
12.65
12.46
12.01
11.19
9.94
8.27
6.24
3.96
1.63
-0.62
-2.68
-4.64
-6.78
-9.45
-12.86
-16.91
-21.08
-24.53
-26.49
-26.52
-24.67
-21.52
-17.79
-14.10
-10.80
-7.93
-5.40
-3.14
-1.16
0.42
1.63
2.56
3.45
4.51
5.81
7.21
8.46
9.28
9.53
9.24
8.62
7.87
7.15
6.38
5.40
4.07
2.38
0.50
-1.28
-2.68
-3.57
-4.05
-4.43
-5.16
-6.67
-9.25
-12.90
-17.25
-21.64
-25.26
-27.38
-27.64
-26.04
-22.99
-19.09
-14.91
-10.85
-7.07
-3.66
-0.71
1.76
3.69
5.17
6.35
7.46
8.61
9.82
11.00
12.07
13.03
13.94
14.84
15.69
16.35
16.65
16.51
15.96
15.13
14.15
13.09
11.95
10.65
9.10
7.24
5.07
2.64
0.02
-2.68
-5.40
-8.08
-10.72
-13.34
-15.78
-17.86
-19.27
-19.78
-19.29
-17.87
-15.74
-13.17
-10.41
-7.66
-5.05
-2.62
-0.40
1.69
3.67
5.54
7.19
8.45
9.27
9.63
9.68
9.64
9.65
9.79
10.02
10.24
10.33
10.17
9.69
8.86
7.67
6.23
4.64
2.98
1.35
-0.23
-1.69
-2.99
-4.13
-5.15
-6.19
-7.45
-9.07
-11.10
-13.43
-15.73
-17.68
-18.93
-19.29
-18.70
-17.23
-15.08
-12.49
-9.75
-7.04
-4.51
-2.20
-0.07
1.93
3.83
5.61
7.20
8.52
9.57
10.36
10.93
11.23
11.19
10.72
9.85
8.78
7.74
6.96
6.45
6.02
5.42
4.45
3.10
1.59
0.17
-1.00
-1.89
-2.66
-3.51
-4.60
-5.98
-7.60
-9.35
-11.13
-12.87
-14.52
-16.02
-17.27
-18.17
-18.61
-18.55
-18.05
-17.21
-16.12
-14.79
-13.19
-11.29
-9.14
-6.89
-4.74
-2.86
-1.35
-0.20
0.66
1.33
1.98
2.70
3.54
4.44
5.29
5.95
6.35
6.56
6.75
7.10
7.68
8.37
8.92
9.06
8.64
7.67
6.35
4.90
3.45
1.97
0.33
-1.67
-4.09
-6.86
-9.78
-12.57
-14.95
-16.70
-17.68
-17.82
-17.16
-15.82
-14.00
-11.85
-9.49
-6.99
-4.38
-1.74
0.74
2.85
4.37
5.22
5.51
5.45
5.31
5.28
5.47
5.88
6.47
7.13
7.75
8.19
8.35
8.13
7.48
6.37
4.75
2.63
0.11
-2.56
-5.04
-6.96
-8.08
-8.38
-8.09
-7.51
-7.00
-6.80
-7.13
-8.18
-10.05
-12.67
-15.71
-18.62
-20.75
-21.64
-21.16
-19.51
-17.11
-14.37
-11.60
-8.93
-6.36
-3.92
-1.58
0.69
2.91
5.07
7.07
8.76
9.95
10.58
10.67
10.37
9.85
9.23
8.67
8.25
8.06
8.08
8.21
8.25
7.98
7.30
6.28
5.13
4.16
3.46
3.00
2.58
1.93
0.91
-0.49
-2.20
-4.03
-5.84
-7.51
-8.96
-10.18
-11.18
-12.10
-13.09
-14.33
-15.87
-17.54
-19.04
-19.90
-19.77
-18.49
-16.16
-13.11
-9.75
-6.38
-3.19
-0.24
2.43
4.71
6.46
7.60
8.12
8.21
8.09
7.96
7.92
7.97
8.03
8.08
8.11
8.14
8.14
8.04
7.74
7.24
6.65
6.08
5.66
5.42
5.27
5.08
4.66
3.92
2.81
1.38
-0.30
-2.13
-4.01
-5.90
-7.71
-9.44
-11.02
-12.54
-14.08
-15.73
-17.55
-19.43
-21.09
-22.18
-22.40
-21.63
-20.05
-18.00
-15.80
-13.61
-11.43
-9.13
-6.64
-4.08
-1.67
0.30
1.69
2.56
3.07
3.44
3.84
4.33
4.83
5.29
5.60
5.69
5.53
5.11
4.50
3.79
3.11
2.60
2.36
2.40
2.54
2.56
2.20
1.31
-0.06
-1.69
-3.34
-4.85
-6.19
-7.42
-8.56
-9.59
-10.45
-11.16
-11.89
-12.88
-14.27
-15.96
-17.61
-18.73
-18.96
-18.12
-16.34
-13.94
-11.27
-8.62
-6.16
-3.92
-1.90
-0.05
1.60
2.99
4.03
4.68
4.97
5.00
4.91
4.79
4.69
4.57
4.45
4.30
4.15
4.01
3.86
3.69
3.50
3.28
3.04
2.75
2.34
1.64
0.55
-1.00
-2.91
-5.04
-7.26
-9.53
-11.88
-14.38
-17.06
-19.79
-22.33
-24.41
-25.83
-26.52
-26.56
-26.04
-25.05
-23.59
-21.60
-19.02
-15.89
-12.36
-8.70
-5.17
-2.00
0.72
2.94
4.70
5.99
6.81
7.25
7.46
7.68
8.10
8.77
9.55
10.18
10.41
10.13
9.46
8.59
7.73
6.95
6.17
5.24
4.02
2.44
0.55
-1.46
-3.39
-5.06
-6.41
-7.50
-8.53
-9.73
-11.30
-13.38
-15.96
-18.90
-21.93
-24.69
-26.77
-27.85
-27.76
-26.54
-24.39
-21.65
-18.55
-15.21
-11.64
-7.81
-3.80
0.27
4.18
7.66
10.56
12.82
14.56
15.96
17.23
18.48
19.72
20.84
21.73
22.37
22.76
22.93
22.85
22.44
21.69
20.73
19.77
19.00
18.45
17.87
16.89
15.20
12.79
9.90
6.94
4.27
2.01
0.11
-1.62
-3.42
-5.42
-7.78
-10.57
-13.79
-17.29
-20.73
-23.61
-25.41
-25.66
-24.17
-21.02
-16.65
-11.66
-6.69
-2.16
1.80
5.34
8.70
12.01
15.20
18.05
20.35
22.05
23.27
24.27
25.23
26.10
26.72
26.87
26.46
25.59
24.43
23.17
21.91
20.67
19.44
18.25
17.12
16.02
14.81
13.29
11.28
8.74
5.83
2.84
0.10
-2.30
-4.44
-6.60
-9.00
-11.75
-14.67
-17.45
-19.73
-21.19
-21.70
-21.19
-19.65
-17.07
-13.52
-9.19
-4.37
0.46
4.90
8.60
11.47
13.55
15.03
16.14
17.09
18.03
18.97
19.89
20.69
21.25
21.50
21.45
21.15
20.68
20.11
19.44
18.61
17.54
16.13
14.30
12.02
9.36
6.43
3.43
0.56
-1.98
-4.12
-5.98
-7.86
-10.09
-12.91
-16.27
-19.76
-22.77
-24.63
-24.90
-23.53
-20.80
-17.24
-13.41
-9.68
-6.18
-2.78
0.65
4.22
7.84
11.26
14.19
16.47
18.11
19.27
20.16
20.82
21.22
21.26
20.94
20.40
19.83
19.41
19.14
18.91
18.53
17.89
16.93
15.65
14.10
12.31
10.43
8.55
6.83
5.31
3.96
2.66
1.24
-0.39
-2.31
-4.59
-7.33
-10.63
-14.42
-18.50
-22.38
-25.49
-27.34
-27.72
-26.69
-24.52
-21.60
-18.23
-14.63
-10.90
-7.05
-3.09
0.93
4.91
8.67
12.02
14.82
17.00
18.62
19.81
20.71
21.43
22.00
22.42
22.71
22.89
23.02
23.11
23.10
22.83
22.18
21.07
19.54
17.73
15.84
13.99
12.25
10.58
8.84
6.96
4.94
2.90
0.94
-0.93
-2.90
-5.20
-8.03
-11.38
-15.05
-18.68
-21.88
-24.32
-25.76
-26.05
-25.17
-23.20
-20.36
-16.98
-13.36
-9.72
-6.09
-2.45
1.19
4.65
7.69
10.07
11.70
12.75
13.53
14.33
15.29
16.32
17.21
17.75
17.84
17.59
17.21
16.92
16.81
16.77
16.58
15.99
14.92
13.44
11.72
9.93
8.13
6.26
4.27
2.17
0.07
-1.90
-3.66
-5.27
-6.85
-8.54
-10.48
-12.75
-15.39
-18.32
-21.29
-23.80
-25.18
-24.87
-22.65
-18.80
-14.02
-9.18
-4.93
-1.53
1.17
3.47
5.62
7.64
9.38
10.67
11.45
11.82
12.00
12.14
12.28
12.35
12.27
12.00
11.59
11.13
10.66
10.15
9.52
8.73
7.80
6.78
5.70
4.52
3.17
1.56
-0.34
-2.44
-4.70
-7.09
-9.64
-12.45
-15.58
-19.00
-22.54
-25.90
-28.72
-30.65
-31.43
-30.89
-29.09
-26.20
-22.53
-18.42
-14.13
-9.85
-5.69
-1.76
1.81
4.88
7.35
9.20
10.61
11.82
13.04
14.37
15.72
16.87
17.57
17.73
17.41
16.77
15.97
15.12
14.25
13.36
12.51
11.80
11.26
10.82
10.29
9.39
7.94
5.88
3.39
0.73
-1.82
-4.06
-5.99
-7.81
-9.80
-12.33
-15.57
-19.51
-23.90
-28.26
-31.98
-34.48
-35.31
-34.30
-31.53
-27.34
-22.23
-16.80
-11.55
-6.84
-2.79
0.61
3.46
5.85
7.81
9.29
10.32
11.03
11.60
12.18
12.83
13.47
13.97
14.29
14.52
14.81
15.34
16.10
16.89
17.45
17.55
17.12
16.28
15.21
14.04
12.82
11.44
9.81
7.73
5.11
1.96
-1.59
-5.23
-8.60
-11.39
-13.53
-15.28
-17.11
-19.55
-22.86
-26.92
-31.21
-34.93
-37.27
-37.65
-35.86
-32.09
-26.85
-20.77
-14.45
-8.32
-2.68
2.31
6.49
9.74
12.01
13.44
14.35
15.17
16.20
17.47
18.72
19.53
19.61
18.91
17.67
16.27
15.09
14.30
13.88
13.68
13.50
13.18
12.56
11.58
10.24
8.52
6.45
4.09
1.56
-0.97
-3.30
-5.30
-7.03
-8.73
-10.81
-13.68
-17.55
-22.37
-27.75
-33.08
-37.67
-40.95
-42.50
-42.23
-40.31
-37.15
-33.35
-29.50
-26.00
-23.00
-20.24
-17.23
-13.47
-8.64
-2.86
3.34
9.28
14.30
18.04
20.46
21.76
22.20
21.99
21.28
20.17
18.86
17.62
16.67
16.10
15.75
15.32
14.46
13.02
11.02
8.66
6.21
3.88
1.77
-0.21
-2.21
-4.54
-7.46
-11.18
-15.59
-20.26
-24.49
-27.45
-28.56
-27.62
-24.89
-20.86
-16.07
-10.91
-5.56
-0.08
5.44
10.77
15.57
19.43
22.03
23.24
23.25
22.42
21.22
20.07
19.11
18.32
17.61
16.98
16.52
16.36
16.45
16.55
16.24
15.17
13.26
10.72
7.92
5.21
2.76
0.53
-1.63
-3.87
-6.29
-9.00
-12.16
-15.91
-20.40
-25.53
-30.93
-35.84
-39.36
-40.66
-39.26
-35.18
-28.98
-21.51
-13.68
-6.20
0.60
6.70
12.26
17.44
22.20
26.42
29.81
32.19
33.55
34.06
34.08
33.96
33.93
34.03
34.16
34.18
34.09
33.96
33.93
34.02
34.08
33.78
32.74
30.73
27.70
23.85
19.52
15.09
10.88
7.10
3.81
0.88
-1.97
-5.08
-8.73
-13.01
-17.83
-22.94
-27.98
-32.55
-36.19
-38.45
-38.94
-37.40
-33.87
-28.68
-22.42
-15.72
-9.10
-2.88
2.82
7.88
12.18
15.58
18.00
19.51
20.32
20.75
21.04
21.36
21.71
22.01
22.14
22.03
21.65
21.01
20.17
19.19
18.11
16.95
15.68
14.21
12.49
10.46
8.15
5.64
3.02
0.40
-2.21
-4.80
-7.44
-10.28
-13.42
-17.04
-21.17
-25.68
-30.23
-34.29
-37.31
-38.83
-38.64
-36.75
-33.44
-29.09
-24.14
-18.99
-13.97
-9.28
-4.97
-1.00
2.74
6.29
9.67
12.76
15.47
17.79
19.82
21.74
23.64
25.45
26.95
27.89
28.11
27.64
26.73
25.67
24.61
23.50
22.13
20.22
17.63
14.43
10.89
7.34
4.06
1.22
-1.23
-3.37
-5.45
-7.68
-10.34
-13.62
-17.67
-22.45
-27.70
-32.91
-37.35
-40.24
-40.92
-39.09
-34.95
-29.12
-22.51
-15.92
-9.87
-4.47
0.41
4.95
9.15
12.80
15.52
17.08
17.47
17.03
16.26
15.62
15.41
15.61
15.96
16.16
16.01
15.45
14.61
13.69
12.77
11.80
10.61
9.03
7.00
4.63
2.08
-0.47
-2.94
-5.35
-7.77
-10.28
-12.96
-15.88
-19.12
-22.72
-26.61
-30.59
-34.26
-37.05
-38.41
-37.83
-35.15
-30.49
-24.34
-17.36
-10.18
-3.30
3.00
8.62
13.49
17.53
20.66
22.86
24.24
25.05
25.55
25.96
26.37
26.75
27.01
27.08
26.86
26.31
25.38
24.10
22.57
20.94
19.32
17.69
15.95
13.93
11.52
8.71
5.65
2.52
-0.48
-3.25
-5.80
-8.23
-10.75
-13.61
-17.06
-21.20
-25.91
-30.79
-35.23
-38.51
-40.02
-39.40
-36.62
-31.94
-25.81
-18.83
-11.63
-4.75
1.47
6.96
11.79
16.11
19.94
23.11
25.40
26.61
26.76
26.08
24.97
23.81
22.79
21.93
21.11
20.24
19.41
18.74
18.32
18.10
17.84
17.24
16.08
14.25
11.88
9.18
6.41
3.75
1.29
-1.04
-3.36
-5.82
-8.55
-11.52
-14.64
-17.78
-20.93
-24.21
-27.77
-31.67
-35.57
-38.85
-40.70
-40.44
-37.80
-32.95
-26.48
-19.14
-11.68
-4.71
1.39
6.35
10.16
12.93
14.94
16.52
17.97
19.49
21.14
22.87
24.57
26.07
27.22
27.85
27.83
27.08
25.66
23.67
21.30
18.79
16.33
14.04
12.03
10.32
8.82
7.44
5.99
4.29
2.22
-0.24
-3.02
-5.95
-8.88
-11.69
-14.37
-17.00
-19.81
-22.99
-26.65
-30.62
-34.48
-37.52
-39.00
-38.38
-35.49
-30.65
-24.46
-17.68
-10.96
-4.73
0.77
5.47
9.36
12.41
14.57
15.84
16.32
16.30
16.20
16.39
17.08
18.09
19.05
19.49
19.21
18.29
17.05
15.88
14.94
14.11
13.05
11.40
9.03
6.10
2.95
0.00
-2.49
-4.51
-6.22
-7.93
-9.94
-12.46
-15.62
-19.42
-23.78
-28.45
-32.97
-36.65
-38.70
-38.52
-35.88
-31.09
-24.87
-18.08
-11.43
-5.35
0.04
4.72
8.65
11.76
13.97
15.33
16.01
16.31
16.48
16.70
17.06
17.60
18.34
19.23
20.18
21.01
21.55
21.67
21.38
20.75
19.86
18.72
17.26
15.36
12.99
10.20
7.15
4.03
0.96
-2.01
-4.94
-7.88
-10.90
-14.07
-17.50
-21.34
-25.72
-30.64
-35.78
-40.48
-43.88
-45.15
-43.79
-39.84
-33.81
-26.54
-18.91
-11.65
-5.22
0.16
4.54
8.11
11.10
13.73
16.08
18.04
19.47
20.28
20.61
20.76
21.03
21.56
22.18
22.59
22.56
22.03
21.17
20.18
19.17
18.04
16.63
14.77
12.48
9.88
7.12
4.21
1.11
-2.20
-5.65
-9.01
-11.97
-14.40
-16.37
-18.21
-20.37
-23.21
-26.87
-31.18
-35.71
-39.83
-42.85
-44.18
-43.43
-40.53
-35.75
-29.61
-22.78
-15.84
-9.20
-3.03
2.61
7.72
12.21
16.03
19.11
21.45
23.15
24.32
25.03
25.36
25.38
25.19
24.96
24.83
24.90
25.10
25.26
25.18
24.73
23.86
22.65
21.22
19.66
17.98
16.16
14.12
11.82
9.27
6.56
3.82
1.11
-1.56
-4.28
-7.17
-10.34
-13.83
-17.64
-21.70
-25.82
-29.63
-32.59
-34.09
-33.62
-31.01
-26.54
-20.81
-14.56
-8.40
-2.67
2.49
7.08
11.04
14.25
16.61
18.11
18.89
19.20
19.33
19.48
19.67
19.83
19.83
19.58
19.09
18.47
17.80
17.13
16.33
15.18
13.51
11.23
8.42
5.31
2.13
-0.92
-3.74
-6.32
-8.70
-10.99
-13.38
-16.08
-19.25
-22.73
-26.01
-28.33
-28.90
-27.32
-23.73
-18.85
-13.57
-8.60
-4.23
-0.35
3.34
6.96
10.37
13.21
15.12
15.99
16.00
15.58
15.24
15.35
15.98
16.93
17.76
18.04
17.51
16.25
14.60
12.94
11.53
10.32
9.06
7.45
5.33
2.76
-0.04
-2.83
-5.45
-7.89
-10.25
-12.74
-15.55
-18.84
-22.62
-26.77
-30.95
-34.65
-37.30
-38.41
-37.67
-35.02
-30.70
-25.19
-19.12
-13.09
-7.49
-2.48
2.00
6.09
9.80
12.98
15.38
16.80
17.26
17.07
16.67
16.52
16.88
17.75
18.89
20.00
20.82
21.23
21.26
21.02
20.58
19.98
19.14
18.02
16.63
15.07
13.50
12.00
10.55
8.98
6.98
4.32
0.86
-3.40
-8.40
-14.01
-20.14
-26.61
-33.07
-38.98
-43.62
-46.29
-46.56
-44.36
-40.04
-34.20
-27.56
-20.65
-13.75
-6.96
-0.33
5.97
11.62
16.22
19.51
21.48
22.40
22.75
22.99
23.47
24.35
25.68
27.36
29.22
31.00
32.44
33.32
33.63
33.54
33.35
33.27
33.27
33.13
32.36
30.51
27.25
22.50
16.48
9.65
2.57
-4.20
-10.27
-15.42
-19.65
-23.05
-25.76
-27.96
-29.86
-31.67
-33.49
-35.21
-36.45
-36.65
-35.41
-32.58
-28.50
-23.76
-18.97
-14.49
-10.42
-6.64
-3.06
0.33
3.42
6.12
8.36
10.16
11.51
12.41
12.91
13.06
12.94
12.64
12.13
11.38
10.38
9.27
8.30
7.73
7.65
7.89
8.08
7.85
7.00
5.65
4.07
2.52
1.06
-0.44
-2.21
-4.43
-7.06
-9.88
-12.58
-14.99
-17.13
-19.26
-21.65
-24.34
-27.01
-29.08
-29.83
-28.84
-26.16
-22.21
-17.66
-12.99
-8.47
-4.08
0.22
4.30
7.86
10.53
12.15
12.79
12.81
12.66
12.68
13.02
13.67
14.48
15.33
16.11
16.68
16.89
16.63
15.89
14.76
13.43
12.00
10.53
8.95
7.21
5.33
3.38
1.46
-0.42
-2.28
-4.17
-6.09
-7.97
-9.69
-11.25
-12.81
-14.64
-17.01
-20.01
-23.38
-26.60
-29.04
-30.18
-29.79
-27.97
-25.07
-21.57
-17.82
-14.06
-10.36
-6.73
-3.19
0.14
3.07
5.41
7.05
8.06
8.64
9.06
9.52
10.07
10.61
11.01
11.25
11.42
11.64
11.99
12.33
12.41
11.94
10.84
9.21
7.32
5.43
3.67
2.00
0.35
-1.33
-2.95
-4.36
-5.42
-6.08
-6.48
-6.85
-7.46
-8.57
-10.33
-12.74
-15.63
-18.73
-21.72
-24.19
-25.77
-26.09
-24.95
-22.35
-18.65
-14.41
-10.25
-6.51
-3.27
-0.29
2.72
5.87
8.99
11.77
13.90
15.30
16.10
16.57
16.95
17.37
17.85
18.35
18.81
19.14
19.25
19.07
18.61
17.93
17.08
16.07
14.85
13.34
11.59
9.74
8.03
6.64
5.55
4.56
3.41
1.91
0.04
-2.12
-4.45
-6.88
-9.43
-12.10
-14.87
-17.66
-20.47
-23.31
-26.18
-28.96
-31.33
-32.86
-33.10
-31.75
-28.93
-25.09
-20.94
-17.14
-14.09
-11.78
-9.89
-7.99
-5.81
-3.32
-0.71
1.80
4.05
5.98
7.61
8.92
9.82
10.24
10.21
9.91
9.57
9.36
9.29
9.24
9.06
8.70
8.22
7.72
7.26
6.77
6.10
5.09
3.69
2.02
0.35
-1.04
-1.99
-2.57
-3.13
-4.13
-5.99
-8.82
-12.38
-16.23
-19.79
-22.67
-24.70
-25.89
-26.34
-26.08
-25.07
-23.29
-20.81
-17.85
-14.73
-11.73
-9.00
-6.51
-4.14
-1.79
0.55
2.70
4.44
5.62
6.18
6.26
6.06
5.79
5.55
5.41
5.39
5.56
5.99
6.73
7.75
8.94
10.12
11.06
11.50
11.19
9.93
7.73
4.80
1.49
-1.77
-4.72
-7.25
-9.41
-11.27
-12.86
-14.11
-14.96
-15.55
-16.16
-17.13
-18.63
-20.49
-22.26
-23.39
-23.46
-22.42
-20.46
-17.94
-15.18
-12.38
-9.58
-6.79
-3.98
-1.19
1.53
4.05
6.23
7.94
9.14
9.93
10.49
11.05
11.67
12.23
12.54
12.48
12.12
11.74
11.61
11.84
12.20
12.28
11.72
10.41
8.57
6.54
4.66
3.02
1.46
-0.24
-2.31
-4.81
-7.68
-10.76
-13.84
-16.74
-19.39
-21.79
-24.06
-26.40
-29.04
-32.14
-35.77
-39.83
-44.10
-48.15
-51.32
-52.69
-51.27
-46.29
-37.58
-25.81
-12.40
0.87
12.42
21.33
27.46
31.23
33.23
33.93
33.60
32.46
30.89
29.41
28.52
28.45
29.10
30.07
30.90
31.24
30.99
30.14
28.77
26.96
24.84
22.64
20.64
19.03
17.78
16.58
15.03
12.82
9.93
6.63
3.30
0.29
-2.30
-4.53
-6.65
-8.94
-11.65
-14.90
-18.63
-22.62
-26.45
-29.58
-31.50
-31.82
-30.41
-27.40
-23.16
-18.19
-13.00
-7.98
-3.39
0.68
4.25
7.39
10.15
12.49
14.34
15.67
16.54
17.08
17.54
18.07
18.68
19.26
19.59
19.42
18.64
17.32
15.71
14.13
12.87
12.03
11.50
11.06
10.46
9.51
8.18
6.56
4.76
2.92
1.17
-0.45
-1.99
-3.59
-5.47
-7.85
-10.84
-14.34
-18.00
-21.27
-23.61
-24.59
-24.03
-22.04
-18.94
-15.15
-11.16
-7.34
-3.93
-1.02
1.48
3.73
5.86
7.94
9.93
11.68
13.00
13.74
13.81
13.28
12.28
10.99
9.61
8.24
7.00
5.97
5.31
5.17
5.59
6.44
7.42
8.13
8.30
7.88
7.06
6.13
5.31
4.63
3.89
2.90
1.47
-0.47
-2.89
-5.75
-9.00
-12.49
-15.96
-18.96
-20.93
-21.42
-20.23
-17.53
-13.77
-9.55
-5.36
-1.48
2.06
5.33
8.36
11.13
13.48
15.30
16.62
17.56
18.28
18.93
19.55
20.09
20.46
20.55
20.28
19.64
18.62
17.25
15.58
13.77
11.93
10.22
8.70
7.32
5.91
4.23
2.13
-0.42
-3.21
-5.99
-8.49
-10.62
-12.46
-14.15
-15.84
-17.54
-19.18
-20.69
-22.01
-23.10
-23.85
-24.02
-23.34
-21.50
-18.43
-14.30
-9.53
-4.60
0.05
4.18
7.71
10.68
13.17
15.27
17.05
18.63
20.06
21.34
22.34
22.87
22.74
21.93
20.57
18.95
17.40
16.14
15.22
14.55
13.98
13.37
12.65
11.75
10.64
9.27
7.62
5.69
3.52
1.19
-1.13
-3.26
-5.08
-6.59
-7.96
-9.47
-11.42
-13.92
-16.89
-19.96
-22.73
-24.81
-25.95
-26.01
-24.96
-22.77
-19.58
-15.57
-11.13
-6.69
-2.65
0.75
3.46
5.59
7.32
8.83
10.15
11.21
11.94
12.25
12.23
12.01
11.77
11.67
11.73
11.83
11.82
11.54
10.90
9.91
8.58
6.98
5.13
3.15
1.17
-0.61
-2.00
-2.89
-3.28
-3.27
-3.08
-2.93
-3.01
-3.46
-4.34
-5.69
-7.49
-9.70
-12.22
-14.85
-17.31
-19.24
-20.32
-20.32
-19.23
-17.19
-14.47
-11.32
-8.02
-4.75
-1.67
1.05
3.32
5.04
6.24
6.99
7.44
7.75
8.08
8.48
8.90
9.22
9.30
9.05
8.53
7.90
7.41
7.25
7.45
7.91
8.38
8.57
8.26
7.33
5.78
3.70
1.29
-1.23
-3.62
-5.78
-7.78
-9.79
-12.01
-14.45
-16.96
-19.19
-20.81
-21.58
-21.43
-20.38
-18.49
-15.82
-12.52
-8.88
-5.31
-2.25
0.01
1.45
2.32
3.02
3.86
4.96
6.19
7.33
8.16
8.60
8.70
8.57
8.27
7.78
7.08
6.16
5.21
4.42
3.96
3.77
3.58
2.99
1.63
-0.56
-3.34
-6.24
-8.79
-10.74
-12.11
-13.24
-14.53
-16.33
-18.73
-21.56
-24.47
-27.00
-28.74
-29.43
-28.98
-27.42
-24.91
-21.63
-17.83
-13.83
-9.96
-6.49
-3.62
-1.40
0.25
1.46
2.41
3.18
3.87
4.56
5.34
6.29
7.44
8.74
9.96
10.83
11.11
10.69
9.60
7.90
5.72
3.14
0.25
-2.79
-5.77
-8.45
-10.68
-12.50
-14.19
-16.17
-18.89
-22.60
-27.23
-32.43
-37.67
-42.37
-46.04
-48.38
-49.20
-48.52
-46.54
-43.63
-40.30
-36.99
-33.98
-31.31
-28.80
-26.22
-23.50
-20.70
-18.05
-15.74
-13.81
-12.17
-10.63
-9.02
-7.14
-4.80
-1.75
2.23
7.25
13.23
19.92
26.97
34.07
41.00
47.60
53.80
59.58
64.99
70.20
75.45
81.05
87.32
94.43
102.30
110.56
118.36
124.48
127.44
125.84
118.78
106.22
89.09
69.14
48.58
29.52
13.54
1.45
-6.72
-11.54
-13.87
-14.59
-14.42
-13.82
-13.09
-12.37
-11.76
-11.33
-11.07
-10.92
-10.74
-10.41
-9.95
-9.54
-9.49
-9.99
-10.99
-12.16
-13.00
-13.10
-12.38
-11.02
-9.39
-7.86
-6.69
-6.02
-5.96
-6.54
-7.67
-9.12
-10.55
-11.61
-12.22
-12.48
-12.71
-13.22
-14.22
-15.78
-17.87
-20.45
-23.45
-26.75
-30.08
-33.07
-35.29
-36.41
-36.24
-34.79
-32.29
-29.12
-25.70
-22.39
-19.33
-16.37
-13.19
-9.50
-5.29
-0.90
3.03
5.93
7.55
8.09
8.09
8.11
8.44
9.04
9.64
9.98
10.00
9.90
9.93
10.17
10.45
10.40
9.73
8.28
6.21
3.79
1.31
-1.07
-3.30
-5.36
-7.25
-8.92
-10.40
-11.78
-13.24
-14.89
-16.70
-18.42
-19.69
-20.16
-19.61
-18.06
-15.68
-12.72
-9.47
-6.19
-3.07
-0.27
2.15
4.20
5.91
7.30
8.31
8.89
9.00
8.74
8.37
8.12
8.14
8.38
8.63
8.61
8.16
7.30
6.19
5.03
3.99
3.10
2.24
1.17
-0.38
-2.55
-5.32
-8.42
-11.49
-14.12
-16.13
-17.54
-18.65
-19.84
-21.48
-23.68
-26.26
-28.77
-30.54
-30.99
-29.74
-26.89
-22.96
-18.66
-14.66
-11.30
-8.58
-6.30
-4.26
-2.35
-0.53
1.20
2.91
4.68
6.59
8.59
10.64
12.66
14.66
16.60
18.34
19.58
20.07
19.60
18.23
16.23
13.93
11.52
9.02
6.33
3.39
0.28
-2.82
-5.70
-8.23
-10.42
-12.37
-14.23
-16.13
-18.23
-20.72
-23.80
-27.60
-32.04
-36.76
-41.12
-44.38
-45.89
-45.39
-43.06
-39.46
-35.32
-31.23
-27.51
-24.11
-20.84
-17.56
-14.30
-11.24
-8.58
-6.39
-4.47
-2.53
-0.27
2.44
5.51
8.68
11.64
14.11
15.90
16.91
17.15
16.76
15.93
14.93
13.93
12.99
12.05
11.09
10.14
9.41
9.13
9.35
9.82
9.90
8.77
5.75
0.59
-6.30
-14.00
-21.32
-27.23
-30.98
-32.35
-31.50
-28.88
-25.10
-20.66
-15.98
-11.21
-6.36
-1.31
3.97
9.36
14.60
19.29
23.21
26.25
28.54
30.27
31.57
32.41
32.71
32.46
31.77
30.96
30.32
30.08
30.23
30.53
30.68
30.34
29.36
27.79
25.85
23.81
21.87
20.01
17.98
15.43
12.05
7.77
2.87
-2.08
-6.37
-9.44
-10.98
-11.01
-9.75
-7.62
-4.98
-2.04
1.17
4.76
8.91
13.59
18.56
23.27
27.14
29.67
30.74
30.51
29.38
27.84
26.33
25.18
24.67
24.98
26.11
27.91
29.97
31.83
33.10
33.54
33.05
31.66
29.42
26.39
22.73
18.68
14.58
10.64
6.94
3.31
-0.45
-4.58
-9.14
-13.99
-18.91
-23.59
-27.70
-30.93
-33.03
-33.87
-33.48
-32.03
-29.77
-26.93
-23.62
-19.79
-15.36
-10.28
-4.65
1.30
7.14
12.39
16.63
19.64
21.51
22.60
23.45
24.46
25.77
27.19
28.35
28.98
29.09
28.99
29.12
29.77
30.89
32.10
32.87
32.74
31.44
28.88
25.17
20.50
15.16
9.57
4.19
-0.57
-4.50
-7.75
-10.69
-13.78
-17.23
-20.83
-24.00
-26.01
-26.32
-24.83
-21.86
-17.93
-13.52
-8.82
-3.82
1.52
7.02
12.22
16.51
19.42
20.79
20.83
20.03
18.89
17.81
17.01
16.62
16.64
17.03
17.68
18.36
18.83
18.87
18.31
17.13
15.41
13.26
10.85
8.34
5.94
3.78
1.94
0.37
-1.08
-2.66
-4.63
-7.15
-10.22
-13.65
-17.09
-20.12
-22.32
-23.47
-23.50
-22.51
-20.68
-18.15
-15.04
-11.44
-7.45
-3.22
1.03
5.04
8.54
11.27
13.05
13.77
13.50
12.48
11.14
9.93
9.19
9.01
9.18
9.31
8.96
7.91
6.15
3.98
1.77
-0.09
-1.41
-2.25
-2.86
-3.61
-4.81
-6.66
-9.10
-11.91
-14.76
-17.28
-19.17
-20.19
-20.23
-19.27
-17.42
-14.90
-11.95
-8.83
-5.73
-2.73
0.13
2.81
5.24
7.32
8.95
10.13
10.89
11.30
11.46
11.43
11.30
11.16
11.12
11.28
11.64
12.09
12.39
12.24
11.37
9.63
7.11
4.02
0.69
-2.53
-5.42
-7.87
-9.92
-11.76
-13.66
-15.86
-18.48
-21.43
-24.40
-26.93
-28.53
-28.85
-27.77
-25.43
-22.17
-18.38
-14.43
-10.54
-6.83
-3.32
-0.00
3.08
5.84
8.16
9.92
11.07
11.63
11.72
11.46
10.95
10.28
9.50
8.71
8.01
7.45
7.06
6.70
6.20
5.40
4.22
2.70
0.99
-0.71
-2.31
-3.74
-5.05
-6.33
-7.72
-9.36
-11.33
-13.59
-15.94
-18.10
-19.67
-20.38
-20.08
-18.83
-16.84
-14.38
-11.72
-8.98
-6.24
-3.47
-0.66
2.14
4.83
7.16
8.96
10.11
10.68
10.84
10.86
10.93
11.12
11.38
11.60
11.68
11.58
11.30
10.85
10.20
9.26
8.02
6.55
4.96
3.41
1.95
0.52
-1.08
-2.97
-5.21
-7.67
-10.15
-12.52
-14.76
-16.97
-19.17
-21.23
-22.80
-23.50
-23.08
-21.56
-19.26
-16.63
-14.02
-11.60
-9.32
-7.08
-4.77
-2.40
-0.06
2.10
3.96
5.41
6.39
6.85
6.80
6.33
5.63
4.93
4.44
4.19
4.11
3.95
3.51
2.68
1.49
0.08
-1.35
-2.72
-3.99
-5.25
-6.65
-8.27
-10.14
-12.23
-14.43
-16.56
-18.43
-19.80
-20.38
-19.95
-18.36
-15.67
-12.17
-8.33
-4.65
-1.55
0.79
2.39
3.45
4.21
4.79
5.25
5.57
5.75
5.82
5.91
6.10
6.42
6.83
7.21
7.40
7.29
6.79
5.92
4.77
3.48
2.13
0.78
-0.64
-2.22
-4.06
-6.15
-8.42
-10.71
-12.93
-15.08
-17.27
-19.62
-22.10
-24.45
-26.23
-26.95
-26.35
-24.43
-21.54
-18.18
-14.85
-11.80
-9.09
-6.55
-4.04
-1.47
1.11
3.60
5.86
7.84
9.48
10.71
11.46
11.66
11.32
10.54
9.50
8.45
7.62
7.12
6.93
6.92
6.86
6.55
5.83
4.69
3.23
1.62
0.05
-1.36
-2.62
-3.84
-5.14
-6.68
-8.56
-10.85
-13.59
-16.76
-20.22
-23.69
-26.74
-28.87
-29.66
-28.94
-26.84
-23.76
-20.19
-16.52
-12.93
-9.38
-5.73
-1.96
1.82
5.34
8.30
10.54
12.04
12.98
13.55
13.92
14.13
14.21
14.11
13.84
13.44
13.00
12.58
12.14
11.62
10.91
9.94
8.72
7.38
5.99
4.62
3.21
1.71
0.08
-1.64
-3.33
-4.90
-6.35
-7.90
-9.81
-12.30
-15.38
-18.79
-22.05
-24.61
-26.02
-26.06
-24.78
-22.42
-19.34
-15.83
-12.05
-8.06
-3.93
0.21
4.07
7.30
9.69
11.23
12.14
12.79
13.48
14.32
15.13
15.64
15.56
14.87
13.81
12.78
12.13
11.99
12.15
12.15
11.52
10.00
7.69
5.02
2.47
0.41
-1.09
-2.27
-3.49
-5.07
-7.13
-9.61
-12.33
-15.09
-17.77
-20.24
-22.36
-23.85
-24.34
-23.51
-21.17
-17.46
-12.83
-7.94
-3.39
0.44
3.49
5.91
7.88
9.51
10.75
11.53
11.83
11.79
11.63
11.56
11.69
11.94
12.14
12.09
11.76
11.21
10.54
9.79
8.94
7.90
6.60
5.03
3.31
1.52
-0.26
-2.07
-3.99
-6.13
-8.51
-11.16
-14.04
-17.04
-19.97
-22.52
-24.31
-25.02
-24.50
-22.85
-20.36
-17.40
-14.23
-10.99
-7.66
-4.16
-0.47
3.27
6.78
9.73
11.84
13.06
13.57
13.72
13.92
14.43
15.35
16.54
17.78
18.77
19.29
19.20
18.49
17.23
15.57
13.64
11.56
9.43
7.32
5.30
3.41
1.66
0.02
-1.64
-3.44
-5.52
-7.90
-10.57
-13.51
-16.71
-20.04
-23.34
-26.25
-28.38
-29.32
-28.81
-26.80
-23.54
-19.48
-15.16
-11.06
-7.37
-4.01
-0.75
2.61
6.03
9.24
11.86
13.64
14.66
15.17
15.60
16.17
16.86
17.47
17.76
17.69
17.36
16.97
16.67
16.40
15.98
15.19
13.94
12.35
10.67
9.12
7.78
6.52
5.09
3.31
1.19
-1.07
-3.18
-4.98
-6.55
-8.18
-10.17
-12.72
-15.77
-19.07
-22.25
-24.90
-26.69
-27.36
-26.75
-24.83
-21.77
-17.86
-13.43
-8.82
-4.29
-0.01
3.87
7.21
9.97
12.14
13.84
15.23
16.44
17.52
18.45
19.19
19.70
20.01
20.13
20.09
19.85
19.33
18.48
17.32
15.94
14.51
13.18
11.96
10.82
9.55
8.00
6.13
4.06
2.01
0.19
-1.34
-2.73
-4.29
-6.30
-8.86
-11.85
-15.06
-18.29
-21.41
-24.28
-26.64
-28.05
-28.02
-26.24
-22.83
-18.31
-13.45
-8.87
-4.91
-1.50
1.55
4.35
6.83
8.80
10.09
10.70
10.78
10.61
10.50
10.73
11.44
12.58
13.95
15.17
15.86
15.79
15.02
13.78
12.42
11.12
9.88
8.58
7.10
5.40
3.57
1.68
-0.29
-2.42
-4.82
-7.57
-10.63
-13.90
-17.18
-20.24
-22.87
-24.84
-25.96
-26.08
-25.08
-22.93
-19.72
-15.71
-11.24
-6.69
-2.35
1.67
5.35
8.69
11.60
13.87
15.32
15.92
15.88
15.55
15.31
15.34
15.64
16.04
16.33
16.32
15.97
15.26
14.27
13.09
11.81
10.44
8.94
7.22
5.22
3.01
0.79
-1.26
-3.02
-4.57
-6.15
-7.92
-10.03
-12.47
-15.21
-18.29
-21.75
-25.57
-29.44
-32.73
-34.67
-34.65
-32.53
-28.68
-23.83
-18.72
-13.78
-9.05
-4.32
0.60
5.63
10.40
14.41
17.21
18.68
19.06
18.84
18.53
18.46
18.74
19.32
20.13
21.17
22.62
24.66
27.38
30.67
34.18
37.48
40.17
41.99
42.75
42.27
40.29
36.48
30.68
23.05
14.28
5.38
-2.53
-8.68
-12.93
-15.74
-17.97
-20.44
-23.53
-27.14
-30.74
-33.70
-35.58
-36.17
-35.59
-34.00
-31.52
-28.18
-24.01
-19.18
-13.94
-8.65
-3.64
0.88
4.82
8.18
11.00
13.31
15.20
16.84
18.42
20.13
22.01
23.98
25.79
27.17
27.89
27.86
27.09
25.65
23.66
21.27
18.72
16.23
14.02
12.22
10.78
9.54
8.21
6.55
4.38
1.63
-1.66
-5.41
-9.45
-13.55
-17.43
-20.82
-23.55
-25.58
-27.02
-27.96
-28.41
-28.18
-27.02
-24.71
-21.24
-16.86
-12.01
-7.15
-2.59
1.56
5.31
8.66
11.52
13.72
15.09
15.64
15.62
15.42
15.50
16.11
17.28
18.74
20.07
20.92
21.08
20.59
19.70
18.74
18.00
17.55
17.25
16.79
15.81
14.09
11.63
8.68
5.58
2.70
0.24
-1.77
-3.48
-5.16
-7.12
-9.58
-12.61
-16.07
-19.54
-22.47
-24.23
-24.41
-22.89
-19.97
-16.22
-12.25
-8.58
-5.49
-3.03
-1.19
0.08
0.87
1.29
1.59
2.04
2.82
3.95
5.20
6.23
6.75
6.70
6.25
5.69
5.34
5.33
5.61
5.98
6.18
6.00
5.25
3.84
1.74
-0.90
-3.82
-6.65
-9.09
-11.02
-12.55
-13.99
-15.62
-17.62
-19.95
-22.32
-24.30
-25.42
-25.29
-23.70
-20.76
-16.82
-12.47
-8.35
-4.97
-2.52
-0.83
0.45
1.70
3.08
4.54
5.86
6.85
7.45
7.79
8.05
8.33
8.64
8.86
8.84
8.55
8.08
7.58
7.21
6.98
6.76
6.36
5.57
4.24
2.36
0.11
-2.22
-4.26
-5.84
-6.95
-7.85
-8.98
-10.65
-13.02
-15.95
-19.11
-22.14
-24.67
-26.39
-27.01
-26.38
-24.47
-21.56
-18.13
-14.74
-11.79
-9.41
-7.41
-5.46
-3.23
-0.65
2.15
4.85
7.08
8.57
9.27
9.31
8.96
8.56
8.36
8.48
8.96
9.74
10.69
11.61
12.28
12.46
12.00
10.91
9.24
7.16
4.78
2.14
-0.57
-3.08
-5.09
-6.38
-6.95
-7.24
-7.84
-9.37
-12.14
-16.09
-20.87
-25.98
-30.92
-35.18
-38.24
-39.53
-38.67
-35.58
-30.66
-24.69
-18.59
-13.07
-8.41
-4.56
-1.15
2.08
5.23
8.21
10.78
12.81
14.36
15.62
16.84
18.18
19.63
21.05
22.29
23.26
23.94
24.32
24.41
24.13
23.43
22.27
20.72
18.93
17.11
15.41
13.87
12.44
11.03
9.54
7.98
6.41
4.93
3.59
2.33
0.95
-0.79
-3.06
-5.84
-9.00
-12.32
-15.59
-18.66
-21.34
-23.32
-24.22
-23.70
-21.73
-18.63
-14.99
-11.38
-8.09
-5.03
-1.87
1.61
5.39
9.15
12.47
15.07
16.90
18.12
18.91
19.42
19.67
19.69
19.55
19.35
19.20
19.15
19.17
19.13
18.92
18.44
17.68
16.68
15.52
14.34
13.22
12.25
11.36
10.48
9.49
8.27
6.76
4.96
2.95
0.82
-1.36
-3.53
-5.69
-7.87
-10.13
-12.50
-14.97
-17.53
-20.04
-22.29
-23.93
-24.61
-24.00
-22.03
-18.85
-14.89
-10.66
-6.61
-3.01
0.07
2.69
4.96
7.00
8.86
10.58
12.17
13.57
14.70
15.45
15.75
15.65
15.28
14.81
14.40
14.18
14.20
14.43
14.82
15.19
15.36
15.14
14.39
13.12
11.45
9.60
7.80
6.18
4.77
3.47
2.20
0.89
-0.55
-2.18
-4.08
-6.34
-8.95
-11.89
-15.02
-18.18
-21.19
-23.82
-25.88
-27.15
-27.48
-26.73
-24.92
-22.17
-18.72
-14.89
-10.99
-7.37
-4.36
-2.21
-1.08
-0.94
-1.56
-2.56
-3.52
-4.08
-4.02
-3.30
-2.08
-0.68
0.49
0.98
0.55
-0.79
-2.78
-4.98
-6.98
-8.59
-9.82
-10.85
-11.84
-12.86
-13.95
-15.12
-16.38
-17.66
-18.80
-19.53
-19.59
-18.94
-17.86
-16.80
-16.21
-16.41
-17.39
-18.90
-20.52
-21.67
-21.78
-20.38
-17.28
-12.69
-7.16
-1.42
3.88
8.35
11.87
14.52
16.42
17.73
18.67
19.53
20.60
22.02
23.65
25.12
26.07
26.29
25.80
24.75
23.28
21.40
19.07
16.26
13.04
9.64
6.29
3.18
0.41
-1.93
-3.84
-5.32
-6.44
-7.35
-8.30
-9.60
-11.52
-14.20
-17.65
-21.69
-25.95
-29.93
-33.12
-35.04
-35.44
-34.31
-31.84
-28.38
-24.32
-19.95
-15.46
-10.93
-6.36
-1.89
2.20
5.58
7.98
9.43
10.37
11.41
13.18
15.93
19.43
23.08
26.21
28.40
29.56
29.91
29.73
29.20
28.37
27.16
25.53
23.52
21.24
18.80
16.27
13.64
10.86
7.91
4.84
1.77
-1.23
-4.18
-7.21
-10.49
-14.10
-17.91
-21.56
-24.50
-26.29
-26.74
-25.90
-23.98
-21.23
-17.80
-13.72
-9.10
-4.17
0.68
4.99
8.42
10.90
12.58
13.77
14.70
15.44
15.92
16.00
15.64
14.92
14.01
13.13
12.50
12.21
12.20
12.27
12.14
11.57
10.42
8.66
6.42
3.87
1.21
-1.39
-3.85
-6.13
-8.29
-10.47
-12.87
-15.66
-18.90
-22.45
-25.93
-28.82
-30.54
-30.63
-28.85
-25.25
-20.18
-14.22
-8.04
-2.19
2.94
7.19
10.60
13.30
15.34
16.81
17.77
18.37
18.83
19.34
19.96
20.57
20.93
20.83
20.17
19.11
17.95
16.99
16.35
15.88
15.18
13.80
11.53
8.50
5.17
2.04
-0.58
-2.74
-4.80
-7.27
-10.52
-14.56
-19.06
-23.41
-26.91
-28.96
-29.14
-27.31
-23.64
-18.61
-12.91
-7.29
-2.31
1.73
4.89
7.40
9.61
11.74
13.89
15.99
17.85
19.27
20.08
20.16
19.52
18.25
16.58
14.84
13.42
12.61
12.55
13.05
13.77
14.25
14.18
13.41
12.06
10.29
8.28
6.13
3.87
1.56
-0.74
-3.01
-5.35
-7.90
-10.85
-14.14
-17.46
-20.31
-22.16
-22.68
-21.78
-19.65
-16.52
-12.68
-8.37
-3.87
0.50
4.43
7.60
9.87
11.26
11.99
12.34
12.56
12.80
13.11
13.48
13.93
14.49
15.21
16.05
16.81
17.23
17.06
16.26
14.92
13.31
11.66
10.01
8.24
6.21
3.87
1.39
-1.07
-3.37
-5.63
-8.06
-10.89
-14.22
-18.02
-22.12
-26.27
-30.19
-33.51
-35.84
-36.82
-36.28
-34.26
-30.93
-26.61
-21.52
-15.91
-10.08
-4.37
0.85
5.20
8.48
10.58
11.46
11.19
9.99
8.32
6.85
6.28
7.02
8.98
11.59
14.02
15.61
16.07
15.50
14.27
12.71
10.94
8.96
6.67
4.13
1.52
-0.92
-2.95
-4.50
-5.71
-6.88
-8.21
-9.82
-11.67
-13.60
-15.54
-17.52
-19.64
-21.89
-24.03
-25.60
-26.17
-25.38
-23.13
-19.51
-14.75
-9.07
-2.75
3.78
10.07
15.60
20.00
23.18
25.28
26.56
27.26
27.53
27.40
26.91
26.15
25.25
24.32
23.37
22.28
20.87
18.95
16.50
13.67
10.78
8.09
5.72
3.55
1.33
-1.21
-4.17
-7.44
-10.86
-14.34
-17.92
-21.73
-25.81
-29.90
-33.45
-35.76
-36.26
-34.78
-31.57
-27.26
-22.63
-18.37
-14.93
-12.43
-10.70
-9.42
-8.25
-6.86
-5.01
-2.54
0.68
4.64
9.18
13.89
18.24
21.70
23.96
25.00
25.16
24.87
24.49
24.12
23.68
22.97
21.83
20.26
18.33
16.23
14.17
12.26
10.49
8.77
6.86
4.58
1.89
-0.99
-3.64
-5.56
-6.36
-5.91
-4.32
-1.94
0.88
3.83
6.75
9.54
12.14
14.45
16.34
17.70
18.47
18.74
18.77
18.81
19.07
19.54
20.04
20.31
20.19
19.69
18.94
18.13
17.29
16.38
15.32
14.10
12.79
11.54
10.44
9.45
8.46
7.30
5.88
4.16
2.16
-0.15
-2.83
-5.87
-9.05
-12.02
-14.28
-15.43
-15.32
-14.16
-12.33
-10.27
-8.24
-6.25
-4.21
-2.00
0.34
2.68
4.81
6.65
8.23
9.67
11.04
12.31
13.37
14.07
14.39
14.43
14.39
14.50
14.82
15.25
15.50
15.28
14.46
13.18
11.76
10.60
9.89
9.53
9.14
8.30
6.74
4.50
1.84
-0.94
-3.63
-6.20
-8.67
-10.93
-12.76
-13.81
-13.86
-12.91
-11.21
-9.17
-7.18
-5.47
-4.04
-2.75
-1.44
-0.03
1.44
2.80
3.88
4.61
5.03
5.32
5.63
5.98
6.27
6.33
6.02
5.40
4.67
4.06
3.65
3.32
2.83
1.93
0.57
-1.15
-2.98
-4.73
-6.26
-7.61
-8.89
-10.22
-11.63
-13.03
-14.18
-14.81
-14.68
-13.74
-12.18
-10.32
-8.49
-6.80
-5.11
-3.21
-0.95
1.54
3.92
5.76
6.82
7.12
6.92
6.54
6.15
5.80
5.40
4.90
4.34
3.84
3.50
3.31
3.17
2.93
2.54
1.96
1.22
0.31
-0.75
-1.92
-3.13
-4.29
-5.40
-6.52
-7.81
-9.42
-11.36
-13.43
-15.30
-16.57
-16.92
-16.20
-14.53
-12.21
-9.72
-7.49
-5.84
-4.79
-4.14
-3.58
-2.99
-2.47
-2.25
-2.51
-3.10
-3.57
-3.42
-2.39
-0.68
1.12
2.41
2.86
2.62
2.11
1.73
1.64
1.70
1.62
1.19
0.41
-0.55
-1.47
-2.25
-2.91
-3.56
-4.33
-5.33
-6.57
-7.99
-9.52
-11.06
-12.55
-14.02
-15.43
-16.72
-17.67
-18.01
-17.51
-16.12
-14.00
-11.57
-9.21
-7.22
-5.67
-4.53
-3.65
-2.93
-2.28
-1.61
-0.88
-0.03
0.87
1.79
2.63
3.27
3.59
3.55
3.14
2.46
1.67
0.98
0.56
0.42
0.36
0.08
-0.71
-2.13
-4.04
-6.09
-7.87
-9.06
-9.60
-9.68
-9.60
-9.64
-9.96
-10.60
-11.53
-12.70
-14.14
-15.83
-17.67
-19.42
-20.69
-21.12
-20.44
-18.61
-15.87
-12.55
-9.05
-5.65
-2.58
0.06
2.21
3.79
4.83
5.39
5.71
6.07
6.68
7.60
8.69
9.67
10.30
10.53
10.46
10.34
10.31
10.40
10.41
10.15
9.50
8.52
7.42
6.44
5.67
5.08
4.54
3.93
3.21
2.40
1.48
0.41
-1.00
-2.87
-5.24
-8.01
-10.98
-13.85
-16.35
-18.24
-19.33
-19.45
-18.57
-16.72
-14.13
-11.13
-8.08
-5.24
-2.79
-0.70
1.12
2.73
4.20
5.54
6.75
7.84
8.82
9.64
10.20
10.39
10.07
9.19
7.90
6.41
4.98
3.83
3.01
2.44
1.99
1.45
0.72
-0.25
-1.43
-2.74
-4.09
-5.38
-6.53
-7.53
-8.40
-9.22
-10.14
-11.33
-12.88
-14.76
-16.79
-18.61
-19.83
-20.13
-19.43
-17.87
-15.78
-13.50
-11.30
-9.27
-7.34
-5.40
-3.35
-1.21
0.84
2.56
3.76
4.35
4.43
4.19
3.87
3.63
3.49
3.39
3.24
2.95
2.54
2.08
1.65
1.28
0.87
0.31
-0.50
-1.54
-2.72
-3.85
-4.86
-5.75
-6.64
-7.69
-8.99
-10.49
-12.03
-13.39
-14.35
-14.81
-14.70
-14.10
-13.08
-11.73
-10.10
-8.23
-6.16
-3.91
-1.59
0.64
2.58
4.10
5.16
5.86
6.33
6.64
6.84
6.93
6.87
6.64
6.23
5.61
4.76
3.72
2.56
1.43
0.39
-0.49
-1.22
-1.87
-2.53
-3.33
-4.33
-5.59
-7.14
-8.94
-10.95
-13.10
-15.35
-17.66
-19.94
-22.07
-23.81
-24.89
-25.10
-24.33
-22.67
-20.31
-17.54
-14.58
-11.60
-8.68
-5.82
-2.98
-0.27
2.16
4.11
5.42
6.12
6.44
6.70
7.15
7.87
8.69
9.35
9.64
9.50
9.07
8.55
8.18
7.96
7.83
7.48
6.66
5.20
3.12
0.65
-1.90
-4.20
-6.12
-7.68
-9.15
-10.78
-12.76
-15.10
-17.61
-20.01
-21.96
-23.25
-23.71
-23.31
-22.06
-20.07
-17.47
-14.38
-10.87
-7.02
-2.91
1.33
5.42
9.11
12.22
14.67
16.57
18.04
19.14
19.80
19.90
19.45
18.67
17.97
17.78
18.31
19.33
20.34
20.75
20.19
18.67
16.50
14.17
12.01
10.17
8.61
7.24
6.02
4.93
3.93
2.89
1.59
-0.23
-2.69
-5.69
-8.89
-11.83
-14.02
-15.12
-14.98
-13.70
-11.49
-8.68
-5.58
-2.37
0.90
4.21
7.55
10.82
13.78
16.17
17.84
18.74
19.03
18.90
18.55
18.11
17.69
17.36
17.23
17.35
17.68
18.09
18.39
18.40
18.02
17.26
16.15
14.78
13.25
11.65
10.11
8.68
7.36
6.06
4.62
2.84
0.64
-1.99
-4.86
-7.73
-10.28
-12.19
-13.20
-13.17
-12.10
-10.18
-7.70
-4.98
-2.42
-0.23
1.48
2.75
3.73
4.62
5.62
6.80
8.11
9.39
10.41
11.02
11.16
10.92
10.48
10.07
9.81
9.69
9.60
9.34
8.82
7.97
6.84
5.45
3.83
2.05
0.22
-1.49
-2.99
-4.27
-5.50
-6.94
-8.75
-10.84
-12.81
-14.10
-14.20
-12.92
-10.53
-7.62
-4.85
-2.67
-1.22
-0.25
0.55
1.52
2.73
4.11
5.49
6.72
7.74
8.58
9.24
9.67
9.81
9.56
8.93
8.05
7.14
6.40
5.93
5.71
5.58
5.29
4.66
3.57
2.04
0.19
-1.76
-3.57
-5.07
-6.23
-7.15
-8.10
-9.32
-10.90
-12.70
-14.28
-15.17
-14.99
-13.72
-11.59
-8.99
-6.32
-3.84
-1.63
0.27
1.86
3.14
4.12
4.84
5.41
5.95
6.54
7.26
8.08
8.91
9.64
10.19
10.56
10.85
11.21
11.77
12.47
13.08
13.34
12.98
11.94
10.31
8.27
5.99
3.58
1.09
-1.40
-3.79
-6.02
-8.14
-10.27
-12.44
-14.56
-16.30
-17.29
-17.26
-16.21
-14.40
-12.17
-9.80
-7.41
-5.00
-2.58
-0.33
1.56
2.89
3.72
4.24
4.76
5.45
6.32
7.14
7.63
7.63
7.20
6.55
5.97
5.66
5.61
5.65
5.52
5.06
4.23
3.17
2.11
1.19
0.45
-0.29
-1.24
-2.62
-4.46
-6.62
-8.85
-10.91
-12.64
-13.95
-14.73
-14.84
-14.08
-12.38
-9.90
-7.02
-4.24
-1.96
-0.35
0.73
1.56
2.40
3.30
4.17
4.90
5.44
5.92
6.46
7.11
7.77
8.26
8.38
8.12
7.62
7.13
6.79
6.57
6.28
5.66
4.53
2.95
1.10
-0.73
-2.38
-3.86
-5.35
-7.13
-9.44
-12.30
-15.50
-18.57
-20.95
-22.18
-22.05
-20.66
-18.33
-15.44
-12.30
-9.05
-5.75
-2.39
0.94
4.12
6.99
9.41
11.31
12.70
13.62
14.15
14.42
14.54
14.58
14.55
14.37
13.97
13.35
12.51
11.45
10.14
8.56
6.72
4.81
3.07
1.76
0.98
0.53
0.02
-1.00
-2.81
-5.41
-8.52
-11.76
-14.75
-17.23
-19.07
-20.20
-20.56
-20.14
-18.93
-17.02
-14.62
-11.96
-9.30
-6.81
-4.60
-2.66
-0.94
0.64
2.14
3.61
5.06
6.47
7.79
8.92
9.78
10.29
10.46
10.40
10.24
10.09
10.02
10.01
10.00
9.85
9.37
8.39
6.76
4.47
1.73
-1.09
-3.54
-5.37
-6.57
-7.45
-8.50
-10.06
-12.26
-14.95
-17.79
-20.39
-22.41
-23.55
-23.58
-22.39
-20.01
-16.74
-13.02
-9.31
-5.94
-3.00
-0.40
2.00
4.25
6.31
8.13
9.67
11.02
12.28
13.46
14.43
14.95
14.83
14.07
12.87
11.60
10.63
10.11
9.97
9.95
9.68
8.94
7.59
5.71
3.48
1.08
-1.24
-3.34
-5.08
-6.43
-7.54
-8.61
-9.93
-11.68
-13.87
-16.21
-18.28
-19.58
-19.68
-18.39
-15.80
-12.27
-8.31
-4.50
-1.29
1.05
2.55
3.40
3.91
4.37
4.99
5.84
6.86
7.90
8.72
9.09
8.86
8.06
6.83
5.45
4.20
3.26
2.68
2.44
2.45
2.55
2.52
2.16
1.28
-0.19
-2.15
-4.40
-6.70
-8.92
-11.07
-13.20
-15.37
-17.45
-19.16
-20.15
-20.18
-19.11
-17.10
-14.38
-11.16
-7.64
-3.92
-0.08
3.72
7.27
10.35
12.73
14.32
15.11
15.20
14.77
14.03
13.14
12.21
11.30
10.44
9.61
8.87
8.26
7.78
7.38
6.87
6.07
4.86
3.33
1.71
0.22
-1.10
-2.41
-4.00
-6.12
-8.79
-11.78
-14.68
-17.07
-18.66
-19.28
-18.92
-17.70
-15.76
-13.34
-10.72
-8.12
-5.71
-3.52
-1.50
0.44
2.37
4.34
6.31
8.21
9.90
11.29
12.24
12.72
12.76
12.51
12.17
11.92
11.86
11.98
12.17
12.22
11.99
11.29
10.08
8.36
6.16
3.67
1.04
-1.51
-3.82
-5.88
-7.80
-9.81
-12.13
-14.85
-17.85
-20.76
-23.09
-24.38
-24.31
-22.85
-20.24
-16.97
-13.49
-10.13
-6.98
-4.02
-1.22
1.32
3.42
4.95
5.99
6.79
7.65
8.74
10.00
11.15
11.93
12.19
12.03
11.68
11.36
11.14
10.98
10.71
10.18
9.33
8.17
6.80
5.38
4.05
2.88
1.83
0.75
-0.57
-2.36
-4.76
-7.73
-11.09
-14.44
-17.34
-19.37
-20.32
-20.14
-18.92
-16.86
-14.12
-10.84
-7.24
-3.53
0.04
3.29
6.10
8.47
10.43
12.01
13.13
13.76
13.92
13.78
13.55
13.36
13.25
13.15
12.96
12.68
12.39
12.25
12.26
12.31
12.10
11.35
9.94
7.97
5.74
3.54
1.56
-0.27
-2.08
-4.07
-6.29
-8.73
-11.18
-13.40
-15.08
-15.95
-15.80
-14.55
-12.25
-9.12
-5.40
-1.37
2.73
6.73
10.47
13.76
16.44
18.43
19.79
20.70
21.33
21.79
22.08
22.13
21.91
21.38
20.62
19.72
18.79
17.86
16.89
15.81
14.51
12.90
10.97
8.76
6.44
4.24
2.30
0.65
-0.88
-2.54
-4.55
-6.99
-9.71
-12.44
-14.86
-16.63
-17.41
-16.95
-15.11
-12.02
-8.05
-3.73
0.42
4.12
7.37
10.37
13.21
15.84
17.94
19.23
19.62
19.27
18.51
17.66
16.90
16.19
15.36
14.36
13.18
11.96
10.84
9.88
9.05
8.21
7.17
5.89
4.33
2.57
0.68
-1.39
-3.72
-6.41
-9.47
-12.74
-15.84
-18.36
-19.92
-20.28
-19.44
-17.55
-14.83
-11.56
-7.94
-4.16
-0.46
2.93
5.73
7.71
8.75
8.94
8.55
7.99
7.63
7.70
8.18
8.83
9.26
9.11
8.24
6.73
4.93
3.33
2.37
2.21
2.70
3.32
3.45
2.59
0.55
-2.43
-5.81
-8.85
-10.87
-11.40
-10.22
-7.42
-3.26
1.77
7.20
12.50
17.22
20.98
23.49
24.63
24.43
23.10
21.03
18.73
16.68
15.21
14.40
14.15
14.15
14.07
13.65
12.74
11.37
9.71
8.00
6.47
5.17
4.01
2.73
1.11
-1.03
-3.64
-6.55
-9.44
-12.05
-14.11
-15.48
-16.01
-15.61
-14.22
-11.88
-8.73
-5.10
-1.39
2.03
4.88
7.01
8.45
9.34
9.83
10.04
10.03
9.83
9.52
9.19
8.95
8.90
8.96
8.97
8.72
8.06
7.02
5.74
4.32
2.85
1.33
-0.24
-1.82
-3.33
-4.71
-6.00
-7.34
-8.80
-10.28
-11.40
-11.78
-11.15
-9.58
-7.43
-5.11
-2.84
-0.63
1.62
3.94
6.14
7.84
8.70
8.62
7.80
6.66
5.61
4.85
4.37
4.05
3.72
3.31
2.85
2.39
2.04
1.85
1.81
1.95
2.17
2.32
2.22
1.67
0.61
-0.87
-2.54
-4.19
-5.73
-7.22
-8.71
-10.22
-11.56
-12.45
-12.61
-11.92
-10.48
-8.51
-6.31
-4.05
-1.91
-0.01
1.53
2.55
3.02
2.95
2.52
1.96
1.49
1.23
1.23
1.43
1.73
1.98
2.08
1.96
1.64
1.18
0.64
0.07
-0.58
-1.35
-2.25
-3.27
-4.33
-5.40
-6.52
-7.78
-9.21
-10.73
-12.19
-13.40
-14.25
-14.67
-14.65
-14.16
-13.16
-11.64
-9.72
-7.61
-5.56
-3.82
-2.49
-1.58
-0.99
-0.67
-0.49
-0.41
-0.36
-0.34
-0.35
-0.47
-0.71
-1.04
-1.46
-1.90
-2.41
-3.03
-3.82
-4.71
-5.59
-6.36
-6.95
-7.42
-7.90
-8.50
-9.27
-10.23
-11.26
-12.28
-13.08
-13.48
-13.25
-12.31
-10.72
-8.71
-6.61
-4.67
-3.02
-1.63
-0.44
0.56
1.35
1.89
2.16
2.26
2.31
2.41
2.61
2.85
2.99
2.83
2.21
1.04
-0.58
-2.35
-3.87
-4.79
-4.96
-4.57
-4.06
-3.91
-4.45
-5.72
-7.44
-9.22
-10.71
-11.71
-12.24
-12.51
-12.73
-13.03
-13.35
-13.46
-13.09
-12.11
-10.56
-8.66
-6.62
-4.54
-2.39
-0.13
2.15
4.22
5.77
6.62
6.76
6.36
5.66
4.81
3.89
2.94
2.13
1.63
1.64
2.13
2.85
3.39
3.38
2.63
1.26
-0.38
-1.90
-2.96
-3.46
-3.57
-3.58
-3.81
-4.44
-5.47
-6.76
-8.07
-9.20
-10.03
-10.48
-10.52
-10.14
-9.35
-8.24
-6.88
-5.40
-3.86
-2.30
-0.77
0.61
1.71
2.41
2.72
2.77
2.69
2.62
2.61
2.61
2.60
2.58
2.61
2.77
3.04
3.35
3.63
3.84
3.97
4.13
4.40
4.80
5.29
5.69
5.81
5.51
4.76
3.67
2.46
1.24
0.00
-1.38
-3.02
-4.89
-6.70
-8.10
-8.72
-8.39
-7.22
-5.47
-3.39
-1.20
1.04
3.37
5.77
8.19
10.52
12.59
14.26
15.39
15.99
16.17
16.20
16.38
16.93
18.01
19.49
21.09
22.34
22.73
21.77
19.22
15.14
10.06
4.72
-0.07
-3.80
-6.39
-8.22
-9.92
-11.96
-14.56
-17.56
-20.62
-23.41
-25.70
-27.36
-28.29
-28.34
-27.42
-25.58
-23.04
-20.20
-17.34
-14.62
-11.96
-9.25
-6.49
-3.92
-1.92
-0.91
-1.04
-2.12
-3.63
-4.94
-5.56
-5.23
-4.09
-2.51
-0.94
0.26
0.87
0.89
0.38
-0.51
-1.64
-2.85
-3.96
-4.89
-5.69
-6.53
-7.67
-9.23
-11.21
-13.37
-15.34
-16.81
-17.52
-17.35
-16.26
-14.28
-11.54
-8.27
-4.88
-1.81
0.55
2.00
2.59
2.58
2.37
2.33
2.70
3.49
4.51
5.47
5.98
5.82
4.86
3.21
1.16
-0.87
-2.47
-3.35
-3.49
-3.06
-2.41
-1.89
-1.69
-1.88
-2.47
-3.54
-5.21
-7.49
-10.20
-12.82
-14.72
-15.40
-14.82
-13.35
-11.53
-9.76
-8.13
-6.37
-4.17
-1.43
1.65
4.66
7.20
9.14
10.50
11.49
12.19
12.60
12.63
12.23
11.48
10.60
9.84
9.29
8.91
8.54
7.91
6.88
5.40
3.60
1.69
-0.13
-1.70
-2.97
-4.03
-5.06
-6.31
-8.03
-10.33
-13.12
-16.03
-18.54
-20.11
-20.40
-19.40
-17.38
-14.78
-12.00
-9.31
-6.76
-4.34
-1.94
0.51
3.05
5.76
8.63
11.55
14.31
16.61
18.20
18.96
18.95
18.42
17.64
16.88
16.25
15.77
15.34
14.89
14.38
13.83
13.33
12.91
12.54
12.12
11.48
10.44
8.91
6.92
4.57
1.88
-1.09
-4.32
-7.66
-10.80
-13.27
-14.55
-14.32
-12.62
-9.80
-6.36
-2.78
0.73
4.20
7.71
11.24
14.64
17.58
19.84
21.33
22.20
22.73
23.15
23.56
23.89
23.97
23.67
22.99
22.00
20.90
19.84
18.89
18.03
17.11
16.01
14.61
12.90
10.98
9.00
7.09
5.24
3.34
1.25
-1.16
-3.87
-6.59
-8.93
-10.50
-11.04
-10.63
-9.52
-8.10
-6.67
-5.39
-4.24
-3.16
-2.04
-0.83
0.51
2.00
3.56
4.97
5.90
6.00
5.13
3.45
1.46
-0.12
-0.77
-0.24
1.27
3.29
5.26
6.77
7.60
7.71
7.16
6.01
4.34
2.25
-0.15
-2.76
-5.44
-8.05
-10.36
-12.09
-12.96
-12.80
-11.57
-9.47
-6.82
-4.04
-1.50
0.48
1.78
2.48
2.83
3.18
3.75
4.60
5.56
6.45
7.11
7.50
7.65
7.55
7.16
6.48
5.59
4.71
4.05
3.66
3.46
3.21
2.77
2.09
1.17
0.05
-1.27
-2.76
-4.30
-5.72
-6.87
-7.77
-8.64
-9.69
-10.93
-12.08
-12.71
-12.47
-11.30
-9.49
-7.48
-5.63
-4.10
-2.84
-1.73
-0.64
0.46
1.57
2.57
3.38
3.91
4.16
4.22
4.27
4.45
4.77
5.11
5.25
5.01
4.37
3.43
2.33
1.22
0.22
-0.63
-1.28
-1.75
-2.05
-2.27
-2.58
-3.17
-4.23
-5.90
-8.18
-10.89
-13.64
-15.86
-17.01
-16.76
-15.18
-12.71
-9.97
-7.50
-5.56
-4.10
-2.88
-1.68
-0.39
0.93
2.16
3.22
4.09
4.80
5.38
5.77
5.87
5.59
4.89
3.88
2.79
1.85
1.25
1.01
0.99
0.99
0.83
0.44
-0.11
-0.69
-1.19
-1.62
-2.02
-2.50
-3.13
-4.02
-5.25
-6.90
-8.92
-11.11
-13.09
-14.46
-14.90
-14.33
-12.89
-10.88
-8.56
-6.12
-3.66
-1.22
1.04
2.97
4.35
5.12
5.35
5.28
5.16
5.20
5.50
5.99
6.57
7.07
7.41
7.55
7.53
7.33
6.95
6.36
5.56
4.61
3.55
2.50
1.54
0.75
0.13
-0.34
-0.78
-1.40
-2.41
-3.86
-5.65
-7.51
-9.12
-10.30
-11.00
-11.32
-11.28
-10.78
-9.65
-7.82
-5.42
-2.81
-0.37
1.66
3.26
4.61
5.88
7.14
8.29
9.19
9.61
9.45
8.70
7.48
6.01
4.55
3.36
2.62
2.38
2.60
3.16
3.93
4.71
5.29
5.38
4.83
3.64
2.07
0.45
-0.93
-1.99
-2.95
-4.10
-5.74
-7.91
-10.46
-13.01
-15.13
-16.38
-16.51
-15.39
-13.15
-10.15
-6.82
-3.64
-0.95
1.08
2.39
2.96
2.91
2.43
1.82
1.45
1.57
2.20
3.15
4.13
4.95
5.54
5.97
6.28
6.43
6.24
5.54
4.30
2.68
0.91
-0.72
-1.97
-2.81
-3.27
-3.59
-4.11
-5.20
-7.10
-9.75
-12.71
-15.41
-17.30
-18.10
-17.77
-16.55
-14.65
-12.36
-9.91
-7.47
-5.17
-3.06
-1.10
0.80
2.66
4.40
5.90
7.02
7.78
8.15
8.13
7.71
6.83
5.58
4.31
3.49
3.52
4.52
6.21
8.02
9.43
10.06
9.83
8.93
7.62
6.07
4.49
2.99
1.73
0.81
0.20
-0.36
-1.36
-3.29
-6.39
-10.38
-14.47
-17.60
-18.88
-17.99
-15.24
-11.46
-7.51
-3.99
-0.97
1.69
4.21
6.52
8.42
9.61
10.07
10.02
9.87
9.99
10.46
11.10
11.57
11.55
10.91
9.76
8.37
7.06
6.10
5.63
5.61
5.93
6.34
6.57
6.41
5.69
4.42
2.76
1.00
-0.58
-1.81
-2.77
-3.73
-5.01
-6.87
-9.33
-12.20
-15.15
-17.81
-19.82
-20.91
-20.92
-19.92
-18.10
-15.86
-13.58
-11.52
-9.70
-7.95
-6.11
-4.16
-2.21
-0.47
0.88
1.79
2.38
2.79
3.18
3.64
4.15
4.65
5.02
5.23
5.31
5.38
5.57
5.93
6.37
6.69
6.74
6.45
5.85
5.04
4.10
2.89
1.25
-0.96
-3.74
-6.87
-9.88
-12.24
-13.46
-13.29
-11.72
-9.04
-5.77
-2.46
0.37
2.49
3.90
4.85
5.67
6.67
8.00
9.56
11.11
12.31
12.93
12.93
12.47
11.80
11.05
10.32
9.53
8.66
7.81
7.17
6.87
6.88
6.97
6.77
6.09
4.97
3.73
2.74
2.24
2.16
2.16
1.79
0.65
-1.48
-4.58
-8.37
-12.35
-15.88
-18.32
-19.21
-18.44
-16.30
-13.36
-10.23
-7.38
-5.05
-3.29
-1.95
-0.94
-0.10
0.70
1.60
2.68
3.90
5.07
5.92
6.23
5.89
4.98
3.81
2.76
2.19
2.32
3.12
4.28
5.30
5.66
5.01
3.34
0.99
-1.49
-3.51
-4.65
-4.84
-4.26
-3.39
-2.76
-2.89
-4.06
-6.22
-8.96
-11.56
-13.22
-13.33
-11.67
-8.57
-4.70
-0.93
2.16
4.32
5.76
6.86
7.93
9.11
10.30
11.34
12.10
12.56
12.75
12.68
12.35
11.80
11.14
10.55
10.15
9.95
9.83
9.61
9.16
8.45
7.51
6.35
4.98
3.46
1.92
0.60
-0.37
-1.11
-1.94
-3.31
-5.52
-8.46
-11.65
-14.35
-15.86
-15.79
-14.08
-11.05
-7.21
-3.12
0.61
3.52
5.32
6.03
5.95
5.58
5.36
5.55
6.07
6.62
6.86
6.55
5.69
4.49
3.22
2.12
1.26
0.62
0.20
-0.03
-0.10
-0.09
-0.21
-0.66
-1.57
-2.88
-4.35
-5.72
-6.83
-7.76
-8.82
-10.28
-12.17
-14.10
-15.39
-15.32
-13.56
-10.25
-6.11
-1.99
1.41
3.78
5.22
6.06
6.61
7.02
7.27
7.33
7.19
6.99
6.92
7.06
7.39
7.76
7.99
7.98
7.69
7.13
6.32
5.22
3.83
2.19
0.46
-1.14
-2.49
-3.65
-4.86
-6.41
-8.48
-11.00
-13.61
-15.89
-17.40
-17.87
-17.22
-15.46
-12.74
-9.30
-5.48
-1.71
1.65
4.41
6.53
8.14
9.38
10.27
10.71
10.58
9.81
8.53
7.08
5.76
4.87
4.40
4.12
3.68
2.82
1.48
-0.11
-1.56
-2.54
-2.96
-3.05
-3.32
-4.32
-6.43
-9.65
-13.62
-17.67
-21.02
-22.99
-23.18
-21.52
-18.30
-14.14
-9.71
-5.58
-2.05
0.88
3.37
5.58
7.53
9.07
9.99
10.24
9.90
9.23
8.47
7.71
6.89
5.90
4.74
3.55
2.56
1.94
1.64
1.45
1.09
0.41
-0.58
-1.74
-2.96
-4.30
-5.95
-8.12
-10.89
-14.12
-17.43
-20.33
-22.36
-23.18
-22.62
-20.74
-17.79
-14.12
-10.09
-6.01
-2.05
1.72
5.23
8.41
11.18
13.39
14.95
15.83
16.03
15.66
14.87
13.88
12.94
12.23
11.85
11.70
11.58
11.24
10.49
9.27
7.61
5.62
3.40
1.09
-1.23
-3.48
-5.69
-7.96
-10.52
-13.52
-16.96
-20.56
-23.75
-25.88
-26.40
-25.09
-22.12
-17.96
-13.24
-8.51
-4.12
-0.20
3.31
6.55
9.59
12.43
14.90
16.72
17.62
17.41
16.13
14.03
11.68
9.70
8.62
8.66
9.65
11.09
12.29
12.73
12.14
10.55
8.23
5.51
2.70
-0.05
-2.71
-5.34
-8.12
-11.16
-14.53
-18.15
-21.81
-25.10
-27.50
-28.47
-27.60
-24.78
-20.37
-15.13
-9.97
-5.48
-1.70
1.95
6.32
11.88
18.32
24.59
29.37
31.81
31.96
30.76
29.48
28.99
29.40
30.07
30.06
28.75
26.09
22.65
19.20
16.32
14.14
12.37
10.56
8.39
5.86
3.20
0.75
-1.35
-3.20
-5.12
-7.43
-10.26
-13.43
-16.44
-18.74
-19.79
-19.34
-17.44
-14.40
-10.70
-6.81
-3.04
0.55
3.95
7.20
10.19
12.68
14.36
15.10
15.02
14.42
13.67
12.97
12.29
11.35
9.92
7.98
5.77
3.80
2.54
2.16
2.42
2.80
2.74
1.87
0.18
-2.11
-4.74
-7.57
-10.63
-14.07
-18.02
-22.49
-27.24
-31.86
-35.81
-38.57
-39.69
-39.04
-36.77
-33.38
-29.50
-25.73
-22.49
-19.93
-18.02
-16.64
-15.71
-15.19
-15.07
-15.23
-15.49
-15.67
-15.59
-15.29
-14.89
-14.59
-14.46
-14.35
-14.03
-13.33
-12.33
-11.42
-11.11
-11.68
-12.98
-14.50
-15.58
-15.87
-15.52
-15.11
-15.26
-16.26
-17.85
-19.40
-20.32
-20.40
-20.09
-20.04
-20.89
-22.70
-25.04
-27.09
-28.17
-27.99
-26.60
-24.21
-20.83
-16.27
-10.29
-2.89
5.50
14.08
21.94
28.42
33.27
36.64
38.98
40.75
42.26
43.58
44.54
44.79
44.04
42.13
39.27
35.87
32.45
29.41
26.87
24.75
22.85
21.11
19.49
18.03
16.60
14.93
12.65
9.44
5.25
0.34
-4.78
-9.44
-13.07
-15.27
-15.94
-15.17
-13.18
-10.22
-6.48
-2.11
2.70
7.73
12.64
17.10
20.78
23.50
25.23
26.08
26.22
25.84
25.11
24.17
23.16
22.20
21.35
20.64
19.92
18.99
17.60
15.56
12.91
9.87
6.80
3.97
1.46
-0.93
-3.51
-6.55
-10.15
-14.23
-18.58
-22.93
-26.99
-30.40
-32.75
-33.64
-32.78
-30.06
-25.62
-19.83
-13.12
-5.92
1.34
8.22
14.29
19.24
22.88
25.27
26.72
27.65
28.42
29.19
29.88
30.21
29.87
28.63
26.44
23.44
19.89
16.13
12.54
9.45
7.11
5.64
4.88
4.50
3.99
2.87
0.75
-2.50
-6.69
-11.34
-15.71
-18.92
-20.23
-19.17
-15.82
-10.66
-4.53
1.73
7.49
12.42
16.49
19.75
22.29
24.16
25.41
26.18
26.61
26.78
26.74
26.38
25.65
24.56
23.24
21.78
20.22
18.48
16.41
14.03
11.47
8.93
6.50
4.03
1.13
-2.59
-7.32
-12.77
-18.32
-23.13
-26.49
-27.92
-27.35
-24.95
-21.16
-16.45
-11.32
-6.14
-1.18
3.42
7.56
11.20
14.30
16.80
18.67
19.90
20.49
20.50
20.03
19.26
18.42
17.68
17.13
16.71
16.20
15.33
13.90
11.86
9.28
6.35
3.26
0.15
-2.90
-5.84
-8.68
-11.40
-14.02
-16.54
-18.93
-21.05
-22.66
-23.38
-22.82
-20.67
-16.88
-11.66
-5.53
0.91
7.05
12.46
16.87
20.18
22.47
23.93
24.79
25.30
25.63
25.81
25.80
25.50
24.91
24.13
23.29
22.47
21.60
20.50
18.96
16.82
14.14
11.09
7.91
4.80
1.88
-0.82
-3.39
-5.99
-8.82
-12.05
-15.70
-19.58
-23.22
-26.03
-27.43
-27.08
-24.94
-21.29
-16.60
-11.37
-6.07
-1.04
3.45
7.21
10.11
12.16
13.49
14.27
14.71
14.97
15.13
15.25
15.29
15.24
15.05
14.60
13.82
12.63
11.06
9.22
7.25
5.29
3.38
1.48
-0.52
-2.71
-5.16
-7.91
-10.93
-14.19
-17.57
-20.90
-23.85
-25.99
-26.91
-26.30
-24.12
-20.58
-16.13
-11.32
-6.68
-2.57
0.81
3.46
5.49
7.04
8.22
9.09
9.68
9.95
9.89
9.53
8.99
8.45
8.09
8.07
8.42
9.03
9.69
10.13
10.11
9.44
8.08
6.12
3.75
1.19
-1.33
-3.73
-6.09
-8.58
-11.40
-14.65
-18.15
-21.53
-24.30
-26.05
-26.60
-25.98
-24.40
-22.03
-18.93
-15.03
-10.31
-4.88
0.90
6.56
11.62
15.72
18.71
20.54
21.28
21.02
19.99
18.58
17.27
16.44
16.26
16.51
16.70
16.31
15.04
12.93
10.30
7.57
5.12
3.10
1.53
0.22
-1.06
-2.62
-4.76
-7.71
-11.52
-15.89
-20.25
-23.76
-25.64
-25.39
-23.03
-19.04
-14.10
-8.88
-3.78
1.08
5.74
10.15
14.08
17.16
19.10
19.85
19.64
18.89
17.97
17.15
16.46
15.89
15.42
15.06
14.83
14.60
14.20
13.44
12.20
10.53
8.56
6.47
4.36
2.26
0.11
-2.19
-4.74
-7.55
-10.60
-13.75
-16.75
-19.30
-21.08
-21.80
-21.30
-19.59
-16.92
-13.69
-10.39
-7.41
-4.92
-2.77
-0.64
1.81
4.62
7.51
9.94
11.40
11.71
11.06
9.99
9.02
8.49
8.42
8.60
8.77
8.69
8.24
7.33
5.89
3.93
1.59
-0.86
-3.10
-4.90
-6.26
-7.40
-8.68
-10.39
-12.68
-15.47
-18.47
-21.30
-23.54
-24.81
-24.83
-23.54
-21.07
-17.78
-14.14
-10.55
-7.27
-4.32
-1.67
0.74
2.87
4.63
5.95
6.86
7.53
8.11
8.67
9.20
9.60
9.83
9.93
9.93
9.80
9.36
8.39
6.76
4.57
2.16
-0.02
-1.65
-2.66
-3.25
-3.82
-4.71
-6.13
-8.13
-10.58
-13.23
-15.72
-17.62
-18.53
-18.16
-16.49
-13.73
-10.26
-6.48
-2.70
0.93
4.29
7.23
9.49
10.81
11.06
10.32
8.93
7.39
6.11
5.37
5.22
5.54
6.11
6.65
6.88
6.59
5.66
4.14
2.23
0.16
-1.85
-3.72
-5.46
-7.13
-8.81
-10.51
-12.22
-13.90
-15.49
-16.90
-17.94
-18.34
-17.85
-16.27
-13.67
-10.29
-6.55
-2.86
0.51
3.47
6.06
8.29
10.03
11.01
10.99
9.95
8.16
6.11
4.33
3.16
2.65
2.68
2.95
3.22
3.27
2.97
2.26
1.19
-0.12
-1.49
-2.78
-4.01
-5.29
-6.80
-8.66
-10.84
-13.15
-15.28
-16.92
-17.86
-18.03
-17.42
-16.13
-14.20
-11.71
-8.73
-5.44
-2.08
1.05
3.70
5.74
7.19
8.12
8.66
8.85
8.72
8.29
7.61
6.78
5.87
4.91
3.90
2.81
1.74
0.78
0.09
-0.31
-0.52
-0.78
-1.34
-2.38
-3.88
-5.75
-7.85
-10.11
-12.44
-14.78
-16.90
-18.45
-19.09
-18.60
-17.04
-14.71
-12.06
-9.42
-6.93
-4.54
-2.09
0.44
2.97
5.25
7.07
8.31
9.03
9.35
9.40
9.25
8.88
8.28
7.48
6.56
5.62
4.73
3.91
3.11
2.31
1.49
0.60
-0.43
-1.70
-3.32
-5.33
-7.64
-10.09
-12.51
-14.76
-16.76
-18.41
-19.56
-20.00
-19.56
-18.15
-15.90
-13.11
-10.12
-7.18
-4.40
-1.80
0.58
2.59
4.06
4.87
5.05
4.80
4.42
4.12
3.98
3.97
3.95
3.82
3.48
2.88
1.96
0.72
-0.77
-2.34
-3.80
-5.03
-5.98
-6.73
-7.41
-8.23
-9.43
-11.25
-13.79
-16.84
-19.86
-22.10
-22.90
-21.99
-19.60
-16.34
-12.89
-9.65
-6.73
-3.99
-1.28
1.39
3.81
5.73
6.96
7.48
7.38
6.88
6.16
5.42
4.79
4.31
3.94
3.57
3.10
2.39
1.42
0.22
-1.15
-2.54
-3.85
-4.93
-5.80
-6.54
-7.40
-8.69
-10.64
-13.32
-16.54
-19.94
-23.03
-25.41
-26.75
-26.90
-25.81
-23.51
-20.18
-16.13
-11.83
-7.77
-4.38
-1.83
0.03
1.52
3.02
4.70
6.51
8.13
9.26
9.74
9.62
9.14
8.54
7.97
7.45
6.93
6.38
5.78
5.13
4.44
3.65
2.72
1.67
0.54
-0.72
-2.21
-4.12
-6.60
-9.68
-13.20
-16.89
-20.48
-23.77
-26.59
-28.75
-29.96
-29.89
-28.29
-25.20
-20.97
-16.21
-11.57
-7.47
-4.04
-1.11
1.67
4.50
7.42
10.21
12.55
14.11
14.81
14.77
14.32
13.78
13.38
13.10
12.83
12.38
11.67
10.80
9.94
9.19
8.48
7.57
6.18
4.18
1.67
-1.06
-3.77
-6.32
-8.85
-11.57
-14.69
-18.18
-21.79
-25.10
-27.59
-28.81
-28.47
-26.47
-22.98
-18.40
-13.25
-8.09
-3.31
0.91
4.53
7.67
10.40
12.77
14.68
16.04
16.78
16.95
16.75
16.44
16.21
16.13
16.19
16.28
16.34
16.31
16.17
15.83
15.16
14.06
12.46
10.45
8.20
5.93
3.75
1.68
-0.38
-2.52
-4.83
-7.35
-10.09
-13.11
-16.38
-19.76
-22.90
-25.24
-26.25
-25.51
-22.98
-19.00
-14.16
-9.12
-4.35
-0.16
3.40
6.36
8.75
10.60
11.92
12.69
12.99
12.90
12.55
12.08
11.65
11.37
11.30
11.35
11.35
11.12
10.55
9.61
8.38
6.95
5.41
3.77
2.02
0.06
-2.25
-5.09
-8.61
-12.77
-17.31
-21.71
-25.28
-27.34
-27.43
-25.43
-21.61
-16.53
-10.88
-5.31
-0.30
3.95
7.46
10.35
12.76
14.69
16.04
16.72
16.75
16.29
15.62
15.00
14.51
14.10
13.58
12.80
11.67
10.20
8.45
6.38
4.02
1.31
-1.68
-4.78
-7.81
-10.66
-13.35
-16.06
-19.02
-22.38
-26.08
-29.73
-32.76
-34.51
-34.46
-32.45
-28.62
-23.47
-17.56
-11.47
-5.58
-0.20
4.47
8.32
11.32
13.54
15.15
16.36
17.32
18.08
18.64
18.96
19.08
19.04
18.85
18.41
17.62
16.36
14.71
12.87
11.15
9.76
8.71
7.78
6.58
4.67
1.74
-2.23
-7.00
-12.02
-16.60
-20.08
-21.91
-21.83
-19.87
-16.30
-11.55
-6.14
-0.62
4.52
8.91
12.42
15.12
17.26
19.07
20.67
22.02
22.96
23.32
22.99
22.05
20.68
19.14
17.71
16.54
15.65
14.90
14.07
12.92
11.30
9.16
6.59
3.76
0.84
-2.01
-4.73
-7.34
-9.97
-12.77
-15.84
-19.09
-22.23
-24.78
-26.20
-26.03
-23.97
-19.99
-14.26
-7.23
0.48
8.07
14.76
19.98
23.50
25.47
26.30
26.46
26.23
25.73
24.93
23.85
22.65
21.58
20.86
20.50
20.29
19.84
18.81
17.06
14.73
12.14
9.60
7.27
5.12
2.94
0.49
-2.40
-5.80
-9.63
-13.67
-17.58
-20.83
-22.88
-23.26
-21.75
-18.41
-13.67
-8.09
-2.25
3.33
8.33
12.49
15.58
17.44
18.05
17.55
16.36
14.99
13.97
13.63
13.93
14.63
15.28
15.51
15.07
13.98
12.41
10.58
8.77
7.10
5.62
4.24
2.82
1.14
-1.03
-3.89
-7.48
-11.53
-15.45
-18.43
-19.69
-18.77
-15.74
-11.15
-5.81
-0.46
4.47
8.80
12.54
15.64
18.00
19.46
19.99
19.82
19.31
18.82
18.55
18.49
18.44
18.17
17.57
16.65
15.52
14.31
13.10
11.90
10.69
9.43
8.05
6.45
4.46
1.95
-1.18
-4.83
-8.76
-12.55
-15.68
-17.60
-17.92
-16.50
-13.54
-9.54
-5.11
-0.82
3.00
6.32
9.30
12.10
14.74
17.04
18.74
19.65
19.80
19.43
18.86
18.34
18.02
17.84
17.68
17.36
16.81
16.03
15.09
14.03
12.85
11.44
9.69
7.49
4.82
1.82
-1.39
-4.65
-7.88
-10.98
-13.81
-16.07
-17.35
-17.27
-15.66
-12.66
-8.74
-4.44
-0.26
3.52
6.81
9.57
11.75
13.25
14.03
14.13
13.81
13.36
13.02
12.89
12.88
12.86
12.74
12.51
12.17
11.74
11.15
10.25
8.95
7.22
5.16
2.94
0.73
-1.37
-3.36
-5.36
-7.55
-10.08
-12.88
-15.65
-17.87
-18.95
-18.47
-16.39
-13.05
-9.10
-5.18
-1.79
0.88
2.93
4.53
5.87
7.00
7.88
8.39
8.42
7.98
7.23
6.40
5.69
5.20
4.83
4.42
3.83
3.05
2.15
1.18
0.10
-1.23
-2.97
-5.16
-7.65
-10.17
-12.49
-14.48
-16.14
-17.47
-18.36
-18.57
-17.93
-16.36
-14.04
-11.27
-8.41
-5.69
-3.21
-1.00
0.93
2.52
3.69
4.36
4.53
4.27
3.67
2.97
2.34
1.95
1.86
1.97
2.08
1.96
1.50
0.74
-0.14
-0.99
-1.75
-2.56
-3.64
-5.15
-7.06
-9.20
-11.33
-13.34
-15.26
-17.14
-18.94
-20.36
-20.98
-20.43
-18.62
-15.80
-12.46
-9.10
-6.01
-3.21
-0.66
1.66
3.61
4.97
5.61
5.62
5.29
5.00
4.97
5.20
5.44
5.39
4.81
3.64
2.06
0.32
-1.31
-2.65
-3.64
-4.38
-5.02
-5.75
-6.75
-8.11
-9.82
-11.80
-13.92
-15.96
-17.72
-18.92
-19.31
-18.71
-17.13
-14.76
-11.95
-9.11
-6.55
-4.40
-2.61
-1.04
0.44
1.86
3.22
4.51
5.71
6.79
7.66
8.20
8.33
8.10
7.69
7.28
7.02
6.86
6.61
6.04
5.06
3.73
2.20
0.68
-0.72
-1.98
-3.19
-4.43
-5.81
-7.42
-9.36
-11.68
-14.32
-17.03
-19.36
-20.83
-20.99
-19.68
-17.05
-13.53
-9.65
-5.93
-2.69
-0.03
2.12
3.91
5.46
6.80
7.90
8.73
9.19
9.27
8.96
8.34
7.55
6.75
6.12
5.72
5.54
5.44
5.21
4.70
3.84
2.66
1.26
-0.22
-1.68
-3.07
-4.34
-5.54
-6.76
-8.14
-9.81
-11.85
-14.15
-16.48
-18.42
-19.55
-19.56
-18.37
-16.17
-13.29
-10.14
-7.05
-4.22
-1.75
0.33
2.02
3.33
4.31
5.10
5.81
6.48
7.08
7.47
7.51
7.13
6.38
5.44
4.49
3.63
2.87
2.17
1.45
0.68
-0.14
-1.01
-2.00
-3.21
-4.77
-6.75
-9.11
-11.72
-14.33
-16.65
-18.42
-19.41
-19.48
-18.59
-16.78
-14.16
-10.98
-7.56
-4.24
-1.37
0.90
2.56
3.80
4.74
5.50
6.03
6.29
6.26
6.04
5.79
5.64
5.60
5.65
5.72
5.82
5.99
6.18
6.22
5.84
4.80
3.06
0.81
-1.56
-3.63
-5.17
-6.22
-7.06
-8.09
-9.64
-11.83
-14.46
-17.06
-19.02
-19.81
-19.20
-17.30
-14.48
-11.24
-7.98
-4.92
-2.11
0.45
2.72
4.57
5.86
6.50
6.54
6.17
5.68
5.29
5.11
5.09
5.08
4.91
4.54
4.00
3.45
2.93
2.38
1.70
0.76
-0.47
-1.88
-3.35
-4.78
-6.19
-7.70
-9.48
-11.60
-14.03
-16.57
-18.92
-20.67
-21.42
-20.87
-19.01
-16.07
-12.56
-8.97
-5.68
-2.78
-0.24
2.02
3.97
5.48
6.44
6.91
7.00
6.91
6.71
6.37
5.82
5.05
4.21
3.51
3.08
2.89
2.77
2.46
1.77
0.67
-0.76
-2.36
-3.97
-5.54
-7.09
-8.73
-10.55
-12.64
-14.95
-17.36
-19.61
-21.41
-22.42
-22.33
-20.97
-18.38
-14.87
-10.91
-7.05
-3.70
-0.98
1.15
2.88
4.34
5.52
6.35
6.81
6.99
7.06
7.19
7.43
7.74
7.98
8.06
7.97
7.74
7.39
6.83
5.96
4.69
3.02
1.15
-0.68
-2.23
-3.43
-4.38
-5.40
-6.87
-9.10
-12.16
-15.76
-19.34
-22.13
-23.48
-23.02
-20.80
-17.25
-13.01
-8.72
-4.78
-1.37
1.58
4.14
6.31
8.02
9.17
9.76
9.99
10.16
10.54
11.16
11.83
12.22
12.04
11.26
10.06
8.74
7.57
6.62
5.85
5.16
4.43
3.63
2.67
1.40
-0.40
-2.85
-5.94
-9.41
-12.86
-15.80
-17.86
-18.74
-18.31
-16.63
-13.88
-10.41
-6.61
-2.85
0.62
3.64
6.13
8.09
9.49
10.39
10.87
11.07
11.12
11.09
11.03
10.93
10.82
10.69
10.58
10.44
10.17
9.60
8.57
7.03
5.06
2.83
0.55
-1.64
-3.73
-5.85
-8.17
-10.81
-13.67
-16.45
-18.64
-19.80
-19.64
-18.15
-15.54
-12.14
-8.27
-4.16
-0.02
3.98
7.62
10.72
13.16
14.89
15.99
16.56
16.70
16.52
16.08
15.48
14.81
14.17
13.63
13.24
12.93
12.54
11.91
10.84
9.28
7.31
5.17
3.11
1.29
-0.29
-1.75
-3.30
-5.19
-7.60
-10.54
-13.82
-16.97
-19.35
-20.34
-19.56
-17.07
-13.33
-8.96
-4.54
-0.40
3.38
6.87
10.10
12.97
15.38
17.18
18.31
18.80
18.77
18.40
17.87
17.38
17.03
16.82
16.65
16.39
15.91
15.13
14.02
12.58
10.87
8.98
7.06
5.25
3.65
2.13
0.49
-1.59
-4.34
-7.75
-11.55
-15.22
-18.15
-19.84
-20.02
-18.68
-16.07
-12.60
-8.72
-4.76
-1.01
2.36
5.26
7.62
9.47
10.94
12.15
13.23
14.11
14.69
14.78
14.29
13.33
12.18
11.12
10.33
9.84
9.53
9.25
8.86
8.30
7.58
6.71
5.62
4.26
2.52
0.37
-2.22
-5.19
-8.46
-11.82
-15.02
-17.69
-19.43
-19.93
-19.07
-16.98
-13.98
-10.49
-6.85
-3.29
0.19
3.59
6.81
9.63
11.69
12.76
12.81
12.13
11.11
10.16
9.48
9.08
8.84
8.66
8.45
8.18
7.80
7.21
6.30
4.98
3.24
1.13
-1.21
-3.67
-6.17
-8.64
-11.07
-13.44
-15.70
-17.73
-19.31
-20.17
-20.00
-18.67
-16.20
-12.85
-9.00
-5.07
-1.40
1.80
4.41
6.42
7.83
8.66
8.96
8.86
8.55
8.28
8.27
8.61
9.22
9.87
10.29
10.27
9.76
8.84
7.60
6.12
4.42
2.53
0.58
-1.28
-2.90
-4.33
-5.76
-7.56
-10.04
-13.32
-17.18
-21.11
-24.47
-26.61
-27.06
-25.67
-22.63
-18.44
-13.73
-9.13
-5.00
-1.46
1.62
4.42
7.02
9.38
11.34
12.82
13.84
14.55
15.09
15.52
15.74
15.59
14.98
13.96
12.70
11.45
10.35
9.44
8.55
7.48
6.04
4.12
1.79
-0.79
-3.44
-6.02
-8.56
-11.23
-14.33
-17.94
-21.88
-25.54
-28.10
-28.83
-27.38
-24.00
-19.37
-14.36
-9.64
-5.55
-2.08
0.94
3.67
6.19
8.47
10.42
12.01
13.22
14.07
14.62
14.90
14.99
14.92
14.75
14.51
14.19
13.76
13.10
12.16
10.90
9.31
7.43
5.35
3.16
0.92
-1.35
-3.71
-6.29
-9.23
-12.58
-16.21
-19.75
-22.59
-24.11
-23.83
-21.68
-17.97
-13.30
-8.34
-3.58
0.73
4.59
8.06
11.24
14.06
16.38
18.04
18.85
18.87
18.29
17.41
16.56
15.98
15.70
15.59
15.48
15.12
14.40
13.28
11.76
9.95
7.96
5.92
3.92
1.99
0.03
-2.18
-4.86
-8.11
-11.76
-15.30
-18.03
-19.33
-18.82
-16.48
-12.67
-7.90
-2.72
2.43
7.20
11.29
14.49
16.65
17.80
18.11
17.89
17.43
16.98
16.67
16.52
16.59
16.84
17.23
17.61
17.78
17.55
16.79
15.52
13.86
11.95
9.89
7.72
5.39
2.90
0.29
-2.41
-5.24
-8.30
-11.72
-15.49
-19.33
-22.66
-24.77
-25.05
-23.26
-19.60
-14.66
-9.20
-3.89
0.83
4.86
8.24
11.14
13.69
15.96
17.89
19.39
20.35
20.69
20.39
19.54
18.35
17.10
16.09
15.49
15.33
15.44
15.52
15.29
14.49
13.03
11.00
8.62
6.17
3.87
1.82
-0.06
-1.97
-4.17
-6.89
-10.15
-13.77
-17.28
-20.04
-21.41
-20.97
-18.68
-14.94
-10.42
-5.80
-1.57
2.07
5.15
7.76
9.92
11.55
12.64
13.29
13.73
14.19
14.77
15.33
15.61
15.38
14.59
13.41
12.05
10.72
9.47
8.24
7.00
5.72
4.49
3.38
2.40
1.46
0.36
-1.10
-3.03
-5.48
-8.32
-11.32
-14.15
-16.42
-17.82
-18.14
-17.33
-15.51
-12.89
-9.76
-6.39
-3.04
0.05
2.65
4.68
6.14
7.11
7.74
8.14
8.34
8.31
8.02
7.50
6.87
6.27
5.82
5.55
5.37
5.16
4.78
4.18
3.36
2.36
1.19
-0.15
-1.71
-3.49
-5.43
-7.50
-9.66
-11.88
-14.08
-16.06
-17.51
-18.10
-17.53
-15.79
-13.05
-9.70
-6.19
-2.88
0.04
2.54
4.65
6.41
7.79
8.74
9.16
9.04
8.41
7.45
6.37
5.42
4.79
4.56
4.65
4.88
4.96
4.62
3.75
2.40
0.83
-0.62
-1.78
-2.59
-3.26
-4.07
-5.22
-6.77
-8.66
-10.76
-12.99
-15.36
-17.83
-20.24
-22.27
-23.44
-23.34
-21.79
-18.94
-15.21
-11.11
-7.07
-3.33
0.03
3.00
5.59
7.69
9.24
10.16
10.52
10.44
10.13
9.73
9.29
8.79
8.16
7.44
6.76
6.25
6.02
5.95
5.77
5.16
3.90
2.08
0.00
-1.93
-3.46
-4.63
-5.62
-6.72
-8.03
-9.52
-11.12
-12.85
-14.78
-17.02
-19.41
-21.62
-23.18
-23.65
-22.84
-20.88
-18.05
-14.72
-11.25
-7.85
-4.69
-1.89
0.51
2.43
3.84
4.70
5.06
5.03
4.83
4.73
4.91
5.49
6.36
7.32
8.10
8.52
8.48
8.01
7.25
6.30
5.24
4.10
2.81
1.32
-0.39
-2.22
-4.05
-5.80
-7.49
-9.25
-11.20
-13.38
-15.63
-17.69
-19.22
-19.94
-19.68
-18.46
-16.40
-13.71
-10.64
-7.43
-4.29
-1.35
1.28
3.57
5.51
7.10
8.34
9.27
9.96
10.47
10.85
11.14
11.30
11.29
11.07
10.65
10.11
9.59
9.17
8.87
8.48
7.71
6.31
4.19
1.55
-1.20
-3.64
-5.52
-6.88
-8.00
-9.27
-11.00
-13.27
-15.94
-18.73
-21.24
-23.10
-23.95
-23.60
-21.97
-19.28
-15.92
-12.37
-9.04
-6.15
-3.74
-1.68
0.11
1.67
2.89
3.61
3.79
3.48
2.90
2.36
2.12
2.25
2.62
2.96
2.98
2.55
1.72
0.73
-0.20
-0.99
-1.79
-2.85
-4.36
-6.35
-8.67
-11.16
-13.71
-16.35
-19.09
-21.80
-24.18
-25.77
-26.12
-24.98
-22.45
-18.87
-14.77
-10.71
-7.07
-4.02
-1.52
0.55
2.29
3.66
4.60
5.06
5.13
5.04
5.03
5.23
5.51
5.62
5.32
4.57
3.57
2.63
1.95
1.54
1.17
0.52
-0.72
-2.74
-5.58
-9.15
-13.22
-17.43
-21.30
-24.26
-25.88
-25.91
-24.42
-21.72
-18.29
-14.60
-10.96
-7.52
-4.25
-1.09
1.97
4.82
7.26
9.07
10.14
10.54
10.49
10.28
10.15
10.15
10.12
9.81
9.00
7.63
5.82
3.84
1.92
0.17
-1.45
-3.13
-5.02
-7.21
-9.74
-12.58
-15.68
-18.89
-21.93
-24.32
-25.56
-25.26
-23.39
-20.25
-16.40
-12.35
-8.38
-4.49
-0.52
3.56
7.56
11.06
13.61
14.99
15.34
15.13
14.87
14.92
15.28
15.65
15.67
15.13
14.08
12.75
11.37
10.04
8.67
7.13
5.28
3.11
0.67
-2.06
-5.17
-8.78
-12.87
-17.08
-20.79
-23.20
-23.73
-22.15
-18.72
-14.04
-8.80
-3.56
1.34
5.79
9.79
13.37
16.51
19.14
21.18
22.59
23.40
23.68
23.55
23.15
22.57
21.82
20.87
19.68
18.32
16.92
15.68
14.70
13.89
12.96
11.53
9.30
6.22
2.44
-1.70
-5.83
-9.62
-12.82
-15.19
-16.49
-16.55
-15.27
-12.70
-9.08
-4.72
0.04
4.89
9.57
13.86
17.60
20.70
23.11
24.88
26.05
26.70
26.91
26.78
26.49
26.18
25.98
25.94
25.95
25.86
25.47
24.63
23.27
21.42
19.18
16.70
14.06
11.34
8.51
5.48
2.16
-1.46
-5.20
-8.72
-11.49
-13.00
-12.93
-11.26
-8.30
-4.54
-0.45
3.64
7.57
11.31
14.81
17.92
20.47
22.40
23.79
24.87
25.90
26.99
28.03
28.72
28.75
27.94
26.39
24.40
22.40
20.71
19.46
18.53
17.69
16.69
15.39
13.79
11.95
9.93
7.76
5.42
2.87
0.08
-2.88
-5.85
-8.54
-10.58
-11.56
-11.20
-9.46
-6.58
-3.08
0.48
3.67
6.30
8.43
10.22
11.82
13.26
14.53
15.54
16.24
16.62
16.70
16.52
16.12
15.58
15.01
14.54
14.23
14.02
13.75
13.22
12.22
10.67
8.64
6.36
4.13
2.17
0.59
-0.73
-2.07
-3.73
-5.90
-8.45
-11.07
-13.28
-14.72
-15.17
-14.69
-13.42
-11.55
-9.27
-6.78
-4.28
-1.99
-0.06
1.51
2.83
4.02
5.15
6.11
6.80
7.13
7.20
7.14
7.05
6.93
6.62
6.01
5.11
4.12
3.28
2.78
2.60
2.53
2.31
1.66
0.55
-0.95
-2.59
-4.18
-5.64
-7.11
-8.79
-10.87
-13.33
-15.77
-17.61
-18.27
-17.43
-15.24
-12.24
-9.15
-6.52
-4.59
-3.20
-2.10
-1.06
-0.04
0.83
1.39
1.55
1.35
0.95
0.50
0.13
-0.14
-0.29
-0.31
-0.18
0.06
0.34
0.55
0.64
0.60
0.45
0.24
-0.09
-0.64
-1.50
-2.68
-4.06
-5.41
-6.54
-7.42
-8.24
-9.21
-10.52
-12.11
-13.70
-14.87
-15.30
-14.83
-13.56
-11.78
-9.79
-7.84
-6.05
-4.44
-3.02
-1.80
-0.80
-0.05
0.43
0.66
0.64
0.41
0.04
-0.33
-0.59
-0.71
-0.69
-0.65
-0.70
-0.85
-1.09
-1.35
-1.60
-1.90
-2.36
-3.06
-3.99
-5.05
-6.11
-7.05
-7.90
-8.70
-9.59
-10.60
-11.70
-12.74
-13.58
-14.04
-14.01
-13.47
-12.45
-11.09
-9.53
-7.93
-6.44
-5.14
-4.09
-3.24
-2.56
-1.98
-1.53
-1.27
-1.24
-1.44
-1.78
-2.11
-2.35
-2.45
-2.47
-2.51
-2.63
-2.84
-3.09
-3.36
-3.67
-4.06
-4.56
-5.14
-5.76
-6.32
-6.84
-7.37
-7.99
-8.81
-9.86
-11.11
-12.40
-13.50
-14.11
-14.00
-13.11
-11.56
-9.63
-7.60
-5.65
-3.78
-1.94
-0.11
1.59
2.94
3.73
3.83
3.36
2.54
1.70
1.04
0.66
0.51
0.50
0.53
0.54
0.50
0.37
0.06
-0.58
-1.67
-3.26
-5.22
-7.28
-9.12
-10.50
-11.44
-12.11
-12.84
-13.83
-15.03
-16.16
-16.80
-16.62
-15.54
-13.72
-11.50
-9.27
-7.28
-5.57
-4.09
-2.71
-1.39
-0.24
0.61
1.06
1.16
1.08
0.99
0.99
1.00
0.81
0.25
-0.76
-2.12
-3.62
-5.07
-6.33
-7.30
-7.96
-8.34
-8.59
-8.97
-9.81
-11.32
-13.43
-15.84
-18.00
-19.38
-19.63
-18.71
-16.82
-14.31
-11.56
-8.83
-6.29
-4.00
-1.99
-0.25
1.19
2.25
2.82
2.85
2.37
1.55
0.62
-0.14
-0.52
-0.48
-0.13
0.23
0.27
-0.27
-1.38
-2.83
-4.24
-5.33
-6.03
-6.56
-7.27
-8.46
-10.24
-12.40
-14.63
-16.57
-18.01
-18.79
-18.88
-18.23
-16.77
-14.59
-11.81
-8.71
-5.59
-2.76
-0.38
1.45
2.82
3.82
4.58
5.12
5.42
5.47
5.33
5.15
5.12
5.34
5.78
6.23
6.48
6.36
5.87
5.11
4.19
3.14
1.95
0.56
-1.06
-2.89
-4.93
-7.22
-9.79
-12.59
-15.46
-18.04
-19.98
-20.96
-20.81
-19.56
-17.32
-14.37
-11.00
-7.49
-4.06
-0.74
2.51
5.78
9.03
12.04
14.47
16.01
16.58
16.37
15.80
15.29
15.09
15.18
15.38
15.48
15.30
14.84
14.17
13.37
12.45
11.41
10.20
8.82
7.30
5.78
4.32
2.90
1.37
-0.51
-2.91
-5.82
-8.94
-11.84
-13.98
-15.00
-14.80
-13.45
-11.21
-8.33
-5.08
-1.65
1.79
5.14
8.33
11.28
13.93
16.21
18.01
19.31
20.11
20.49
20.54
20.40
20.10
19.68
19.17
18.62
18.02
17.36
16.56
15.52
14.16
12.47
10.51
8.42
6.34
4.41
2.68
1.10
-0.57
-2.62
-5.29
-8.56
-12.11
-15.43
-17.96
-19.36
-19.52
-18.55
-16.60
-13.87
-10.53
-6.87
-3.25
0.03
2.80
5.12
7.18
9.09
10.77
12.00
12.52
12.30
11.52
10.56
9.75
9.29
9.21
9.43
9.80
10.18
10.41
10.33
9.77
8.65
7.00
4.96
2.72
0.41
-1.87
-4.16
-6.59
-9.24
-12.06
-14.81
-17.06
-18.35
-18.38
-17.12
-14.83
-11.87
-8.57
-5.15
-1.69
1.69
4.84
7.50
9.42
10.48
10.78
10.57
10.19
9.96
10.01
10.27
10.57
10.68
10.45
9.85
8.91
7.72
6.30
4.69
2.88
0.96
-0.88
-2.51
-3.87
-5.09
-6.42
-8.15
-10.50
-13.50
-16.91
-20.21
-22.75
-23.83
-23.03
-20.47
-16.73
-12.62
-8.90
-5.88
-3.44
-1.22
1.07
3.42
5.50
6.93
7.51
7.39
6.94
6.61
6.66
7.07
7.67
8.21
8.55
8.66
8.59
8.38
8.02
7.42
6.48
5.21
3.76
2.29
0.95
-0.24
-1.46
-2.94
-4.93
-7.51
-10.57
-13.78
-16.75
-18.96
-20.00
-19.58
-17.64
-14.41
-10.29
-5.82
-1.43
2.61
6.20
9.35
12.08
14.42
16.31
17.74
18.75
19.46
19.98
20.34
20.48
20.24
19.55
18.44
17.11
15.76
14.48
13.19
11.67
9.69
7.21
4.37
1.47
-1.15
-3.31
-5.03
-6.53
-8.15
-10.22
-12.96
-16.35
-20.18
-23.93
-27.02
-28.89
-29.22
-27.96
-25.33
-21.76
-17.67
-13.43
-9.22
-5.08
-0.99
3.02
6.80
10.01
12.28
13.30
12.95
11.44
9.21
6.86
4.92
3.71
3.31
3.59
4.30
5.06
5.43
4.91
3.15
0.07
-4.07
-8.71
-13.22
-17.22
-20.62
-23.61
-26.30
-28.53
-29.78
