1520258702.00
64.000000
-0.00
-0.00
-0.00
-0.00
-0.00
-0.00
-0.00
-0.00
-0.00
-0.00
0.00
0.01
0.01
-0.00
-0.03
-0.05
-0.05
0.00
0.13
0.36
0.66
1.01
1.37
1.72
2.06
2.40
2.79
3.24
3.80
4.42
5.06
5.66
6.20
6.68
7.15
7.68
8.31
9.14
10.09
11.04
11.88
12.56
13.14
13.76
14.65
15.96
17.91
20.32
22.90
25.38
27.58
29.57
31.68
34.32
37.81
42.54
48.15
54.10
59.83
64.97
69.58
74.14
79.34
85.71
93.76
103.00
112.62
121.73
129.77
136.75
143.30
150.75
157.77
166.64
177.95
191.79
206.97
220.57
228.25
225.36
208.53
176.87
132.76
80.05
23.07
-34.94
-92.44
-149.16
-205.23
-260.37
-313.74
-363.87
-409.83
-450.91
-486.50
-515.74
-537.23
-549.22
-549.96
-538.37
-514.21
-478.67
-433.88
-382.45
-327.02
-269.84
-212.63
-156.66
-102.95
-52.37
-5.90
35.58
71.43
101.35
125.50
144.38
158.69
169.15
176.37
180.75
182.57
182.07
179.51
175.23
169.65
163.18
156.15
148.81
141.30
133.69
126.02
118.33
110.69
103.16
95.80
88.68
81.83
75.25
68.95
62.95
57.25
51.86
46.78
42.03
37.59
33.45
29.61
26.07
22.81
19.83
17.11
14.67
12.48
10.54
8.83
7.35
6.07
4.97
4.05
3.27
2.62
2.09
1.65
1.30
1.01
0.79
0.61
0.47
0.37
0.29
0.23
0.18
0.16
0.14
0.13
0.14
0.15
0.17
0.20
0.23
0.26
0.30
0.34
0.38
0.43
0.48
0.52
0.57
0.62
0.68
0.73
0.80
0.86
0.94
1.02
1.11
1.21
1.32
1.45
1.60
1.76
1.93
2.13
2.35
2.60
2.86
3.16
3.49
3.85
4.24
4.66
5.12
5.62
6.15
6.73
7.34
8.00
8.70
9.45
10.24
11.07
11.95
12.87
13.85
14.88
15.98
17.15
18.35
19.61
20.87
22.07
23.13
23.97
24.45
24.45
23.88
22.63
20.68
18.03
14.75
10.90
6.67
2.22
-2.25
-6.55
-10.47
-13.87
-16.61
-18.64
-19.95
-20.57
-20.61
-20.19
-19.44
-18.46
-17.36
-16.17
-14.96
-13.73
-12.49
-11.33
-10.27
-9.33
-8.51
-7.74
-6.95
-6.10
-5.15
-4.06
-3.03
-2.20
-1.64
-1.37
-1.31
-1.35
-1.38
-1.30
-1.05
-0.98
-1.31
-2.16
-3.56
-5.32
-7.26
-9.13
-10.78
-12.03
-13.43
-15.37
-18.13
-21.78
-26.32
-31.54
-37.23
-43.09
-48.79
-54.89
-62.04
-71.18
-83.33
-99.33
-119.38
-142.92
-169.13
-191.77
-206.93
-211.89
-205.36
-187.47
-159.39
-122.97
-80.65
-35.25
10.30
52.44
88.56
117.22
138.21
152.19
160.29
163.79
164.08
162.75
160.83
159.42
159.33
160.84
163.60
166.85
169.66
171.31
171.51
170.04
167.13
163.12
158.27
152.56
145.64
137.03
126.31
113.41
98.51
82.19
65.20
48.26
31.81
15.99
0.55
-14.99
-31.23
-48.73
-67.54
-86.90
-104.99
-119.13
-126.36
-124.35
-112.16
-90.76
-62.78
-31.82
-1.45
25.50
47.43
63.74
74.57
80.44
82.02
80.08
75.56
69.50
62.91
56.67
51.33
47.13
43.96
41.60
39.77
38.26
36.95
35.76
34.55
33.00
30.69
27.10
21.75
14.43
5.27
-5.23
-16.30
-27.10
-37.00
-45.75
-53.60
-61.26
-69.74
-80.06
-92.97
-108.56
-125.91
-143.07
-157.19
-165.09
-164.14
-152.94
-131.91
-103.18
-70.10
-36.36
-5.15
21.27
41.76
56.05
64.49
67.76
66.84
62.97
57.51
51.86
47.15
44.05
42.65
42.51
42.89
43.07
42.65
41.66
40.39
39.05
37.48
35.08
30.94
24.33
15.03
3.56
-9.03
-21.51
-32.98
-43.14
-52.39
-61.68
-72.21
-85.08
-100.91
-119.43
-139.14
-157.38
-170.68
-175.64
-169.87
-152.87
-126.19
-93.13
-57.72
-23.73
6.10
30.30
48.45
60.75
67.71
69.95
68.34
63.98
58.12
51.96
46.37
41.78
38.15
35.20
32.65
30.48
28.88
28.04
27.89
27.90
27.09
24.34
18.77
10.08
-1.27
-14.27
-27.70
-40.58
-52.44
-63.49
-74.58
-86.90
-101.62
-119.28
-139.30
-159.62
-176.82
-186.84
-186.20
-173.04
-147.91
-113.59
-74.32
-34.55
2.18
33.71
59.24
78.82
92.77
101.47
105.34
105.05
101.63
96.40
90.76
85.81
82.09
79.50
77.52
75.45
72.78
69.39
65.47
61.27
56.77
51.47
44.43
34.64
21.45
5.14
-13.14
-31.61
-48.44
-62.37
-73.02
-80.91
-87.26
-93.63
-101.61
-112.33
-126.03
-141.55
-156.14
-165.90
-166.79
-156.08
-133.34
-100.79
-62.58
-23.40
12.85
43.92
69.13
88.83
103.64
113.97
120.02
122.04
120.69
117.07
112.53
108.27
105.00
102.71
100.90
98.85
96.05
92.42
88.24
83.90
79.56
74.92
69.23
61.61
51.46
38.74
24.19
8.98
-5.69
-19.01
-30.90
-41.94
-53.14
-65.61
-80.36
-98.10
-119.04
-142.46
-166.24
-186.73
-199.26
-199.47
-184.82
-155.75
-115.80
-70.51
-25.67
14.20
46.60
70.93
87.68
97.81
102.31
102.36
99.25
94.51
89.49
85.12
81.74
79.19
77.01
74.70
71.96
68.69
65.04
61.33
57.92
54.95
52.27
49.41
45.75
40.78
34.38
26.80
18.55
10.17
1.93
-6.25
-14.78
-24.29
-35.40
-48.57
-63.98
-81.39
-100.01
-118.42
-134.52
-145.70
-149.28
-143.22
-126.78
-100.93
-68.24
-32.21
3.68
36.72
65.30
88.79
107.07
120.15
128.05
130.96
129.50
124.83
118.47
111.94
106.33
102.09
99.00
96.44
93.80
90.77
87.46
84.22
81.28
78.25
73.99
66.92
55.48
38.89
17.51
-7.19
-33.11
-58.22
-81.08
-101.02
-118.05
-132.58
-145.14
-156.33
-166.79
-177.00
-186.97
-195.82
-201.63
-201.64
-193.01
-173.90
-144.19
-105.79
-62.14
-17.31
25.07
62.47
93.62
118.24
136.68
149.57
157.57
161.34
161.50
158.55
152.86
144.81
134.89
123.79
112.36
101.39
91.39
82.51
74.56
67.20
59.94
52.18
43.13
31.98
18.27
2.43
-14.05
-28.92
-40.10
-46.70
-49.70
-51.69
-55.80
-64.37
-78.05
-95.64
-114.61
-131.78
-143.91
-148.04
-141.82
-124.09
-95.69
-59.90
-22.22
10.89
33.85
43.69
40.56
27.38
8.39
-12.27
-31.59
-47.94
-60.93
-70.93
-78.63
-84.74
-89.77
-94.06
-97.87
-101.48
-105.29
-109.75
-115.19
-121.63
-128.74
-135.95
-142.85
-149.30
-155.47
-161.64
-167.88
-173.95
-179.47
-184.25
-188.51
-193.14
-199.43
-208.71
-221.81
-238.48
-257.06
-274.48
-286.83
-290.37
-282.70
-263.47
-234.52
-199.13
-160.84
-122.45
-85.48
-50.20
-16.22
17.06
50.27
84.02
118.73
154.31
189.76
223.01
251.41
272.69
285.81
291.29
290.89
286.74
280.54
273.14
264.60
254.55
242.45
227.79
210.15
189.48
166.30
141.89
118.14
97.14
80.49
68.96
62.21
58.88
56.96
54.32
49.45
41.85
32.31
22.67
15.04
11.14
11.80
16.96
26.09
38.71
54.48
73.07
93.71
114.90
134.57
150.65
161.70
167.36
168.28
165.74
161.11
155.47
149.48
143.45
137.48
131.59
125.76
119.89
113.77
106.94
98.86
88.89
76.61
61.90
45.08
26.71
7.46
-12.25
-32.39
-53.21
-75.06
-98.12
-122.25
-146.95
-171.61
-195.36
-217.13
-235.41
-248.30
-253.71
-249.85
-235.77
-211.74
-179.27
-140.72
-98.84
-56.30
-15.59
20.94
51.05
72.89
85.51
89.43
86.84
81.21
76.26
74.94
78.51
86.35
96.45
106.21
113.37
116.57
115.62
111.35
105.30
99.28
94.96
93.53
95.47
100.58
108.07
116.98
126.37
135.53
143.74
150.06
153.10
151.14
142.65
126.87
104.30
76.72
47.01
18.93
-3.29
-15.42
-14.19
1.70
30.68
68.22
107.77
142.64
168.12
182.69
187.96
187.31
183.98
179.72
174.50
167.31
157.37
144.88
131.05
117.55
105.54
95.31
86.23
77.24
67.48
56.49
44.12
30.24
14.04
-5.14
-27.36
-51.75
-76.77
-100.64
-121.70
-138.77
-151.46
-160.76
-168.20
-175.35
-183.39
-193.05
-204.60
-217.61
-230.86
-242.43
-251.22
-255.64
-253.56
-243.07
-223.69
-196.86
-165.52
-133.08
-102.48
-79.11
-65.96
-62.37
-64.91
-70.25
-76.67
-83.73
-91.31
-98.87
-112.64
-135.96
-166.32
-196.84
-221.56
-238.53
-249.25
-256.50
-262.48
-279.90
-315.86
-367.14
-422.57
-471.77
-510.40
-539.45
-562.30
-582.31
-618.11
-682.01
-772.67
-876.63
-978.11
-1065.93
-1134.21
-1181.21
-1119.89
-917.07
-610.87
-286.41
-11.79
190.19
327.59
417.83
470.78
503.63
511.21
490.25
448.18
401.26
364.08
343.45
337.73
342.28
353.40
356.27
342.37
314.02
281.80
255.76
240.16
234.11
234.69
239.59
239.26
228.31
208.36
186.41
169.21
159.77
157.70
161.04
167.98
172.99
172.90
168.40
163.21
161.17
164.25
172.45
184.61
199.37
213.83
226.20
236.51
246.24
257.29
271.17
289.01
311.54
338.78
369.10
399.05
423.72
437.99
438.24
423.75
396.96
362.46
325.20
288.83
255.05
223.90
194.81
167.48
142.16
119.32
99.10
81.10
64.46
48.40
32.61
17.35
3.29
-8.98
-19.32
-28.14
-36.19
-44.31
-53.01
-62.42
-72.30
-82.30
-92.14
-101.66
-110.72
-119.04
-126.09
-131.03
-132.85
-130.59
-123.59
-111.79
-95.81
-76.91
-56.78
-37.10
-19.28
-4.24
7.56
16.06
21.46
24.14
24.67
23.79
22.29
20.88
20.03
19.88
20.25
20.72
20.87
20.34
18.99
16.90
14.22
11.17
7.81
4.13
-0.04
-4.82
-10.27
-16.30
-22.69
-29.16
-35.47
-41.44
-47.01
-52.22
-57.22
-62.31
-67.78
-73.78
-80.04
-85.65
-89.19
-89.00
-83.78
-73.06
-57.47
-38.57
-18.41
1.13
18.71
33.66
45.81
55.25
62.08
66.44
68.51
68.61
67.15
64.57
61.25
57.59
53.90
50.42
47.26
44.38
41.57
38.59
35.29
31.77
28.22
24.84
21.64
18.36
14.64
10.16
4.85
-1.08
-7.22
-13.15
-18.61
-23.53
-28.08
-32.49
-37.05
-41.98
-47.46
-53.61
-60.43
-67.62
-74.43
-79.63
-81.67
-79.09
-71.14
-58.14
-41.60
-23.75
-6.86
7.47
18.60
26.78
32.63
36.69
39.20
40.14
39.50
37.50
34.69
31.79
29.40
27.87
27.15
27.01
27.18
27.47
27.85
28.36
29.01
29.72
30.24
30.26
29.49
27.82
25.31
22.29
19.20
16.41
14.15
12.37
10.81
9.18
7.28
5.16
3.09
1.37
0.17
-0.66
-1.56
-3.04
-5.47
-8.89
-13.00
-17.26
-21.22
-24.56
-27.20
-29.23
-30.81
-32.12
-33.46
-35.20
-37.73
-41.14
-45.12
-48.96
-51.82
-53.09
-52.72
-51.11
-48.93
-46.65
-44.51
-42.42
-40.30
-38.15
-36.18
-34.60
-33.47
-32.63
-31.79
-30.73
-29.39
-27.93
-26.65
-25.80
-25.54
-25.83
-26.47
-27.24
-27.93
-28.42
-28.71
-28.83
-28.83
-28.66
-28.21
-27.38
-26.14
-24.60
-22.96
-21.42
-20.13
-19.02
-17.96
-16.76
-15.41
-14.07
-13.07
-12.69
-13.08
-14.04
-15.15
-15.85
-15.73
-14.68
-12.97
-11.18
-9.92
-9.56
-10.09
-11.13
-12.17
-12.81
-12.99
-12.89
-12.79
-12.79
-12.77
-12.48
-11.83
-10.97
-10.35
-10.41
-11.34
-12.98
-14.85
-16.46
-17.48
-17.85
-17.69
-17.13
-16.17
-14.65
-12.33
-8.99
-4.66
0.37
5.54
10.22
13.96
16.64
18.49
20.00
21.63
23.61
25.83
27.99
29.69
30.76
31.17
31.05
30.53
29.63
28.31
26.60
24.65
22.79
21.39
20.71
20.71
21.11
21.35
20.87
19.29
16.49
12.61
7.92
2.66
-3.04
-9.09
-15.35
-21.45
-26.81
-30.76
-32.76
-32.57
-30.36
-26.62
-21.95
-16.97
-12.18
-8.02
-4.75
-2.53
-1.28
-0.73
-0.58
-0.54
-0.53
-0.65
-1.05
-1.81
-2.83
-3.86
-4.68
-5.20
-5.44
-5.58
-5.75
-5.98
-6.23
-6.41
-6.50
-6.53
-6.60
-6.73
-6.92
-7.05
-6.96
-6.54
-5.74
-4.64
-3.32
-1.90
-0.46
1.01
2.53
4.11
5.77
7.53
9.41
11.39
13.37
15.14
16.36
16.82
16.49
15.61
14.57
13.73
13.21
12.93
12.70
12.42
12.14
12.06
12.30
12.88
13.61
14.30
14.79
15.07
15.16
15.12
14.92
14.51
13.90
13.09
12.11
10.92
9.40
7.41
4.91
2.08
-0.78
-3.26
-5.05
-6.03
-6.31
-6.13
-5.65
-4.99
-4.22
-3.37
-2.57
-1.97
-1.64
-1.54
-1.58
-1.64
-1.77
-2.16
-3.07
-4.62
-6.76
-9.17
-11.49
-13.41
-14.80
-15.70
-16.27
-16.68
-17.05
-17.51
-18.16
-19.06
-20.24
-21.66
-23.15
-24.53
-25.61
-26.35
-26.82
-27.17
-27.64
-28.35
-29.38
-30.67
-32.03
-33.17
-33.72
-33.35
-31.85
-29.27
-25.96
-22.40
-18.97
-15.83
-12.74
-9.34
-5.35
-0.88
3.64
7.64
10.70
12.83
14.31
15.56
16.82
17.99
18.74
18.76
17.99
16.65
15.12
13.71
12.50
11.39
10.16
8.69
7.03
5.30
3.65
2.13
0.75
-0.56
-1.81
-3.03
-4.18
-5.28
-6.33
-7.39
-8.46
-9.51
-10.50
-11.38
-12.11
-12.65
-12.86
-12.59
-11.65
-9.96
-7.62
-4.81
-1.81
1.14
3.82
6.06
7.72
8.66
8.89
8.50
7.78
7.04
6.49
6.23
6.18
6.20
6.19
6.18
6.16
6.14
6.04
5.83
5.48
5.10
4.88
4.92
5.24
5.67
5.96
5.87
5.29
4.19
2.75
1.12
-0.54
-2.13
-3.69
-5.21
-6.79
-8.49
-10.35
-12.27
-14.03
-15.25
-15.52
-14.58
-12.39
-9.27
-5.71
-2.25
0.76
3.16
5.00
6.37
7.33
7.83
7.81
7.23
6.18
4.87
3.59
2.60
2.09
2.09
2.45
2.93
3.22
3.16
2.68
1.87
0.89
-0.05
-0.78
-1.23
-1.44
-1.55
-1.73
-2.12
-2.67
-3.25
-3.67
-3.79
-3.66
-3.47
-3.51
-4.01
-5.04
-6.51
-8.23
-9.96
-11.44
-12.44
-12.79
-12.43
-11.39
-9.83
-7.88
-5.73
-3.49
-1.26
0.84
2.73
4.31
5.63
6.78
7.84
8.83
9.60
10.00
9.90
9.37
8.69
8.24
8.37
9.26
10.80
12.67
14.46
15.75
16.36
16.27
15.66
14.78
13.88
13.07
12.42
11.93
11.52
11.11
10.51
9.53
8.04
6.07
3.87
1.86
0.47
-0.12
-0.01
0.36
0.45
-0.15
-1.53
-3.45
-5.39
-6.76
-7.18
-6.53
-5.07
-3.17
-1.27
0.35
1.55
2.22
2.34
1.92
1.04
-0.08
-1.14
-1.85
-2.14
-2.06
-1.89
-1.93
-2.33
-3.08
-3.97
-4.75
-5.24
-5.39
-5.29
-5.19
-5.29
-5.71
-6.38
-7.12
-7.73
-8.01
-7.94
-7.46
-6.63
-5.52
-4.32
-3.33
-2.97
-3.53
-5.12
-7.48
-10.13
-12.51
-14.10
-14.65
-14.13
-12.63
-10.36
-7.56
-4.54
-1.60
0.99
3.05
4.54
5.57
6.27
6.83
7.33
7.75
8.00
8.04
7.89
7.70
7.69
8.09
9.04
10.55
12.49
14.61
16.65
18.28
19.25
19.38
18.63
17.06
14.94
12.61
10.40
8.51
6.97
5.66
4.40
3.06
1.65
0.22
-1.11
-2.30
-3.30
-4.14
-4.94
-5.88
-7.33
-9.64
-13.17
-18.06
-24.21
-31.28
-38.79
-46.23
-53.09
-58.97
-63.46
-66.34
-67.45
-66.67
-63.75
-58.34
-49.93
-38.25
-23.62
-7.20
9.05
22.82
31.99
35.24
32.26
23.79
11.30
-3.33
-18.11
-31.18
-41.12
-47.14
-49.23
-48.21
-45.56
-43.12
-42.68
-45.43
-51.74
-61.02
-72.05
-83.33
-93.65
-102.26
-108.89
-113.36
-115.38
-114.37
-109.74
-101.08
-88.46
-72.38
-53.70
-33.39
-12.53
7.64
25.75
40.49
50.99
57.18
59.81
60.24
59.94
60.08
61.31
63.71
67.12
71.17
75.37
79.11
81.67
82.36
80.70
76.56
70.20
62.12
52.83
42.78
32.27
21.59
11.01
0.83
-8.73
-17.64
-26.07
-34.38
-42.96
-52.05
-61.59
-71.17
-79.93
-86.66
-89.89
-88.37
-81.39
-69.18
-52.94
-34.55
-16.03
0.98
15.54
27.32
36.39
42.88
46.91
48.60
48.28
46.55
44.17
41.82
39.90
38.39
37.08
35.67
33.96
31.92
29.57
27.02
24.31
21.42
18.30
14.86
10.86
6.03
0.12
-6.96
-15.13
-24.05
-33.23
-42.14
-50.13
-56.35
-59.68
-58.82
-52.67
-40.75
-23.55
-2.46
20.51
43.29
64.21
82.06
96.20
106.33
112.40
114.64
113.60
110.02
104.77
98.57
91.91
85.00
77.95
70.88
63.90
57.12
50.48
43.73
36.40
28.00
18.22
7.08
-5.01
-17.42
-29.43
-40.57
-50.73
-60.21
-69.61
-79.52
-90.32
-101.81
-113.19
-122.99
-129.36
-130.42
-124.69
-111.58
-91.61
-66.32
-37.94
-8.88
18.82
43.70
64.99
82.44
96.09
106.22
113.27
117.89
120.87
123.05
125.14
127.53
130.28
133.12
135.70
137.61
138.51
138.05
135.83
131.40
124.41
114.78
102.94
89.88
76.94
65.44
56.28
49.59
44.61
39.92
33.87
25.02
12.73
-2.50
-19.07
-34.42
-45.66
-50.34
-47.09
-36.04
-18.74
2.28
24.07
43.88
59.63
70.01
74.54
73.42
67.47
57.96
46.47
34.72
24.24
16.26
11.40
9.66
10.51
13.00
16.09
18.83
20.59
21.00
19.95
17.40
13.34
7.76
0.85
-6.99
-15.04
-22.37
-28.13
-31.86
-33.69
-34.40
-35.17
-37.16
-40.94
-46.22
-51.75
-55.77
-56.46
-52.64
-44.08
-31.52
-16.46
-0.65
14.24
26.93
36.45
42.32
44.38
42.85
38.31
31.70
24.07
16.41
9.44
3.57
-1.14
-4.78
-7.56
-9.68
-11.32
-12.65
-13.82
-15.02
-16.50
-18.50
-21.25
-24.77
-28.81
-32.90
-36.46
-39.05
-40.52
-41.14
-41.42
-42.00
-43.30
-45.42
-48.05
-50.51
-51.85
-51.05
-47.26
-40.07
-29.58
-16.43
-1.62
13.72
28.46
41.58
52.28
60.00
64.44
65.65
63.91
59.71
53.67
46.45
38.74
31.17
24.28
18.37
13.47
9.37
5.73
2.24
-1.31
-5.02
-8.83
-12.61
-16.22
-19.49
-22.36
-24.87
-27.24
-29.78
-32.78
-36.37
-40.52
-45.07
-49.75
-54.20
-57.95
-60.38
-60.86
-58.89
-54.43
-47.88
-39.97
-31.52
-23.17
-15.37
-8.45
-2.68
1.65
4.41
5.72
5.95
5.60
5.05
4.49
3.92
3.35
2.93
2.89
3.40
4.46
5.71
6.66
6.79
5.81
3.76
0.91
-2.34
-5.62
-8.68
-11.59
-14.57
-17.98
-22.14
-27.14
-32.74
-38.36
-43.14
-46.18
-46.65
-44.00
-38.08
-29.21
-18.17
-6.09
5.76
16.17
24.22
29.38
31.53
30.98
28.34
24.38
19.82
15.20
10.79
6.58
2.44
-1.76
-6.02
-10.24
-14.24
-17.81
-20.95
-23.75
-26.54
-29.73
-33.72
-38.65
-44.37
-50.39
-56.07
-60.98
-65.06
-68.70
-72.68
-77.88
-84.88
-93.67
-103.22
-111.36
-115.09
-111.28
-97.83
-74.68
-44.17
-10.66
20.73
45.49
60.97
66.81
64.74
57.82
49.59
43.24
41.01
43.91
51.58
62.55
74.50
84.87
91.29
92.06
86.52
75.19
59.72
42.57
26.41
13.55
5.41
2.28
3.38
7.22
11.92
15.71
17.14
15.37
10.19
2.12
-7.65
-17.39
-25.05
-28.65
-26.80
-19.16
-6.78
8.16
22.82
34.61
41.88
44.29
42.59
38.17
32.38
26.28
20.55
15.62
11.84
9.42
8.32
8.16
8.31
8.12
7.23
5.70
3.93
2.39
1.28
0.52
-0.22
-1.34
-3.01
-5.20
-7.68
-10.22
-12.67
-15.01
-17.33
-19.69
-22.17
-24.72
-27.24
-29.54
-31.36
-32.50
-32.80
-32.30
-31.08
-29.29
-27.05
-24.52
-21.88
-19.37
-17.31
-15.97
-15.50
-15.85
-16.82
-18.08
-19.25
-19.94
-19.82
-18.57
-15.99
-12.03
-6.88
-1.03
4.77
9.69
13.07
14.65
14.63
13.60
12.18
10.79
9.45
7.85
5.58
2.43
-1.58
-6.15
-10.79
-15.06
-18.46
-20.42
-20.37
-17.79
-12.55
-5.05
3.74
12.53
20.11
25.69
29.06
30.48
30.42
29.29
27.37
24.80
21.70
18.32
14.96
11.85
9.08
6.53
3.96
1.09
-2.32
-6.37
-11.02
-16.03
-21.00
-25.38
-28.73
-30.87
-32.10
-33.14
-34.89
-38.06
-42.84
-48.86
-55.18
-60.53
-63.51
-62.78
-57.20
-46.24
-30.20
-10.39
10.95
31.14
47.75
59.28
65.38
66.72
64.51
60.01
54.22
47.83
41.34
35.20
29.86
25.68
22.78
21.04
20.02
19.19
18.01
16.18
13.67
10.73
7.76
5.04
2.73
0.65
-1.48
-3.94
-6.79
-9.82
-12.65
-14.92
-16.49
-17.40
-17.89
-18.00
-17.62
-16.38
-13.92
-10.10
-5.14
0.41
5.81
10.31
13.32
14.54
13.95
11.80
8.60
4.98
1.60
-1.05
-2.79
-3.72
-4.20
-4.68
-5.56
-7.12
-9.38
-12.25
-15.44
-18.62
-21.56
-24.10
-26.35
-28.51
-30.88
-33.74
-37.27
-41.53
-46.35
-51.29
-55.60
-58.29
-58.26
-54.56
-46.69
-34.80
-19.79
-3.10
13.60
28.75
41.22
50.46
56.31
58.93
58.59
55.64
50.55
43.92
36.55
29.19
22.46
16.68
11.78
7.51
3.46
-0.64
-4.97
-9.54
-14.29
-19.09
-23.83
-28.46
-32.97
-37.41
-41.98
-46.86
-52.29
-58.35
-64.82
-71.03
-75.78
-77.47
-74.51
-65.79
-51.20
-31.82
-9.76
12.37
32.16
47.95
59.06
65.67
68.42
68.12
65.49
61.17
55.70
49.68
43.67
38.15
33.41
29.52
26.37
23.69
21.10
18.24
14.75
10.43
5.27
-0.47
-6.46
-12.34
-17.97
-23.43
-28.98
-34.95
-41.58
-48.82
-56.32
-63.25
-68.36
-70.09
-66.88
-57.72
-42.62
-22.83
-0.69
21.02
39.74
53.83
62.71
66.68
66.51
63.06
57.23
49.94
42.12
34.66
28.17
22.92
18.82
15.66
13.21
11.31
9.74
8.19
6.24
3.50
-0.14
-4.45
-8.97
-13.26
-17.11
-20.71
-24.52
-29.11
-34.93
-42.18
-50.68
-59.70
-67.90
-73.37
-73.96
-67.84
-54.18
-33.67
-8.42
18.52
43.95
65.31
81.17
91.17
95.76
95.76
92.05
85.52
77.08
67.74
58.48
50.11
42.93
36.81
31.33
26.11
21.01
16.17
11.91
8.38
5.41
2.51
-0.92
-5.29
-10.65
-16.69
-22.88
-28.72
-33.93
-38.53
-42.87
-47.45
-52.85
-59.41
-67.08
-75.07
-81.84
-85.31
-83.30
-74.34
-58.27
-36.61
-12.21
11.57
31.79
46.73
55.92
59.94
59.79
56.49
50.92
43.90
36.33
29.10
22.97
18.23
14.76
12.08
9.63
7.09
4.38
1.60
-1.14
-3.90
-6.94
-10.53
-14.87
-19.90
-25.35
-30.88
-36.25
-41.55
-47.17
-53.73
-61.81
-71.50
-82.09
-91.80
-98.03
-98.00
-89.61
-72.28
-47.25
-17.33
13.93
43.25
68.30
88.02
102.35
111.82
117.05
118.62
117.07
112.98
107.05
99.96
92.24
84.09
75.42
66.00
55.74
44.94
34.21
24.32
15.84
8.88
2.99
-2.54
-8.41
-14.96
-22.01
-29.06
-35.48
-40.89
-45.37
-49.38
-53.67
-58.97
-65.67
-73.68
-82.23
-89.88
-94.61
-94.31
-87.19
-72.59
-51.37
-25.90
0.60
24.92
44.77
59.18
68.32
72.98
73.96
71.76
66.76
59.47
50.76
41.85
33.97
27.89
23.70
20.89
18.63
16.26
13.55
10.78
8.37
6.54
5.02
3.12
0.10
-4.53
-10.65
-17.58
-24.50
-30.73
-36.04
-40.72
-45.35
-50.69
-57.26
-65.32
-74.53
-83.89
-91.65
-95.58
-93.44
-83.72
-66.34
-42.86
-16.19
10.24
33.43
51.49
63.86
70.92
73.58
72.79
69.40
64.21
58.13
52.14
47.10
43.50
41.29
39.93
38.60
36.59
33.59
29.81
25.81
22.21
19.31
16.90
14.34
10.85
5.93
-0.47
-7.86
-15.48
-22.59
-28.73
-33.86
-38.38
-42.92
-48.27
-55.04
-63.43
-72.96
-82.38
-89.71
-92.63
-89.09
-78.01
-59.84
-36.55
-11.18
13.10
33.74
49.40
59.89
65.77
67.85
66.81
63.27
57.84
51.43
45.07
39.77
36.17
34.36
33.87
33.88
33.58
32.44
30.32
27.50
24.48
21.66
19.14
16.65
13.66
9.66
4.41
-1.88
-8.73
-15.50
-21.71
-27.14
-31.91
-36.40
-41.12
-46.60
-53.24
-61.21
-70.30
-79.71
-88.03
-93.26
-93.32
-86.52
-72.30
-51.62
-26.84
-1.13
22.45
41.78
56.02
65.41
70.76
72.81
72.10
69.04
64.17
58.33
52.50
47.51
43.80
41.32
39.73
38.63
37.73
36.85
35.93
34.87
33.54
31.77
29.38
26.21
22.05
16.84
10.61
3.60
-3.79
-11.10
-17.93
-24.05
-29.36
-33.97
-38.07
-42.04
-46.31
-51.41
-57.71
-65.20
-73.39
-81.10
-86.61
-88.04
-83.73
-72.82
-55.69
-34.02
-10.42
12.18
31.36
45.76
55.27
60.60
62.82
62.75
60.86
57.35
52.49
46.86
41.24
36.43
33.03
31.10
30.36
30.27
30.30
30.09
29.42
28.23
26.45
24.03
20.91
17.07
12.54
7.40
1.78
-4.23
-10.47
-16.77
-22.88
-28.58
-33.70
-38.24
-42.43
-46.65
-51.38
-57.01
-63.66
-71.07
-78.48
-84.59
-87.66
-85.86
-77.90
-63.50
-43.73
-20.89
2.14
22.73
39.10
50.64
57.66
60.99
61.52
59.96
56.89
52.82
48.28
43.79
39.84
36.72
34.55
33.24
32.49
31.88
30.93
29.36
27.10
24.36
21.43
18.52
15.58
12.33
8.43
3.68
-1.79
-7.66
-13.49
-18.94
-23.91
-28.49
-32.87
-37.27
-41.88
-46.85
-52.28
-58.24
-64.67
-71.12
-76.68
-79.87
-78.96
-72.42
-59.63
-41.30
-19.49
2.88
23.01
38.92
49.87
56.24
58.92
58.92
56.97
53.58
49.22
44.42
39.71
35.56
32.15
29.42
27.17
25.22
23.49
22.02
20.83
19.81
18.73
17.22
14.94
11.75
7.73
3.14
-1.69
-6.62
-11.71
-17.10
-22.96
-29.24
-35.67
-42.00
-48.05
-53.95
-60.15
-67.15
-75.33
-84.69
-94.71
-104.43
-112.50
-117.45
-117.98
-113.34
-103.62
-89.95
-74.30
-59.01
-46.23
-37.51
-33.44
-33.94
-38.47
-46.51
-57.70
-71.77
-88.18
-105.64
-121.94
-134.08
-138.98
-134.47
-120.11
-97.54
-70.10
-41.85
-16.37
3.98
18.28
26.68
29.80
28.26
22.57
13.12
0.33
-15.39
-33.79
-54.73
-77.94
-102.58
-126.90
-148.23
-163.66
-171.12
-170.26
-162.86
-152.43
-142.90
-137.29
-136.60
-139.46
-142.85
-143.28
-138.08
-126.13
-108.07
-85.64
-60.82
-35.05
-8.83
18.31
47.53
79.99
115.96
153.96
190.31
219.75
237.03
239.13
226.90
205.29
181.77
163.66
155.61
158.38
169.36
184.19
198.70
209.94
216.35
217.37
212.90
203.14
188.42
169.18
145.68
117.92
85.65
48.76
7.86
-35.09
-76.53
-111.67
-135.37
-143.53
-134.37
-109.33
-73.00
-32.23
5.52
33.94
49.13
50.22
39.08
19.55
-3.38
-24.35
-38.28
-41.14
-30.72
-7.28
26.38
65.54
104.95
140.46
170.10
194.12
214.05
231.37
246.46
258.48
266.05
268.15
264.60
255.77
241.85
222.31
196.04
162.02
120.04
70.72
14.85
-47.28
-115.83
-190.13
-267.14
-340.74
-402.82
-446.01
-466.61
-466.15
-450.62
-427.73
-403.88
-382.29
-363.26
-345.66
-328.62
-312.30
-297.48
-284.63
-273.19
-261.73
-248.67
-233.15
-215.57
-197.34
-180.26
-165.64
-153.81
-144.03
-134.89
-125.03
-113.70
-100.98
-87.61
-74.45
-61.94
-49.78
-37.05
-22.62
-5.75
13.54
34.35
55.23
74.71
91.78
106.11
117.93
127.70
135.63
141.42
144.34
143.59
138.78
130.38
119.69
108.62
99.07
92.41
89.14
89.10
91.68
96.43
103.35
112.98
126.40
145.25
171.61
207.39
253.26
307.21
363.88
415.22
452.63
469.93
465.56
442.98
408.99
371.00
334.55
302.42
275.22
252.56
233.93
218.67
205.61
193.06
179.50
164.64
149.70
136.79
127.28
120.86
115.34
107.85
96.57
81.84
65.73
50.44
36.89
23.98
9.38
-9.09
-32.49
-60.43
-91.47
-123.68
-154.79
-182.18
-203.21
-216.04
-220.68
-219.51
-216.70
-216.45
-220.98
-229.30
-237.56
-240.78
-234.96
-218.46
-192.03
-157.65
-117.16
-71.44
-20.25
37.03
100.58
169.37
240.69
310.05
371.72
419.67
449.22
458.88
451.09
431.88
408.84
388.25
372.84
361.24
349.29
332.67
309.30
280.29
249.17
220.00
195.38
175.44
158.28
141.13
121.67
98.95
73.10
44.84
14.71
-17.07
-50.25
-84.06
-116.77
-146.03
-169.48
-185.63
-194.08
-195.50
-191.25
-182.99
-172.50
-161.55
-151.64
-143.65
-137.56
-132.49
-127.25
-121.00
-113.86
-106.86
-101.51
-99.04
-99.72
-102.95
-107.50
-111.99
-115.38
-116.83
-115.86
-112.24
-106.08
-97.91
-88.55
-78.89
-69.46
-60.35
-51.27
-41.88
-32.12
-22.25
-12.63
-3.45
5.28
13.84
22.56
31.63
40.80
49.37
56.47
61.57
64.74
66.57
67.66
67.97
66.53
61.72
51.93
36.41
15.63
-8.91
-35.50
-62.89
-90.80
-119.76
-150.71
-184.69
-222.96
-267.28
-319.66
-381.14
-450.19
-521.65
-587.05
-636.67
-662.81
-662.47
-638.25
-597.05
-547.00
-494.60
-443.27
-393.71
-345.50
-298.61
-253.78
-212.05
-173.70
-137.95
-103.45
-69.30
-35.74
-4.27
23.04
44.60
60.09
70.67
78.40
85.31
92.47
99.73
105.94
109.76
110.61
109.15
107.28
107.68
112.89
124.35
141.57
161.85
180.87
194.14
198.78
194.67
184.45
172.33
162.28
156.54
155.31
157.57
162.54
170.63
183.75
204.47
234.88
275.14
322.86
372.89
418.25
451.57
466.74
460.60
433.89
391.21
340.27
289.89
247.42
216.46
195.81
180.31
163.49
140.59
110.78
77.38
46.13
22.28
8.24
2.70
1.67
0.53
-3.99
-12.65
-23.71
-33.77
-39.26
-37.68
-28.50
-13.31
5.01
23.24
38.39
47.79
49.02
40.34
21.78
-3.60
-29.71
-49.10
-56.16
-49.97
-35.21
-20.01
-11.79
-13.13
-20.02
-23.52
-13.88
14.66
61.09
117.80
173.60
217.76
243.32
248.41
235.39
208.76
172.88
130.75
84.03
33.54
-19.83
-74.94
-130.37
-184.60
-236.10
-283.20
-324.17
-357.39
-381.58
-395.96
-400.32
-394.99
-381.11
-360.75
-336.88
-312.69
-290.50
-270.85
-252.39
-232.68
-209.70
-183.06
-154.30
-126.24
-101.79
-83.13
-71.18
-65.58
-64.83
-66.52
-67.70
-65.38
-57.34
-42.82
-22.92
-0.44
20.94
37.91
48.72
53.90
56.11
59.13
66.39
79.75
99.02
122.31
147.08
171.05
192.71
211.10
225.46
235.14
239.72
239.44
235.22
228.36
220.02
210.69
200.22
187.99
173.43
156.30
136.88
115.90
94.46
73.94
55.74
41.07
30.41
23.36
18.65
14.67
10.04
4.08
-3.28
-11.80
-21.22
-31.29
-41.51
-50.75
-57.23
-58.97
-54.47
-43.36
-26.54
-5.80
16.61
38.48
57.79
72.73
81.82
84.21
80.05
70.64
58.12
44.81
32.42
21.60
11.87
2.11
-8.85
-21.52
-35.32
-48.37
-57.82
-60.68
-54.87
-40.32
-19.39
3.51
23.09
34.61
35.19
24.45
4.32
-21.51
-48.51
-72.06
-88.19
-94.02
-87.97
-69.81
-40.39
-1.31
45.31
96.77
149.72
200.07
243.41
275.72
294.41
299.12
291.87
276.45
257.14
237.30
218.49
200.36
181.41
160.12
135.79
108.70
79.64
49.18
17.11
-17.44
-55.44
-97.11
-141.28
-185.44
-226.27
-260.68
-286.72
-304.04
-313.74
-317.61
-317.10
-312.56
-303.08
-287.08
-263.35
-232.10
-195.33
-156.44
-119.15
-86.15
-58.41
-35.05
-14.16
6.18
27.04
48.40
69.53
89.62
108.28
125.65
142.16
158.10
173.35
187.31
199.05
207.43
211.41
210.18
203.41
191.30
174.60
154.47
132.07
108.22
83.17
56.48
27.36
-5.02
-41.06
-80.35
-121.67
-163.13
-202.73
-238.90
-271.16
-300.28
-327.93
-355.77
-384.33
-412.24
-436.17
-451.69
-454.87
-443.86
-419.71
-386.00
-347.48
-308.30
-270.67
-234.61
-198.53
-160.50
-119.33
-75.08
-28.85
17.98
64.52
110.74
157.33
205.04
253.90
302.56
348.03
386.11
412.38
423.40
417.92
397.14
364.18
322.72
275.45
222.95
163.77
95.86
18.99
-63.34
-143.39
-211.02
-256.95
-276.20
-270.09
-246.01
-215.01
-188.62
-175.99
-182.22
-207.94
-249.49
-299.67
-348.98
-387.32
-406.36
-401.59
-373.47
-327.09
-270.31
-211.46
-157.30
-111.93
-76.65
-50.61
-31.73
-17.48
-5.55
5.83
17.71
30.60
44.94
61.38
80.90
104.55
132.89
165.34
199.76
232.56
259.42
276.61
282.04
275.85
260.08
237.66
211.43
183.56
155.60
129.00
105.31
85.99
71.78
62.23
55.83
50.72
45.63
40.47
36.17
33.91
34.11
36.10
38.29
39.05
37.58
34.39
31.01
29.39
31.03
36.61
46.02
58.70
73.94
90.92
108.59
125.48
139.93
150.69
157.50
161.25
163.47
165.31
166.65
165.98
161.19
150.87
135.27
116.37
96.94
79.21
63.97
50.52
37.37
23.17
7.31
-10.09
-28.54
-47.71
-67.47
-87.79
-108.47
-129.10
-149.18
-168.42
-186.95
-205.22
-223.83
-243.06
-262.49
-280.63
-294.90
-302.08
-299.16
-284.43
-258.21
-222.94
-182.47
-140.90
-101.47
-66.07
-35.30
-9.06
12.86
30.51
43.89
53.20
59.04
62.34
64.14
65.18
65.74
65.73
64.78
62.69
59.53
55.65
51.49
47.35
43.13
38.37
32.47
24.83
15.18
3.52
-9.77
-23.96
-37.86
-49.87
-58.11
-60.80
-56.87
-46.30
-30.21
-10.56
10.39
30.67
48.94
64.48
76.99
86.38
92.56
95.52
95.38
92.44
87.25
80.47
72.75
64.56
56.09
47.29
37.93
27.82
17.04
5.91
-4.98
-15.11
-24.20
-32.39
-40.20
-48.32
-57.36
-67.61
-78.91
-90.64
-101.67
-110.49
-115.38
-114.80
-107.81
-94.41
-75.69
-53.57
-30.33
-8.01
12.00
29.08
43.16
54.44
63.08
69.12
72.54
73.39
71.92
68.55
63.79
58.11
51.82
45.15
38.20
31.09
23.95
16.96
10.24
3.87
-2.16
-8.04
-14.10
-20.84
-28.83
-38.66
-50.70
-64.85
-80.41
-95.88
-109.17
-117.87
-119.90
-114.01
-100.19
-79.77
-55.04
-28.73
-3.30
19.40
38.34
53.20
64.04
71.12
74.75
75.27
73.13
68.86
63.08
56.40
49.36
42.42
35.88
29.88
24.42
19.33
14.38
9.36
4.19
-1.07
-6.27
-11.32
-16.24
-21.30
-26.87
-33.41
-41.30
-50.68
-61.27
-72.23
-82.07
-88.84
-90.49
-85.49
-73.28
-54.55
-31.12
-5.48
19.86
42.93
62.56
78.31
90.26
98.64
103.69
105.67
104.89
101.77
96.79
90.36
82.74
74.08
64.64
54.82
45.28
36.66
29.35
23.22
17.75
12.08
5.57
-2.17
-11.07
-20.84
-31.06
-41.49
-52.08
-62.99
-74.55
-87.11
-100.81
-115.35
-129.74
-142.26
-150.64
-152.59
-146.50
-132.05
-110.43
-84.18
-56.41
-30.07
-7.24
11.09
24.88
34.69
41.31
45.52
48.00
49.32
49.92
50.01
49.60
48.53
46.67
44.10
41.29
38.97
37.84
38.19
39.70
41.44
42.19
40.90
37.03
30.71
22.55
13.31
3.53
-6.59
-17.21
-28.59
-40.79
-53.44
-65.64
-76.09
-83.25
-85.72
-82.51
-73.32
-58.66
-39.74
-18.37
3.42
23.64
40.63
53.21
60.78
63.32
61.40
56.12
48.96
41.51
35.20
30.97
29.14
29.39
30.89
32.58
33.35
32.28
28.82
22.89
14.89
5.65
-3.79
-12.37
-19.17
-23.65
-25.78
-26.10
-25.79
-26.49
-29.97
-37.66
-50.17
-66.80
-85.49
-103.10
-116.06
-121.24
-116.69
-102.18
-79.25
-50.81
-20.42
8.50
33.32
52.59
65.95
73.96
77.69
78.36
77.08
74.62
71.45
67.68
63.35
58.37
52.82
46.86
40.78
34.91
29.52
24.71
20.33
16.03
11.33
5.83
-0.60
-7.76
-15.22
-22.56
-29.63
-36.74
-44.52
-53.70
-64.69
-77.15
-89.89
-100.94
-108.02
-109.03
-102.61
-88.59
-68.03
-43.00
-16.05
10.38
34.44
55.07
71.92
85.05
94.71
101.16
104.63
105.40
103.82
100.31
95.30
89.28
82.71
76.03
69.55
63.39
57.45
51.36
44.68
37.08
28.44
18.94
8.98
-0.99
-10.64
-19.97
-29.34
-39.35
-50.71
-63.82
-78.47
-93.55
-107.10
-116.64
-119.75
-114.86
-101.69
-81.39
-56.26
-29.09
-2.55
21.38
41.51
57.41
69.12
76.98
81.45
83.09
82.51
80.23
76.59
71.81
66.02
59.45
52.48
45.62
39.29
33.71
28.75
24.00
18.88
12.89
5.69
-2.69
-11.93
-21.51
-30.89
-39.79
-48.31
-57.09
-67.01
-78.88
-92.90
-108.35
-123.46
-135.67
-142.30
-141.13
-131.10
-112.64
-87.59
-58.66
-28.73
-0.15
25.69
48.30
67.78
84.34
98.03
108.64
115.89
119.71
120.35
118.39
114.51
109.37
103.38
96.80
89.83
82.63
75.48
68.66
62.42
56.87
51.88
47.02
41.61
34.90
26.30
15.66
3.44
-9.50
-22.12
-33.74
-44.17
-53.87
-63.69
-74.56
-87.18
-101.81
-118.00
-134.51
-149.29
-159.71
-163.14
-157.68
-142.79
-119.60
-90.66
-59.27
-28.61
-1.11
21.82
39.75
52.84
61.63
66.77
68.93
68.74
66.70
63.17
58.35
52.46
45.79
38.78
31.93
25.67
20.20
15.32
10.61
5.62
0.05
-6.01
-12.11
-17.55
-21.62
-23.91
-24.54
-24.29
-24.52
-26.92
-32.94
-43.31
-57.49
-73.52
-88.22
-97.88
-99.20
-90.30
-71.38
-44.72
-14.10
16.32
43.10
64.38
80.02
91.17
99.53
106.60
113.21
119.35
124.44
127.55
127.81
124.62
117.77
107.50
94.60
80.25
65.94
53.25
43.53
37.58
35.29
35.51
36.21
34.99
29.82
19.71
5.12
-12.17
-29.62
-44.69
-55.59
-61.79
-64.12
-64.48
-65.34
-69.06
-77.15
-89.77
-105.36
-120.88
-132.38
-135.99
-128.99
-110.60
-82.19
-46.85
-8.57
28.83
62.31
90.04
111.16
125.46
133.09
134.39
130.05
121.06
108.75
94.57
79.85
65.69
52.94
42.27
34.18
28.96
26.49
26.14
26.88
27.44
26.77
24.25
19.95
14.54
9.13
4.92
2.88
3.42
6.24
10.26
13.96
15.76
14.64
10.58
4.68
-1.06
-4.26
-2.85
4.40
17.65
36.00
57.76
80.80
102.70
121.02
133.49
138.38
134.89
123.36
105.25
82.77
58.26
33.68
10.29
-11.30
-30.92
-48.48
-63.99
-77.48
-89.16
-99.44
-108.80
-117.58
-125.91
-133.72
-140.89
-147.36
-153.23
-158.72
-164.04
-169.38
-174.94
-180.97
-187.75
-195.38
-203.60
-211.50
-217.55
-219.97
-217.23
-208.60
-194.39
-175.81
-154.57
-132.41
-110.74
-90.47
-72.13
-55.87
-41.58
-28.87
-17.14
-5.72
5.71
16.92
27.04
34.82
39.09
39.30
35.71
29.43
22.04
15.23
10.28
7.70
7.04
7.03
5.94
2.23
-4.84
-15.06
-27.31
-40.38
-53.62
-67.53
-83.49
-103.03
-126.83
-153.99
-182.05
-207.50
-226.85
-237.45
-238.18
-229.47
-213.01
-191.06
-165.76
-138.37
-108.98
-76.61
-40.03
1.09
45.14
88.12
124.31
147.67
153.46
139.62
107.33
60.90
6.94
-47.01
-93.98
-129.10
-150.62
-159.92
-160.63
-156.83
-151.49
-145.75
-139.36
-131.99
-124.36
-118.44
-116.49
-119.57
-126.55
-134.35
-139.22
-138.43
-131.37
-119.50
-105.17
-90.25
-75.27
-59.55
-42.08
-22.50
-1.53
19.26
38.35
55.09
70.09
84.97
101.68
121.52
144.47
168.90
192.02
210.64
222.32
226.05
222.55
213.83
202.42
190.64
180.20
172.15
167.02
164.86
165.18
166.68
167.32
164.57
156.08
140.37
117.44
88.84
57.55
27.32
1.99
-15.28
-22.64
-19.86
-8.23
9.90
31.84
55.21
78.40
100.52
121.23
140.27
157.25
171.48
182.17
188.70
190.86
188.90
183.42
175.04
164.13
150.71
134.71
116.32
96.43
76.71
59.37
46.51
39.47
38.29
41.77
47.75
53.72
57.37
57.00
51.85
42.25
29.75
16.81
6.39
1.11
2.50
10.58
23.91
40.07
56.47
70.95
82.16
89.52
92.96
92.71
89.13
82.69
74.03
64.02
53.66
43.90
35.47
28.65
23.19
18.45
13.63
8.09
1.56
-5.80
-13.52
-21.05
-28.03
-34.49
-40.89
-48.11
-57.29
-69.47
-85.25
-104.36
-125.38
-145.87
-162.66
-172.62
-173.36
-163.83
-144.56
-117.45
-85.32
-51.30
-18.30
11.29
35.77
54.13
65.96
71.41
71.08
65.96
57.38
46.91
36.17
26.67
19.53
15.25
13.61
13.76
14.46
14.51
13.01
9.66
4.66
-1.39
-7.74
-13.72
-18.89
-23.13
-26.54
-29.36
-31.58
-32.78
-32.03
-28.09
-19.88
-6.89
10.48
31.04
53.15
75.22
96.03
114.76
130.83
143.66
152.54
156.75
155.81
149.78
139.52
126.52
112.64
99.57
88.36
79.08
71.02
63.06
54.32
44.55
34.20
24.17
15.34
8.20
2.65
-1.84
-6.07
-10.86
-16.93
-24.84
-34.74
-46.20
-58.05
-68.37
-74.89
-75.60
-69.37
-56.37
-38.03
-16.61
5.48
26.25
44.42
59.37
70.85
78.80
83.20
84.12
81.85
76.89
69.97
61.81
53.06
44.10
35.15
26.30
17.68
9.57
2.41
-3.35
-7.33
-9.49
-10.25
-10.49
-11.43
-14.36
-20.32
-29.72
-42.12
-56.13
-69.49
-79.50
-83.55
-79.81
-67.80
-48.60
-24.65
0.85
24.74
44.59
59.09
67.98
71.71
71.02
66.64
59.26
49.59
38.57
27.29
16.83
8.05
1.32
-3.49
-6.78
-9.03
-10.52
-11.23
-10.94
-9.40
-6.55
-2.63
1.80
5.93
8.78
9.37
6.88
0.96
-7.95
-18.40
-27.91
-33.41
-32.00
-21.86
-2.84
23.45
54.16
86.10
116.68
144.35
168.58
189.43
206.82
220.23
228.53
230.37
224.53
210.49
188.66
160.57
128.68
96.07
65.70
39.77
19.13
3.15
-9.91
-22.15
-35.25
-49.96
-66.14
-83.07
-99.98
-116.35
-131.96
-146.65
-159.92
-170.71
-177.36
-177.93
-170.69
-154.61
-129.82
-97.73
-60.80
-22.22
14.67
46.84
71.95
88.57
96.31
95.74
88.21
75.65
60.11
43.48
27.20
12.12
-1.54
-14.07
-26.11
-38.34
-51.28
-65.13
-79.71
-94.60
-109.33
-123.56
-137.13
-150.12
-162.80
-175.57
-188.86
-202.96
-217.78
-232.62
-245.97
-255.66
-259.22
-254.65
-241.00
-218.94
-190.56
-158.90
-127.08
-97.52
-71.56
-49.54
-31.28
-16.53
-5.25
2.47
6.64
7.66
6.38
3.90
1.23
-0.93
-2.31
-2.95
-3.00
-2.55
-1.58
-0.11
1.80
3.85
5.55
6.36
5.75
3.30
-1.21
-7.85
-16.47
-26.57
-37.26
-47.16
-54.47
-57.27
-53.95
-43.66
-26.67
-4.39
20.92
46.73
70.75
91.44
108.06
120.53
129.14
134.22
136.14
135.24
132.03
127.13
121.07
113.88
104.95
93.13
77.08
55.92
29.69
-0.46
-32.44
-63.61
-91.18
-112.62
-125.96
-130.17
-125.50
-113.45
-96.63
-78.06
-60.46
-45.54
-33.68
-23.97
-14.53
-3.03
12.85
34.90
64.02
99.96
141.42
186.40
232.63
277.97
320.51
358.38
389.66
412.53
425.70
429.05
423.83
412.43
397.57
381.39
364.81
347.60
328.91
308.03
284.91
260.19
234.79
209.38
184.02
158.21
131.21
102.51
72.20
41.02
10.14
-19.33
-46.69
-71.86
-95.33
-117.88
-140.41
-163.79
-188.80
-215.80
-244.21
-272.05
-295.92
-311.86
-316.69
-309.38
-291.47
-266.59
-239.02
-212.24
-188.19
-167.35
-149.37
-133.81
-120.38
-108.68
-97.99
-87.13
-74.82
-60.15
-43.02
-24.21
-5.31
11.60
24.48
31.77
32.85
28.20
19.24
7.94
-3.81
-14.81
-24.76
-34.30
-44.63
-57.03
-72.37
-90.65
-110.76
-130.61
-147.56
-159.20
-164.04
-162.13
-154.99
-145.10
-135.10
-127.05
-122.07
-120.54
-122.52
-128.31
-138.78
-155.34
-179.56
-212.64
-254.63
-303.85
-356.66
-407.78
-451.20
-481.51
-495.12
-491.08
-471.05
-438.61
-398.21
-354.11
-309.84
-267.89
-229.93
-196.96
-169.45
-147.39
-130.26
-117.08
-106.56
-97.35
-88.26
-78.48
-67.55
-55.33
-41.78
-26.84
-10.36
7.83
27.88
49.83
73.69
99.74
128.65
161.58
199.72
243.60
292.00
341.55
386.89
422.00
441.89
444.19
429.89
402.73
367.96
330.71
294.82
262.36
233.79
208.51
185.43
163.41
141.44
118.81
95.21
70.70
45.78
21.32
-1.68
-22.31
-40.08
-55.26
-68.96
-82.80
-98.33
-116.28
-136.02
-155.42
-171.29
-180.19
-179.37
-167.56
-145.37
-115.17
-80.42
-44.89
-11.70
17.10
40.71
59.19
73.10
83.01
89.37
92.53
92.90
91.05
87.68
83.48
78.98
74.51
70.20
66.13
62.40
59.12
56.36
54.00
51.73
48.97
45.06
39.45
31.92
22.68
12.32
1.65
-8.64
-18.28
-27.50
-37.08
-48.02
-61.12
-76.55
-93.54
-110.31
-124.30
-132.75
-133.35
-124.96
-107.88
-83.85
-55.58
-26.02
2.21
27.26
48.06
64.23
75.82
83.18
86.92
87.82
86.77
84.53
81.61
78.19
74.20
69.53
64.27
58.73
53.44
48.88
45.23
42.31
39.54
36.21
31.71
25.79
18.58
10.59
2.42
-5.47
-12.98
-20.45
-28.58
-38.19
-49.83
-63.46
-78.12
-91.90
-102.24
-106.50
-102.74
-90.31
-70.07
-44.19
-15.55
13.02
39.29
61.84
80.07
93.85
103.39
109.04
111.30
110.85
108.50
105.06
101.14
96.99
92.55
87.57
81.90
75.78
69.75
64.46
60.35
57.33
54.77
51.69
47.19
40.78
32.52
22.99
13.01
3.36
-5.48
-13.45
-20.99
-28.84
-37.94
-49.03
-62.28
-76.97
-91.38
-102.95
-108.89
-106.99
-96.28
-77.47
-52.73
-25.05
2.56
27.82
49.46
67.13
81.03
91.47
98.72
102.94
104.33
103.26
100.34
96.24
91.60
86.79
81.91
76.90
71.68
66.39
61.33
56.92
53.38
50.57
47.93
44.63
39.91
33.30
24.89
15.18
4.93
-5.20
-14.83
-23.94
-32.76
-41.65
-51.00
-61.19
-72.53
-85.13
-98.75
-112.44
-124.54
-132.84
-135.09
-129.72
-116.35
-96.01
-70.83
-43.47
-16.44
8.30
29.60
46.94
60.30
69.91
76.18
79.57
80.60
79.83
77.79
74.93
71.55
67.80
63.72
59.33
54.67
49.88
45.17
40.75
36.78
33.29
30.15
27.14
23.92
20.14
15.43
9.55
2.44
-5.70
-14.48
-23.37
-31.95
-40.01
-47.67
-55.37
-63.79
-73.58
-85.04
-97.87
-110.89
-122.18
-129.42
-130.49
-124.05
-109.99
-89.41
-64.37
-37.41
-10.96
13.04
33.37
49.58
61.83
70.68
76.77
80.67
82.66
82.89
81.42
78.42
74.29
69.55
64.79
60.42
56.58
53.16
49.92
46.70
43.39
39.96
36.27
32.08
27.09
21.02
13.81
5.64
-3.10
-12.01
-20.74
-29.11
-37.07
-44.73
-52.25
-59.88
-67.99
-76.98
-87.17
-98.56
-110.59
-121.98
-130.77
-134.73
-131.94
-121.41
-103.51
-79.88
-53.08
-25.88
-0.58
21.32
39.24
53.30
63.95
71.71
76.99
80.08
81.23
80.75
79.08
76.66
73.93
71.19
68.65
66.36
64.31
62.45
60.66
58.77
56.57
53.89
50.64
46.79
42.42
37.53
32.10
26.02
19.18
11.56
3.25
-5.56
-14.60
-23.62
-32.44
-41.01
-49.52
-58.37
-68.10
-79.19
-91.64
-104.64
-116.47
-124.75
-127.10
-121.90
-108.93
-89.45
-65.89
-41.05
-17.40
3.35
20.41
33.67
43.40
50.05
54.05
55.81
55.76
54.33
51.91
48.86
45.42
41.72
37.87
33.97
30.17
26.64
23.44
20.51
17.62
14.49
10.89
6.76
2.20
-2.61
-7.58
-12.78
-18.37
-24.53
-31.30
-38.55
-45.92
-53.09
-59.79
-65.98
-71.94
-78.18
-85.32
-93.82
-103.63
-113.97
-123.18
-129.11
-129.57
-123.10
-109.38
-89.46
-65.50
-40.08
-15.61
6.25
24.65
39.50
51.00
59.47
65.17
68.35
69.43
68.92
67.45
65.53
63.45
61.27
58.90
56.30
53.54
50.85
48.44
46.48
44.95
43.66
42.28
40.37
37.44
33.15
27.34
20.14
11.98
3.43
-5.01
-13.07
-20.83
-28.71
-37.29
-47.17
-58.68
-71.63
-85.17
-97.63
-106.84
-110.59
-107.27
-96.43
-79.00
-57.02
-33.04
-9.46
12.04
30.55
45.80
57.81
66.61
72.25
74.84
74.72
72.49
68.94
64.89
60.98
57.52
54.49
51.68
48.82
45.78
42.60
39.46
36.51
33.78
31.08
28.06
24.28
19.36
13.11
5.62
-2.76
-11.53
-20.22
-28.48
-36.32
-44.07
-52.33
-61.66
-72.38
-84.28
-96.42
-107.24
-114.77
-117.08
-112.79
-101.45
-83.73
-61.28
-36.37
-11.38
11.67
31.45
47.40
59.59
68.52
74.78
78.90
81.24
82.06
81.59
80.09
77.81
74.95
71.58
67.74
63.49
59.02
54.65
50.71
47.34
44.51
41.95
39.32
36.26
32.45
27.63
21.59
14.26
5.75
-3.60
-13.33
-22.95
-32.10
-40.69
-48.97
-57.45
-66.81
-77.59
-89.84
-102.84
-114.98
-124.01
-127.55
-123.80
-112.08
-93.06
-68.64
-41.42
-14.13
10.95
32.32
49.33
62.10
71.30
77.74
82.15
84.99
86.47
86.65
85.56
83.28
80.02
76.05
71.65
67.12
62.75
58.73
55.18
52.05
49.12
46.14
42.84
39.08
34.78
29.91
24.44
18.28
11.32
3.54
-4.95
-13.89
-22.94
-31.84
-40.40
-48.67
-56.89
-65.50
-75.04
-85.96
-98.35
-111.54
-124.03
-133.54
-137.57
-134.15
-122.48
-103.30
-78.72
-51.66
-24.97
-0.85
19.50
35.84
48.55
58.27
65.60
71.04
74.92
77.47
78.87
79.20
78.47
76.61
73.66
69.82
65.62
61.70
58.67
56.78
55.80
55.09
53.84
51.44
47.67
42.77
37.26
31.61
26.07
20.54
14.71
8.19
0.77
-7.48
-16.24
-25.02
-33.37
-41.04
-48.16
-55.18
-62.82
-71.74
-82.27
-94.10
-106.10
-116.41
-122.85
-123.41
-116.85
-103.14
-83.47
-60.01
-35.28
-11.58
9.43
26.98
40.98
51.78
59.87
65.64
69.39
71.40
71.99
71.51
70.31
68.57
66.34
63.52
60.12
56.37
52.76
49.84
47.99
47.12
46.69
45.93
44.10
40.88
36.42
31.23
25.88
20.74
15.84
10.87
5.43
-0.82
-7.95
-15.73
-23.74
-31.49
-38.63
-45.08
-51.10
-57.29
-64.39
-72.99
-83.16
-94.14
-104.29
-111.39
-113.20
-108.20
-96.08
-77.88
-55.68
-32.01
-9.21
11.05
27.88
41.06
50.83
57.65
61.98
64.30
65.04
64.60
63.33
61.50
59.32
56.96
54.52
52.13
49.83
47.65
45.48
43.14
40.40
37.10
33.22
29.00
24.88
21.27
18.40
16.12
13.89
10.92
6.42
-0.16
-8.89
-19.32
-30.44
-40.98
-49.68
-55.71
-59.02
-60.48
-61.70
-64.55
-70.44
-79.77
-91.59
-103.79
-113.62
-118.41
-116.22
-106.29
-89.17
-66.53
-40.82
-14.72
9.27
29.32
44.46
54.60
60.32
62.61
62.50
60.94
58.65
56.17
53.85
51.88
50.32
49.09
48.02
46.90
45.53
43.73
41.42
38.52
35.05
31.05
26.54
21.54
15.99
9.81
3.02
-4.24
-11.70
-19.07
-26.16
-32.94
-39.62
-46.50
-53.96
-62.30
-71.63
-81.74
-91.98
-101.20
-107.85
-110.35
-107.43
-98.59
-84.28
-65.84
-45.15
-24.19
-4.62
12.44
26.46
37.37
45.33
50.60
53.47
54.30
53.55
51.73
49.38
46.89
44.43
41.94
39.23
36.19
32.86
29.54
26.60
24.34
22.75
21.51
19.98
17.54
13.76
8.64
2.60
-3.74
-9.81
-15.35
-20.56
-25.99
-32.35
-40.31
-50.16
-61.62
-73.76
-85.00
-93.37
-96.97
-94.44
-85.45
-70.80
-52.25
-31.97
-12.05
5.92
21.06
33.04
41.91
47.96
51.57
53.16
53.27
52.33
50.73
48.63
46.03
42.85
39.00
34.55
29.73
24.88
20.44
16.75
13.94
11.82
9.90
7.49
3.96
-1.05
-7.44
-14.73
-22.30
-29.61
-36.53
-43.33
-50.58
-58.91
-68.59
-79.40
-90.36
-99.87
-105.97
-106.82
-101.29
-89.32
-71.96
-51.13
-29.09
-7.84
11.20
27.25
40.17
50.16
57.65
63.07
66.82
69.19
70.36
70.45
69.55
67.73
65.10
61.71
57.68
53.19
48.57
44.31
40.83
38.31
36.49
34.66
31.96
27.67
21.56
13.91
5.40
-3.30
-11.67
-19.51
-27.00
-34.48
-42.43
-51.36
-61.62
-73.14
-85.24
-96.43
-104.67
-107.85
-104.43
-93.97
-77.36
-56.50
-33.76
-11.32
9.24
27.15
42.26
54.73
64.81
72.64
78.28
81.80
83.35
83.18
81.64
79.01
75.52
71.37
66.81
62.18
57.84
54.04
50.79
47.87
44.95
41.73
38.08
34.01
29.51
24.47
18.66
11.90
4.19
-4.13
-12.55
-20.53
-27.79
-34.46
-40.98
-48.03
-56.23
-65.91
-76.92
-88.50
-99.21
-107.17
-110.43
-107.46
-97.69
-81.72
-61.23
-38.44
-15.57
5.71
24.49
40.48
53.83
64.73
73.35
79.73
83.91
85.98
86.15
84.68
81.90
78.17
73.84
69.26
64.80
60.84
57.65
55.34
53.76
52.47
50.83
48.28
44.51
39.60
33.92
27.95
22.01
16.08
9.94
3.26
-4.14
-12.20
-20.62
-28.97
-36.84
-44.02
-50.53
-56.74
-63.25
-70.79
-79.89
-90.46
-101.52
-111.23
-117.24
-117.39
-110.45
-96.49
-76.95
-54.11
-30.43
-7.97
11.97
28.91
42.86
54.15
63.10
69.97
74.97
78.30
80.18
80.87
80.55
79.36
77.38
74.73
71.63
68.49
65.77
63.83
62.75
62.22
61.61
60.19
57.49
53.42
48.35
42.85
37.47
32.47
27.70
22.70
16.95
10.11
2.15
-6.58
-15.51
-24.08
-31.91
-38.93
-45.42
-51.93
-59.11
-67.56
-77.54
-88.80
-100.41
-110.70
-117.62
-119.23
-114.30
-102.73
-85.65
-65.05
-43.19
-22.03
-2.88
13.63
27.39
38.50
47.22
53.83
58.68
62.13
64.42
65.71
65.94
65.00
62.85
59.66
55.78
51.76
48.15
45.32
43.43
42.36
41.76
41.19
40.14
38.20
35.07
30.73
25.44
19.67
13.99
8.84
4.34
0.29
-3.75
-8.20
-13.32
-19.07
-25.21
-31.54
-37.98
-44.62
-51.65
-59.25
-67.45
-76.17
-85.16
-93.96
-101.76
-107.41
-109.59
-107.09
-99.34
-86.64
-70.22
-51.85
-33.40
-16.24
-1.11
11.90
23.06
32.75
41.25
48.69
55.10
60.42
64.52
67.24
68.39
67.84
65.58
61.85
57.14
52.17
47.71
44.42
42.65
42.26
42.67
43.05
42.57
40.71
37.41
32.99
27.98
22.82
17.69
12.46
6.86
0.67
-6.17
-13.44
-20.77
-27.73
-34.00
-39.49
-44.38
-49.09
-54.26
-60.50
-68.22
-77.31
-86.96
-95.69
-101.61
-102.91
-98.36
-87.74
-71.94
-52.73
-32.30
-12.66
4.68
18.95
29.99
38.07
43.66
47.24
49.19
49.82
49.40
48.15
46.29
43.94
41.24
38.25
35.06
31.81
28.65
25.76
23.22
21.06
19.20
17.45
15.64
13.60
11.19
8.31
4.87
0.82
-3.85
-9.07
-14.74
-20.70
-26.84
-33.06
-39.33
-45.71
-52.37
-59.51
-67.22
-75.29
-82.99
-89.10
-92.13
-90.72
-84.13
-72.49
-56.78
-38.59
-19.67
-1.70
13.99
26.43
35.08
39.88
41.21
39.89
36.95
33.45
30.25
28.01
27.08
27.55
29.23
31.61
33.96
35.38
35.17
32.95
28.84
23.39
17.45
11.88
7.36
4.20
2.28
1.13
0.02
-1.80
-4.92
-9.58
-15.63
-22.59
-29.84
-36.79
-43.14
-48.88
-54.37
-60.17
-66.75
-74.17
-81.82
-88.47
-92.46
-92.24
-86.81
-76.12
-61.09
-43.33
-24.68
-6.71
9.54
23.65
35.65
45.73
54.03
60.53
65.10
67.65
68.22
67.06
64.51
60.88
56.34
50.97
44.88
38.32
31.72
25.64
20.54
16.59
13.59
10.96
7.98
4.01
-1.26
-7.68
-14.76
-21.84
-28.38
-34.07
-38.99
-43.49
-48.15
-53.63
-60.51
-69.07
-79.08
-89.60
-99.05
-105.45
-106.92
-102.28
-91.41
-75.22
-55.49
-34.30
-13.59
5.16
21.07
33.87
43.71
51.02
56.27
59.86
62.04
62.96
62.72
61.49
59.48
56.92
53.98
50.77
47.36
43.85
40.39
37.17
34.28
31.70
29.23
26.53
23.23
19.02
13.79
7.61
0.70
-6.58
-13.93
-21.11
-28.09
-35.08
-42.51
-50.87
-60.44
-70.94
-81.38
-90.01
-94.77
-93.90
-86.51
-72.92
-54.60
-33.68
-12.37
7.50
24.82
39.05
50.13
58.28
63.86
67.27
68.97
69.31
68.51
66.70
63.89
60.10
55.46
50.26
44.93
39.94
35.67
32.32
29.90
28.14
26.57
24.62
21.72
17.48
11.85
5.10
-2.19
-9.39
-16.06
-22.10
-27.80
-33.76
-40.65
-48.95
-58.66
-69.21
-79.28
-87.10
-90.73
-88.64
-80.16
-65.82
-47.14
-26.34
-5.68
13.06
28.86
41.41
50.90
57.70
62.22
64.74
65.58
65.05
63.54
61.40
58.89
56.16
53.18
49.97
46.60
43.29
40.27
37.71
35.55
33.44
30.92
27.46
22.77
16.90
10.20
3.25
-3.47
-9.77
-15.95
-22.75
-31.07
-41.52
-54.00
-67.36
-79.62
-88.40
-91.60
-88.12
-78.16
-63.04
-44.80
-25.56
-7.09
9.48
23.64
35.27
44.48
51.44
56.34
59.35
60.67
60.55
59.23
56.96
53.97
50.48
46.67
42.78
39.04
35.73
33.07
31.13
29.74
28.39
26.42
23.13
18.11
11.42
3.63
-4.43
-12.02
-18.80
-25.02
-31.40
-38.76
-47.77
-58.55
-70.57
-82.58
-92.82
-99.25
-100.13
-94.38
-82.02
-64.20
-42.94
-20.56
0.90
20.00
36.05
48.96
58.93
66.29
71.30
74.19
75.21
74.68
73.04
70.78
68.32
65.93
63.66
61.37
58.86
55.98
52.66
48.93
44.83
40.36
35.46
30.07
24.14
17.78
11.18
4.65
-1.53
-7.19
-12.38
-17.35
-22.55
-28.48
-35.56
-44.05
-53.94
-64.97
-76.46
-87.31
-95.97
-100.67
-99.85
-92.66
-79.33
-61.21
-40.39
-19.11
0.81
18.29
32.94
44.85
54.28
61.45
66.49
69.53
70.75
70.44
68.97
66.72
64.00
60.95
57.58
53.79
49.57
45.07
40.63
36.63
33.33
30.73
28.57
26.46
24.00
20.93
17.06
12.27
6.55
-0.04
-7.26
-14.75
-22.09
-29.08
-35.80
-42.66
-50.21
-58.90
-68.80
-79.45
-89.75
-98.17
-102.96
-102.61
-96.29
-84.12
-67.25
-47.61
-27.35
-8.39
8.03
21.39
31.83
39.76
45.69
49.99
52.84
54.34
54.55
53.55
51.49
48.65
45.39
42.16
39.36
37.29
36.03
35.44
35.18
34.84
34.08
32.66
30.51
27.71
24.35
20.54
16.31
11.67
6.57
0.96
-5.08
-11.43
-17.85
-24.10
-30.01
-35.58
-41.01
-46.72
-53.24
-60.98
-69.96
-79.55
-88.42
-94.76
-96.77
-93.19
-83.71
-69.11
-51.00
-31.37
-12.08
5.48
20.49
32.67
42.06
48.93
53.63
56.53
57.94
58.15
57.40
55.89
53.80
51.29
48.42
45.24
41.82
38.34
35.13
32.53
30.85
30.07
29.89
29.77
29.10
27.50
24.92
21.60
17.99
14.43
10.98
7.44
3.42
-1.42
-7.17
-13.59
-20.21
-26.51
-32.18
-37.24
-42.04
-47.13
-53.12
-60.41
-69.08
-78.70
-88.28
-96.33
-101.14
-101.15
-95.44
-84.05
-68.03
-49.20
-29.70
-11.41
4.38
17.14
26.96
34.30
39.62
43.28
45.46
46.25
45.80
44.38
42.27
39.76
36.97
33.92
30.62
27.22
24.00
21.37
19.68
19.02
19.11
19.37
19.08
17.68
15.00
11.28
7.09
3.04
-0.55
-3.70
-6.81
-10.40
-14.86
-20.28
-26.48
-33.03
-39.49
-45.46
-50.77
-55.47
-59.83
-64.36
-69.64
-76.10
-83.73
-91.84
-99.01
-103.36
-103.10
-97.09
-85.25
-68.54
-48.72
-27.82
-7.65
10.46
25.82
38.18
47.66
54.48
58.96
61.43
62.21
61.69
60.27
58.34
56.23
54.08
51.86
49.49
46.95
44.36
42.05
40.34
39.39
39.03
38.77
37.97
36.06
32.78
28.26
22.94
17.37
11.96
6.87
1.96
-3.07
-8.52
-14.52
-21.00
-27.74
-34.45
-40.96
-47.17
-53.16
-59.07
-65.19
-71.90
-79.60
-88.52
-98.40
-108.28
-116.47
-120.88
-119.64
-111.71
-97.28
-77.75
-55.28
-32.19
-10.45
8.67
24.55
37.09
46.52
53.20
57.65
60.38
61.93
62.69
62.92
62.66
61.85
60.37
58.21
55.53
52.66
50.05
48.09
46.99
46.61
46.54
46.18
44.98
42.64
39.19
34.92
30.24
25.43
20.58
15.51
9.87
3.33
-4.30
-12.88
-22.01
-31.09
-39.59
-47.17
-53.94
-60.34
-67.11
-74.99
-84.46
-95.37
-106.79
-116.97
-123.63
-124.53
-118.09
-103.95
-83.16
-57.93
-31.00
-4.99
18.08
37.07
51.59
61.85
68.43
72.11
73.77
74.17
73.85
73.00
71.57
69.35
66.24
62.38
58.21
54.32
51.28
49.42
48.72
48.79
49.02
48.69
47.24
44.41
40.29
35.22
29.66
23.92
18.03
11.79
4.94
-2.66
-10.85
-19.25
-27.39
-34.99
-42.05
-48.95
-56.29
-64.71
-74.61
-85.83
-97.47
-107.90
-114.99
-116.66
-111.46
-99.12
-80.65
-58.08
-33.91
-10.49
10.48
28.02
41.77
51.77
58.21
61.44
61.94
60.43
57.73
54.59
51.54
48.69
45.82
42.55
38.63
34.09
29.30
24.80
21.05
18.22
16.06
14.04
11.47
7.78
2.69
-3.73
-11.14
-18.99
-26.79
-34.18
-41.09
-47.78
-54.76
-62.68
-72.02
-82.81
-94.43
-105.48
-114.00
-117.97
-115.78
-106.81
-91.57
-71.62
-49.12
-26.26
-4.81
14.12
30.02
42.79
52.54
59.43
63.65
65.53
65.48
64.05
61.80
59.20
56.54
53.99
51.62
49.51
47.82
46.78
46.59
47.31
48.75
50.40
51.61
51.68
50.05
46.43
40.85
33.67
25.39
16.63
7.81
-0.82
-9.39
-18.33
-28.18
-39.35
-51.68
-64.24
-75.33
-82.82
-84.74
-79.98
-68.72
-52.39
-33.18
-13.38
5.23
21.70
35.67
47.18
56.23
62.79
66.86
68.63
68.58
67.20
64.77
61.26
56.38
49.93
42.08
33.51
25.24
18.30
13.37
10.64
9.80
10.14
10.77
10.75
9.29
5.93
0.67
-6.02
-13.30
-20.34
-26.58
-32.00
-37.17
-42.98
-50.24
-59.30
-69.69
-80.16
-88.87
-93.92
-93.96
-88.54
-78.23
-64.38
-48.64
-32.55
-17.25
-3.35
8.91
19.60
28.83
36.73
43.37
48.78
52.96
56.03
58.21
59.82
61.14
62.30
63.29
63.97
64.26
64.27
64.19
64.18
64.18
63.81
62.50
59.70
55.14
48.91
41.47
33.48
25.46
17.70
10.11
2.29
-6.27
-16.05
-27.21
-39.38
-51.58
-62.31
-69.76
-72.29
-68.86
-59.40
-44.83
-26.89
-7.65
11.06
28.01
42.71
55.23
65.83
74.67
81.62
86.35
88.56
88.21
85.64
81.50
76.50
71.24
66.02
60.90
55.88
51.01
46.50
42.60
39.42
36.77
34.13
30.80
26.24
20.32
13.40
6.21
-0.56
-6.53
-11.91
-17.34
-23.64
-31.37
-40.66
-51.20
-62.31
-73.20
-82.99
-90.73
-95.33
-95.63
-90.62
-79.78
-63.34
-42.24
-18.04
7.53
32.72
55.73
74.50
86.67
89.87
82.55
64.91
39.49
10.94
-15.02
-33.10
-39.89
-34.42
-18.04
6.36
35.36
65.61
94.22
118.80
137.55
149.54
155.02
155.53
153.75
152.79
155.31
162.83
175.37
191.71
209.99
228.24
244.78
258.41
268.32
274.06
275.64
273.46
268.25
260.82
251.82
241.58
230.19
217.68
204.09
189.51
173.88
156.85
137.87
116.44
92.47
66.46
39.38
12.45
-13.38
-37.72
-60.80
-83.39
-106.60
-131.56
-159.06
-188.94
-219.70
-248.35
-270.98
-283.92
-285.13
-275.13
-256.99
-235.22
-214.11
-196.32
-182.33
-171.00
-160.63
-150.15
-139.59
-130.01
-122.81
-119.10
-119.16
-122.41
-127.61
-133.33
-138.53
-142.77
-146.25
-149.59
-153.49
-158.53
-164.85
-171.97
-178.41
-181.46
-177.33
-162.05
-132.92
-90.05
-37.17
18.95
70.22
109.61
133.09
140.36
134.34
119.69
101.20
82.57
65.84
51.60
39.42
28.62
18.66
9.47
1.45
-4.63
-7.76
-6.84
-0.95
10.30
26.38
45.54
64.99
81.56
92.58
96.74
94.36
86.94
76.37
64.05
50.58
35.99
20.37
4.41
-10.55
-22.90
-31.48
-35.96
-36.85
-35.00
-31.17
-25.72
-18.86
-11.03
-3.25
2.88
5.68
3.95
-2.45
-12.58
-24.75
-37.05
-47.98
-56.68
-62.98
-67.24
-70.13
-72.56
-75.55
-79.96
-86.10
-93.42
-100.53
-105.71
-107.72
-106.57
-103.68
-101.30
-101.54
-105.44
-112.62
-121.75
-131.32
-140.30
-148.46
-156.11
-163.69
-171.50
-179.64
-188.07
-196.68
-205.18
-212.95
-219.01
-222.13
-221.08
-214.93
-203.23
-186.05
-163.88
-137.40
-107.54
-75.37
-42.38
-10.65
17.08
37.67
48.58
48.98
40.68
28.20
17.52
14.15
21.06
37.87
61.31
86.93
110.95
131.15
146.75
157.34
162.22
160.21
150.41
133.10
110.02
83.79
56.82
30.19
3.31
-25.62
-58.58
-96.67
-139.50
-185.13
-230.35
-271.22
-303.60
-323.93
-329.91
-321.15
-299.25
-267.30
-228.91
-187.05
-143.36
-98.04
-50.51
-0.27
52.27
105.45
156.53
202.28
239.94
267.97
286.54
297.26
302.46
304.17
303.43
300.26
294.22
285.20
273.74
260.90
247.57
234.04
219.90
204.69
188.38
171.69
155.52
140.23
125.12
108.54
88.76
64.89
37.43
8.13
-20.86
-47.88
-72.35
-94.74
-116.08
-137.38
-159.11
-181.03
-202.14
-220.82
-235.00
-242.53
-241.61
-231.25
-211.69
-184.41
-152.01
-117.58
-84.13
-54.02
-28.73
-8.90
5.39
14.36
18.39
18.04
14.14
7.71
-0.20
-8.75
-17.47
-26.00
-33.84
-39.95
-42.91
-41.29
-34.37
-22.58
-7.56
8.33
22.77
34.20
42.23
47.57
51.67
56.04
61.80
69.28
77.94
86.64
93.87
98.11
98.08
93.00
82.94
69.07
53.65
39.62
29.65
25.14
25.56
28.75
31.89
32.74
30.43
25.29
17.91
8.19
-5.06
-23.48
-48.11
-78.34
-111.78
-144.92
-174.28
-197.27
-212.43
-219.15
-217.24
-206.72
-188.09
-162.65
-132.69
-101.19
-71.22
-45.21
-24.51
-9.37
0.82
7.11
10.68
12.56
13.51
13.90
13.64
12.22
8.80
2.44
-7.54
-21.21
-37.67
-54.91
-70.12
-80.12
-82.21
-74.93
-58.44
-34.58
-6.34
22.98
50.44
74.06
92.91
106.86
116.28
121.69
123.67
122.87
120.04
116.03
111.65
107.39
103.44
99.61
95.67
91.59
87.65
84.31
81.94
80.44
79.16
77.08
73.23
67.07
58.68
48.65
37.79
26.76
15.83
4.85
-6.71
-19.52
-34.09
-50.41
-67.60
-83.75
-96.16
-101.98
-99.11
-86.93
-66.60
-40.76
-12.73
14.42
38.50
58.41
73.96
85.55
93.74
99.10
102.14
103.38
103.30
102.30
100.56
98.00
94.38
89.53
83.57
77.05
70.73
65.30
60.97
57.35
53.52
48.47
41.51
32.47
21.78
10.22
-1.38
-12.43
-22.75
-32.65
-42.86
-54.32
-67.72
-83.07
-99.27
