1520258932.00
64.000000
-0.00
-0.00
-0.00
-0.00
-0.00
-0.00
-0.00
-0.00
-0.00
-0.00
0.00
0.01
0.01
-0.00
-0.03
-0.05
-0.05
0.00
0.13
0.36
0.66
1.01
1.37
1.72
2.06
2.40
2.79
3.24
3.80
4.42
5.06
5.66
6.20
6.68
7.15
7.68
8.31
9.14
10.09
11.04
11.88
12.56
13.14
13.76
14.65
15.96
17.91
20.32
22.90
25.38
27.58
29.57
31.68
34.32
37.81
42.54
48.15
54.10
59.83
64.97
69.58
74.14
79.34
85.71
93.76
103.00
112.62
121.73
129.77
136.75
143.30
150.75
157.77
166.64
177.95
191.79
206.97
220.57
228.25
225.36
208.53
176.87
132.76
80.05
23.07
-34.94
-92.44
-149.16
-205.23
-260.37
-313.74
-363.87
-409.83
-450.91
-486.50
-515.74
-537.23
-549.22
-549.96
-538.37
-514.21
-478.67
-433.88
-382.45
-327.02
-269.84
-212.63
-156.66
-102.95
-52.37
-5.90
35.58
71.43
101.35
125.50
144.38
158.69
169.15
176.37
180.75
182.57
182.07
179.51
175.23
169.65
163.18
156.15
148.81
141.30
133.69
126.02
118.33
110.69
103.16
95.80
88.68
81.83
75.25
68.95
62.95
57.25
51.86
46.78
42.03
37.59
33.45
29.61
26.07
22.81
19.83
17.11
14.67
12.48
10.54
8.83
7.35
6.07
4.97
4.05
3.27
2.62
2.09
1.65
1.30
1.01
0.79
0.61
0.47
0.37
0.29
0.23
0.18
0.15
0.14
0.13
0.14
0.15
0.17
0.19
0.22
0.26
0.30
0.34
0.38
0.43
0.47
0.52
0.57
0.62
0.68
0.74
0.80
0.87
0.94
1.02
1.11
1.22
1.33
1.46
1.60
1.76
1.94
2.14
2.36
2.60
2.86
3.16
3.49
3.85
4.24
4.66
5.12
5.62
6.16
6.74
7.36
8.02
8.72
9.48
10.27
11.12
12.01
12.94
13.93
14.97
16.08
17.26
18.49
19.78
21.07
22.32
23.47
24.40
25.01
25.15
24.74
23.65
21.85
19.31
16.09
12.25
7.99
3.47
-1.08
-5.45
-9.43
-12.85
-15.58
-17.55
-18.75
-19.21
-19.04
-18.39
-17.38
-16.15
-14.77
-13.31
-11.79
-10.20
-8.55
-6.91
-5.30
-3.75
-2.25
-0.77
0.78
2.47
4.36
6.52
8.81
11.10
13.35
15.53
17.70
19.98
22.51
25.41
28.77
32.27
35.63
38.68
41.35
43.77
46.18
48.91
52.19
56.18
60.28
64.01
67.00
69.13
70.64
71.96
73.61
75.92
79.01
81.91
83.66
83.47
80.86
75.72
68.04
57.51
42.94
27.19
10.58
-7.16
-26.49
-48.03
-72.27
-99.17
-127.67
-155.33
-178.56
-194.28
-200.25
-196.28
-184.40
-168.08
-150.84
-134.93
-120.79
-107.50
-94.38
-81.16
-68.41
-57.19
-48.44
-42.50
-39.05
-37.37
-36.71
-36.84
-37.76
-39.59
-42.43
-46.34
-51.39
-57.72
-65.47
-74.64
-84.85
-94.83
-102.39
-104.73
-99.24
-84.34
-60.23
-28.99
5.88
40.35
70.98
95.66
113.71
125.54
132.08
134.21
132.63
127.88
120.57
111.48
101.47
91.29
81.34
71.69
62.25
53.06
44.49
37.20
31.79
28.46
26.82
25.86
24.30
21.05
15.53
7.79
-1.57
-11.68
-21.78
-31.42
-40.56
-49.63
-59.33
-70.49
-83.68
-98.75
-114.52
-128.66
-138.02
-139.44
-130.71
-111.34
-82.88
-48.59
-12.57
21.29
50.11
72.52
88.50
98.92
104.92
107.50
107.31
104.72
100.04
93.65
86.13
78.10
70.17
62.78
56.21
50.58
45.86
41.97
38.70
35.78
32.90
29.68
25.72
20.65
14.15
6.11
-3.34
-13.74
-24.44
-34.74
-44.11
-52.38
-59.74
-66.74
-74.11
-82.63
-92.95
-105.37
-119.54
-134.19
-147.05
-155.08
-155.24
-145.31
-124.71
-94.84
-58.82
-20.63
15.88
47.84
73.73
93.28
107.04
115.88
120.64
121.98
120.45
116.55
110.88
104.08
96.79
89.54
82.63
76.14
70.08
64.42
59.28
54.88
51.44
49.02
47.47
46.28
44.73
42.07
37.70
31.35
23.25
13.96
4.30
-4.95
-13.26
-20.44
-26.78
-32.96
-40.01
-49.00
-60.74
-75.24
-91.37
-106.69
-117.84
-121.36
-114.75
-97.37
-70.75
-38.23
-4.05
27.85
54.64
75.00
88.97
97.37
101.31
101.76
99.43
94.89
88.63
81.18
73.06
64.69
56.36
48.29
40.58
33.37
26.76
20.86
15.72
11.31
7.48
4.02
0.64
-2.94
-6.96
-11.62
-17.08
-23.48
-30.96
-39.53
-49.03
-59.10
-69.22
-78.89
-87.83
-96.16
-104.44
-113.48
-123.95
-135.89
-148.28
-159.01
-165.12
-163.60
-152.25
-130.50
-99.77
-63.13
-24.55
12.02
43.56
68.32
85.91
96.90
102.42
103.72
101.96
98.05
92.59
85.98
78.49
70.35
61.92
53.72
46.36
40.41
36.24
33.85
32.89
32.78
32.90
32.71
31.88
30.19
27.50
23.62
18.37
11.64
3.50
-5.78
-15.71
-25.80
-35.63
-44.96
-53.79
-62.37
-71.18
-80.92
-92.24
-105.41
-119.74
-133.43
-143.59
-146.99
-141.01
-124.57
-98.56
-65.66
-29.61
5.72
37.15
62.61
81.23
93.08
98.88
99.65
96.47
90.43
82.51
73.64
64.69
56.27
48.73
42.04
35.94
30.17
24.65
19.64
15.60
12.91
11.57
11.00
10.14
7.76
2.95
-4.55
-14.17
-24.73
-34.88
-43.67
-50.88
-57.12
-63.65
-71.88
-82.84
-96.66
-112.23
-127.23
-138.48
-142.73
-137.64
-122.48
-98.46
-68.41
-35.97
-4.63
22.97
45.30
61.85
72.82
78.80
80.65
79.36
75.99
71.52
66.72
61.94
57.20
52.28
46.96
41.20
35.26
29.60
24.76
21.07
18.57
16.82
15.08
12.54
8.52
2.80
-4.32
-12.17
-19.92
-26.95
-33.15
-39.12
-46.03
-55.26
-67.76
-83.44
-100.70
-116.57
-127.30
-129.36
-120.52
-100.60
-71.54
-36.88
-0.73
33.24
62.44
85.65
102.69
114.00
120.21
121.95
119.89
114.84
107.82
99.85
91.75
83.84
76.03
68.00
59.61
51.12
43.21
36.64
31.88
28.80
26.62
24.21
20.42
14.49
6.25
-3.89
-15.04
-26.16
-36.35
-45.15
-52.81
-60.23
-68.82
-79.92
-94.23
-111.21
-128.84
-143.83
-152.42
-151.36
-138.97
-115.67
-83.91
-47.47
-10.45
23.67
52.60
75.38
92.09
103.38
110.10
113.02
112.75
109.79
104.60
97.74
89.85
81.60
73.53
65.94
58.92
52.41
46.42
41.09
36.68
33.34
30.86
28.56
25.45
20.47
12.99
3.01
-8.77
-21.25
-33.30
-44.19
-53.79
-62.60
-71.54
-81.71
-93.93
-108.44
-124.57
-140.50
-153.46
-160.16
-157.62
-144.08
-119.62
-86.34
-47.89
-8.48
28.05
59.13
83.58
101.44
113.43
120.45
123.30
122.61
119.02
113.23
106.06
98.29
90.46
82.78
75.21
67.66
60.25
53.38
47.62
43.39
40.71
39.07
37.50
34.86
30.19
22.98
13.30
1.75
-10.71
-23.00
-34.25
-43.98
-52.27
-59.83
-67.80
-77.43
-89.57
-104.17
-119.95
-134.38
-144.11
-145.81
-137.12
-117.41
-88.11
-52.34
-14.20
22.29
54.00
79.09
97.07
108.39
113.96
114.82
111.97
106.34
98.80
90.22
81.35
72.68
64.45
56.66
49.27
42.38
36.32
31.53
28.29
26.47
25.39
23.93
20.85
15.31
7.20
-2.89
-13.85
-24.57
-34.37
-43.22
-51.64
-60.58
-70.95
-83.32
-97.51
-112.32
-125.53
-134.17
-135.26
-126.69
-107.98
-80.58
-47.59
-12.93
19.60
47.19
68.34
82.85
91.46
95.35
95.75
93.65
89.69
84.24
77.56
69.92
61.65
53.15
44.85
37.21
30.64
25.41
21.56
18.79
16.49
13.85
10.13
4.87
-1.99
-10.06
-18.77
-27.55
-36.10
-44.52
-53.39
-63.59
-75.86
-90.26
-105.61
-119.44
-128.39
-129.16
-119.69
-99.86
-71.67
-38.60
-4.61
26.91
53.74
74.92
90.45
100.77
106.48
108.14
106.37
101.86
95.35
87.57
79.08
70.17
60.94
51.54
42.31
33.84
26.86
21.80
18.56
16.41
14.20
10.81
5.53
-1.69
-10.37
-19.74
-29.14
-38.28
-47.34
-56.96
-67.99
-80.99
-95.86
-111.36
-125.08
-133.85
-134.62
-125.40
-106.00
-78.19
-45.18
-10.77
21.55
49.33
71.28
87.16
97.42
102.79
104.10
102.17
97.85
92.00
85.39
78.60
71.90
65.26
58.52
51.64
44.86
38.68
33.63
30.05
27.71
25.87
23.44
19.32
12.79
3.77
-7.20
-19.20
-31.14
-42.26
-52.22
-61.30
-70.20
-79.85
-91.08
-104.11
-118.24
-131.61
-141.46
-144.67
-138.73
-122.60
-97.18
-65.14
-30.19
3.93
34.31
59.29
78.33
91.72
100.10
104.25
104.89
102.68
98.23
92.04
84.57
76.25
67.48
58.66
50.17
42.31
35.36
29.51
24.95
21.66
19.37
17.42
14.90
10.88
4.73
-3.58
-13.56
-24.24
-34.64
-44.06
-52.33
-59.86
-67.54
-76.50
-87.64
-101.15
-116.17
-130.54
-141.22
-145.02
-139.49
-123.80
-99.02
-67.85
-33.87
-0.62
29.12
53.65
72.35
85.40
93.45
97.33
97.89
95.92
92.10
87.06
81.27
75.03
68.48
61.61
54.39
46.97
39.72
33.24
28.15
24.79
23.03
22.19
21.16
18.82
14.28
7.23
-1.98
-12.50
-23.21
-33.09
-41.53
-48.52
-54.62
-60.83
-68.23
-77.65
-89.20
-101.98
-114.02
-122.53
-124.63
-118.07
-102.08
-77.64
-47.30
-14.51
17.25
45.21
67.70
84.12
94.74
100.27
101.67
99.90
95.84
90.23
83.60
76.28
68.47
60.27
51.79
43.31
35.21
28.03
22.32
18.41
16.24
15.22
14.32
12.33
8.30
1.85
-6.67
-16.30
-25.85
-34.42
-41.70
-48.18
-54.97
-63.27
-73.88
-86.66
-100.18
-111.89
-118.69
-117.80
-107.64
-88.45
-62.24
-32.20
-1.86
25.87
49.16
67.30
80.40
88.93
93.39
94.27
92.08
87.48
81.29
74.34
67.21
60.14
53.02
45.71
38.27
31.13
25.01
20.58
18.06
17.03
16.43
14.94
11.46
5.52
-2.64
-12.19
-22.13
-31.61
-40.24
-48.16
-56.00
-64.69
-75.13
-87.79
-102.26
-116.98
-129.28
-135.96
-134.18
-122.37
-100.95
-72.24
-39.79
-7.39
21.93
46.37
65.33
79.01
87.96
92.74
93.88
91.97
87.70
81.89
75.29
68.47
61.73
55.13
48.61
42.19
35.99
30.31
25.48
21.75
19.12
17.27
15.46
12.81
8.48
2.01
-6.53
-16.51
-27.03
-37.18
-46.40
-54.63
-62.33
-70.34
-79.65
-91.00
-104.51
-119.36
-133.56
-144.27
-148.40
-143.53
-128.69
-104.83
-74.53
-41.37
-8.89
20.08
43.91
62.05
74.70
82.51
86.20
86.57
84.36
80.31
75.11
69.28
63.14
56.84
50.39
43.77
37.14
30.83
25.36
21.23
18.66
17.40
16.64
15.25
12.17
6.83
-0.64
-9.52
-18.79
-27.61
-35.58
-42.92
-50.32
-58.68
-68.79
-80.92
-94.55
-108.15
-119.25
-124.91
-122.50
-110.55
-89.27
-60.71
-28.18
4.60
34.39
59.03
77.54
89.93
96.80
99.06
97.64
93.48
87.43
80.21
72.37
64.24
56.02
47.86
40.02
32.89
26.95
22.56
19.78
18.24
17.12
15.38
12.07
6.63
-0.89
-9.83
-19.21
-28.10
-35.96
-42.94
-49.82
-57.81
-68.01
-80.88
-95.78
-110.73
-122.75
-128.51
-125.35
-112.06
-89.31
-59.55
-26.33
6.65
36.26
60.53
78.64
90.72
97.49
99.92
98.99
95.63
90.65
84.65
78.05
71.11
63.87
56.37
48.76
41.37
34.77
29.54
26.05
24.20
23.37
22.46
20.28
15.89
8.98
-0.08
-10.31
-20.56
-29.97
-38.31
-46.17
-54.71
-65.26
-78.63
-94.56
-111.42
-126.37
-135.98
-137.10
-127.82
-108.03
-79.58
-45.73
-10.33
23.01
51.69
74.34
90.68
101.21
106.80
108.36
106.76
102.76
97.12
90.52
83.56
76.56
69.55
62.34
54.74
46.78
38.90
31.83
26.29
22.68
20.74
19.53
17.79
14.32
8.39
0.05
-10.03
-20.76
-31.09
-40.41
-48.72
-56.66
-65.24
-75.52
-88.09
-102.66
-117.82
-130.99
-138.98
-138.73
-128.28
-107.47
-78.12
-43.61
-7.91
25.36
53.72
76.00
92.10
102.54
108.03
109.28
107.04
102.16
95.57
88.12
80.46
72.91
65.51
58.15
50.80
43.61
36.93
31.23
26.88
23.93
21.98
20.21
17.56
13.10
6.33
-2.64
-13.11
-24.10
-34.60
-44.00
-52.17
-59.56
-67.05
-75.71
-86.36
-99.10
-112.90
-125.56
-134.13
-135.64
-128.03
-110.82
-85.27
-54.10
-20.74
11.42
39.68
62.36
78.83
89.32
94.63
95.79
93.82
89.64
83.97
77.39
70.37
63.23
56.19
49.36
42.82
36.75
31.44
27.23
24.39
22.84
22.14
21.47
19.84
16.49
11.02
3.63
-5.13
-14.51
-24.03
-33.61
-43.64
-54.91
-68.08
-83.19
-99.27
-114.20
-125.06
-128.89
-123.58
-108.54
-84.99
-55.56
-23.64
7.49
35.22
57.92
74.89
86.13
92.14
93.62
91.46
86.61
80.04
72.67
65.24
58.19
51.68
45.66
40.11
35.08
30.76
27.35
24.83
22.85
20.70
17.57
12.76
5.99
-2.54
-12.22
-22.29
-32.14
-41.56
-50.90
-60.84
-72.09
-84.82
-98.32
-110.76
-119.59
-122.06
-116.09
-100.96
-77.59
-48.37
-16.64
14.18
41.27
62.88
78.48
88.48
93.86
95.68
94.83
91.82
86.91
80.24
71.97
62.43
52.14
41.84
32.25
24.05
17.60
12.80
9.14
5.81
1.91
-3.18
-9.61
-17.03
-24.77
-32.13
-38.68
-44.48
-50.11
-56.54
-64.83
-75.67
-88.91
-103.23
-116.19
-124.67
-125.69
-117.37
-99.52
-73.77
-43.12
-11.14
18.92
44.65
64.80
79.08
87.90
92.03
92.41
89.91
85.32
79.26
72.18
64.35
55.99
47.38
38.94
31.23
24.84
20.15
17.12
15.19
13.36
10.58
6.05
-0.47
-8.68
-17.95
-27.66
-37.46
-47.37
-57.73
-69.10
-81.94
-96.45
-112.22
-128.01
-141.71
-150.63
-152.04
-144.03
-126.17
-99.87
-68.09
-34.56
-2.76
24.86
47.24
64.54
77.52
86.91
93.08
96.09
96.00
93.21
88.60
83.30
78.28
73.99
70.21
66.39
61.99
56.94
51.69
47.01
43.55
41.41
40.04
38.37
35.31
30.17
22.93
14.24
5.18
-3.29
-10.59
-16.79
-22.52
-28.68
-36.19
-45.64
-57.11
-69.93
-82.66
-93.15
-98.79
-97.18
-86.72
-67.30
-40.40
-8.87
23.88
54.67
81.30
102.65
118.54
129.25
135.18
136.73
134.35
128.64
120.26
109.94
98.29
85.85
73.19
61.13
50.68
42.85
38.26
36.77
37.45
38.74
38.94
36.70
31.35
23.03
12.60
1.25
-9.97
-20.59
-31.04
-42.61
-57.11
-76.16
-100.44
-128.99
-158.95
-185.91
-204.78
-211.13
-202.52
-179.36
-144.78
-103.84
-62.02
-23.82
7.99
32.41
49.61
60.28
65.15
64.91
60.46
53.04
44.16
35.29
27.50
21.29
16.54
12.91
10.07
8.01
6.98
7.24
8.76
10.87
12.40
11.96
8.53
1.84
-7.44
-17.99
-28.34
-37.54
-45.38
-52.46
-59.88
-68.74
-79.82
-93.12
-107.76
-121.77
-132.38
-136.51
-131.55
-116.21
-91.05
-58.50
-22.24
13.73
46.10
72.88
93.52
108.48
118.65
124.77
127.24
126.23
121.98
115.05
106.34
96.85
87.43
78.61
70.69
63.84
58.29
54.16
51.39
49.52
47.90
45.78
42.72
38.56
33.42
27.43
20.61
12.89
4.25
-5.20
-15.15
-25.20
-34.95
-44.16
-52.77
-60.99
-69.27
-78.25
-88.49
-100.11
-112.32
-123.30
-130.36
-130.61
-121.86
-103.45
-76.54
-43.98
-9.55
23.07
51.09
73.11
89.06
99.70
106.04
108.92
108.87
106.21
101.32
94.75
87.23
79.44
71.86
64.66
57.81
51.21
44.89
39.04
33.94
29.81
26.59
23.88
21.03
17.23
11.85
4.61
-4.32
-14.39
-24.82
-34.92
-44.16
-52.29
-59.34
-65.55
-71.41
-77.64
-85.07
-94.33
-105.37
-117.14
-127.48
-133.50
-132.37
-122.23
-102.92
-76.09
-44.76
-12.50
17.50
43.02
63.03
77.43
86.68
91.52
92.69
90.88
86.76
81.00
74.21
66.97
59.76
52.96
46.81
41.40
36.72
32.73
29.42
26.79
24.88
23.57
22.54
21.25
19.04
15.28
9.65
2.19
-6.71
-16.43
-26.36
-36.06
-45.40
-54.48
-63.61
-73.12
-83.36
-94.54
-106.58
-118.86
-130.03
-138.02
-140.35
-134.82
-120.28
-97.22
-67.85
-35.58
-4.06
23.69
45.98
62.39
73.47
80.16
83.35
83.73
81.82
78.11
73.07
67.13
60.62
53.73
46.61
39.43
32.49
26.11
20.58
15.98
12.23
9.11
6.29
3.48
0.32
-3.56
-8.51
-14.72
-22.10
-30.27
-38.65
-46.63
-53.85
-60.32
-66.40
-72.80
-80.31
-89.61
-100.93
-113.64
-126.11
-135.75
-139.54
-134.91
-120.62
-97.25
-67.18
-33.88
-1.03
28.38
52.49
70.59
82.82
89.74
92.04
90.43
85.69
78.72
70.57
62.20
54.39
47.53
41.64
36.52
32.07
28.37
25.71
24.41
24.46
25.39
26.28
25.99
23.58
18.66
11.45
2.76
-6.38
-15.03
-22.76
-29.73
-36.64
-44.54
-54.43
-66.83
-81.41
-96.71
-110.25
-118.92
-119.82
-111.12
-92.65
-66.07
-34.37
-1.10
30.50
58.01
80.06
96.12
106.20
110.66
110.10
105.46
97.99
89.14
80.30
72.49
66.05
60.69
55.74
50.46
44.51
38.06
31.65
25.93
21.29
17.66
14.48
10.91
6.07
-0.61
-9.27
-19.51
-30.52
-41.36
-51.36
-60.38
-69.01
-78.39
-89.79
-103.93
-120.38
-137.25
-151.36
-158.97
-156.83
-143.24
-118.64
-85.60
-48.02
-10.22
24.22
52.95
74.99
90.46
100.05
104.66
105.17
102.50
97.57
91.32
84.60
78.00
71.74
65.73
59.71
53.55
47.33
41.49
36.60
33.12
31.12
30.13
29.16
27.06
22.82
15.95
6.60
-4.49
-16.35
-28.01
-38.86
-48.75
-57.95
-67.15
-77.28
-89.25
-103.60
-119.90
-136.50
-150.45
-158.14
-156.25
-142.92
-118.39
-85.08
-46.90
-8.25
27.13
56.76
79.62
95.83
106.16
111.61
113.11
111.48
107.52
101.99
95.62
89.03
82.54
76.25
70.02
63.72
57.39
51.31
45.96
41.81
39.06
37.44
36.20
34.28
30.55
24.23
15.15
3.78
-8.89
-21.68
-33.61
-44.19
-53.58
-62.53
-72.16
-83.58
-97.46
-113.57
-130.38
-145.12
-154.20
-154.17
-142.76
-119.69
-86.97
-48.34
-8.29
29.06
60.83
85.56
103.09
114.05
119.47
120.53
118.41
114.24
108.89
102.88
96.34
89.23
81.49
73.33
65.29
58.07
52.33
48.48
46.44
45.63
45.12
43.88
41.01
36.10
29.33
21.46
13.50
6.30
0.14
-5.45
-11.66
-19.84
-30.89
-44.65
-59.43
-72.19
-79.08
-76.60
-62.62
-37.17
-2.58
37.15
77.50
114.49
145.43
169.18
185.77
195.88
200.11
199.06
193.57
184.67
173.47
160.89
147.55
133.82
120.09
106.52
93.58
82.08
72.80
66.03
61.12
56.82
51.63
44.77
35.62
24.66
13.47
4.01
-2.41
-5.92
-7.87
-10.36
-15.11
-24.97
-40.90
-60.73
-79.43
-91.05
-90.92
-76.88
-49.91
-13.29
23.30
50.70
64.26
65.16
57.87
47.23
36.94
28.77
24.15
16.27
-0.53
-26.67
-57.28
-86.69
-112.27
-134.56
-156.43
-178.97
-212.15
-263.04
-331.47
-410.57
-492.83
-574.73
-656.55
-741.31
-778.60
-737.07
-621.36
-469.90
-322.17
-197.77
-99.31
-21.92
27.43
59.90
73.68
65.58
37.60
-1.65
-41.82
-76.02
-91.83
-85.61
-56.49
-15.99
24.04
57.39
84.80
109.45
132.30
150.59
157.49
148.07
114.43
54.18
-27.19
-117.75
-204.03
-275.12
-324.02
-348.87
-349.88
-332.91
-305.03
-272.17
-238.01
-204.56
-172.94
-143.65
-117.29
-93.05
-70.66
-49.14
-27.08
-3.39
21.39
44.71
62.77
71.72
69.99
58.62
41.34
23.17
8.79
1.06
0.69
6.60
16.63
28.43
39.82
49.01
54.73
56.53
54.95
51.47
47.90
45.76
45.68
47.24
49.46
51.36
52.57
53.42
54.67
57.15
61.34
67.30
74.71
83.10
92.12
101.68
112.15
124.11
138.21
154.81
173.72
194.29
215.62
236.91
257.79
278.43
299.44
321.76
346.65
375.38
408.77
446.24
485.05
520.23
545.60
555.72
547.92
523.39
486.67
443.77
400.05
358.70
320.67
285.54
252.75
222.19
194.13
168.68
145.37
123.32
101.71
80.30
59.63
40.74
24.69
11.94
2.20
-5.46
-12.23
-19.08
-26.49
-34.29
-41.99
-48.95
-54.79
-59.50
-63.37
-66.80
-70.05
-73.17
-75.95
-78.07
-79.24
-79.30
-78.14
-75.80
-72.41
-68.15
-63.38
-58.52
-53.95
-49.90
-46.43
-43.42
-40.77
-38.55
-36.92
-36.12
-36.21
-37.09
-38.44
-39.99
-41.52
-43.08
-44.78
-46.76
-48.95
-51.11
-52.85
-53.84
-53.93
-53.18
-51.91
-50.43
-48.99
-47.72
-46.60
-45.65
-44.95
-44.72
-45.18
-46.47
-48.45
-50.81
-53.15
-55.18
-56.79
-57.94
-58.56
-58.39
-57.03
-54.07
-49.33
-43.03
-35.69
-28.01
-20.54
-13.52
-6.91
-0.59
5.51
11.19
16.14
20.12
23.17
25.56
27.71
29.99
32.41
34.70
36.44
37.20
36.85
35.57
33.80
32.05
30.78
30.13
29.98
30.01
29.95
29.66
29.26
29.03
29.18
29.87
31.06
32.80
35.23
38.43
42.16
45.67
47.73
47.18
43.62
37.79
31.43
26.49
24.22
24.59
26.38
27.88
27.73
25.50
21.58
16.79
11.77
6.67
1.38
-4.31
-10.42
-16.87
-23.61
-30.85
-38.93
-48.13
-58.42
-69.31
-79.88
-89.15
-96.34
-101.15
-103.84
-105.11
-105.86
-106.86
-108.54
-110.86
-113.39
-115.51
-116.77
-117.05
-116.63
-115.91
-115.18
-114.31
-112.77
-109.82
-104.93
-98.10
-90.00
-81.74
-74.48
-68.93
-64.96
-61.72
-58.09
-53.29
-47.34
-41.18
-36.22
-33.79
-34.67
-38.96
-46.20
-55.26
-64.21
-70.13
-69.58
-59.66
-39.87
-13.32
13.44
32.47
37.75
27.83
6.57
-18.72
-40.62
-54.80
-61.06
-62.26
-61.93
-62.04
-62.53
-62.15
-60.02
-56.43
-52.47
-48.79
-44.58
-37.91
-26.97
-11.81
5.14
19.74
28.32
29.74
26.11
21.96
21.97
29.00
43.02
61.71
81.79
100.34
115.38
125.56
129.80
127.36
118.28
103.80
86.44
69.11
54.09
42.31
33.39
26.32
20.34
15.34
11.65
9.69
9.39
10.20
11.23
11.52
10.37
7.30
2.17
-4.54
-11.80
-18.08
-21.78
-21.87
-18.40
-12.52
-6.20
-1.40
0.47
-0.93
-4.94
-10.26
-15.44
-19.29
-21.20
-21.11
-19.41
-16.73
-13.63
-10.60
-7.93
-5.77
-4.20
-3.24
-2.91
-3.12
-3.69
-4.40
-5.08
-5.68
-6.33
-7.32
-8.85
-10.95
-13.37
-15.74
-17.60
-18.80
-19.40
-19.67
-19.95
-20.33
-20.70
-20.73
-20.02
-18.28
-15.45
-11.71
-7.44
-3.11
0.88
4.21
6.78
8.72
10.20
11.43
12.48
13.28
13.72
13.75
13.38
12.81
12.27
11.96
11.98
12.35
13.02
13.88
14.82
15.75
16.61
17.38
18.11
18.87
19.69
20.51
21.23
21.73
21.94
21.89
21.69
21.49
21.44
21.66
22.22
23.17
24.55
26.37
28.56
31.00
33.40
35.53
37.17
38.22
38.71
38.78
38.55
38.11
37.45
36.48
35.21
33.78
32.48
31.63
31.52
32.26
33.74
35.63
37.39
38.29
37.51
34.19
27.76
18.09
5.68
-8.36
-22.55
-35.43
-45.88
-53.42
-58.26
-61.13
-62.94
-64.51
-66.14
-67.69
-68.73
-68.89
-68.17
-67.11
-66.56
-67.35
-69.82
-73.61
-77.74
-80.90
-81.99
-80.40
-76.25
-70.41
-64.20
-59.12
-56.52
-57.27
-61.34
-67.59
-73.86
-77.58
-76.70
-70.58
-60.38
-48.66
-38.32
-31.48
-28.72
-29.11
-30.73
-31.69
-30.73
-27.49
-22.33
-16.00
-9.34
-3.10
2.12
5.88
8.07
8.76
8.22
6.81
4.94
3.03
1.35
0.07
-0.79
-1.35
-1.70
-1.75
-1.16
0.55
3.89
9.03
15.62
22.85
29.61
34.87
38.02
39.04
38.47
37.08
35.60
34.48
33.86
33.57
33.41
33.16
32.70
31.98
30.98
29.77
28.44
27.09
25.83
24.67
23.48
22.06
20.27
18.06
15.62
13.21
11.14
9.54
8.37
7.34
6.15
4.52
2.27
-0.63
-4.04
-7.60
-10.82
-13.09
-13.88
-12.92
-10.31
-6.54
-2.25
1.96
5.74
9.01
11.86
14.42
16.64
18.32
19.19
19.09
18.13
16.73
15.40
14.61
14.48
14.75
14.94
14.58
13.54
12.06
10.65
9.70
9.32
9.21
8.88
7.99
6.44
4.41
2.21
0.12
-1.76
-3.45
-4.98
-6.39
-7.66
-8.85
-10.03
-11.35
-12.94
-14.79
-16.75
-18.59
-19.94
-20.45
-19.80
-17.84
-14.59
-10.25
-5.19
0.17
5.45
10.30
14.53
18.02
20.75
22.79
24.17
24.97
25.24
25.11
24.75
24.37
24.20
24.34
24.73
25.24
25.75
26.23
26.85
27.76
29.02
30.48
31.79
32.62
32.77
32.31
31.53
30.72
30.05
29.52
29.09
28.70
28.43
28.28
28.16
27.83
26.89
24.98
21.88
17.53
12.05
5.69
-1.20
-8.15
-14.60
-19.99
-23.83
-25.97
-26.52
-25.82
-24.32
-22.41
-20.46
-18.69
-17.27
-16.31
-15.78
-15.54
-15.34
-14.96
-14.30
-13.45
-12.62
-11.99
-11.55
-11.08
-10.26
-8.87
-7.02
-5.06
-3.50
-2.69
-2.68
-3.21
-3.86
-4.32
-4.47
-4.49
-4.66
-5.23
-6.27
-7.76
-9.57
-11.63
-13.86
-16.26
-18.83
-21.50
-24.12
-26.53
-28.59
-30.31
-31.79
-33.06
-33.98
-34.18
-33.08
-30.23
-25.47
-19.18
-12.14
-5.32
0.59
5.33
9.01
12.01
14.53
16.56
17.91
18.40
18.03
17.09
15.98
15.02
14.37
13.91
13.43
12.79
12.00
11.20
10.58
10.26
10.19
10.30
10.47
10.65
10.86
11.22
11.86
12.92
14.47
16.43
18.66
20.91
22.89
24.38
25.16
25.05
23.85
21.30
17.15
11.30
3.88
-4.61
-13.37
-21.43
-27.89
-32.00
-33.38
-31.98
-28.15
-22.48
-15.83
-9.04
-2.91
2.12
5.86
8.47
10.20
11.28
11.80
11.75
11.18
10.17
8.97
7.81
6.81
5.94
5.01
3.80
2.17
0.12
-2.15
-4.37
-6.30
-7.89
-9.32
-10.92
-13.03
-15.83
-19.18
-22.68
-25.73
-27.72
-28.24
-27.24
-25.15
-22.81
-21.25
-21.41
-23.71
-27.82
-32.72
-37.03
-39.43
-39.19
-36.26
-31.18
-24.78
-17.88
-11.02
-4.57
1.31
6.50
10.94
14.55
17.31
19.32
20.75
21.89
23.06
24.40
25.95
27.48
28.66
29.19
28.86
27.71
25.87
23.53
20.85
17.92
14.84
11.73
8.75
6.01
3.53
1.17
-1.23
-3.79
-6.43
-8.96
-11.09
-12.66
-13.65
-14.19
-14.40
-14.33
-13.87
-12.76
-10.72
-7.51
-2.95
2.97
10.18
18.44
27.35
36.44
45.20
53.18
60.16
65.95
70.55
73.98
76.25
77.37
77.37
76.45
74.98
73.43
72.22
71.40
70.56
68.85
65.28
59.12
50.31
39.40
27.43
15.50
4.47
-5.17
-13.22
-19.78
-25.14
-29.79
-34.42
-39.68
-45.95
-53.10
-60.41
-66.86
-71.54
-74.05
-74.64
-74.09
-73.26
-72.64
-72.20
-71.40
-69.49
-65.93
-60.63
-53.95
-46.54
-39.07
-32.01
-25.59
-19.90
-14.94
-10.80
-7.55
-5.24
-3.80
-3.03
-2.63
-2.30
-1.80
-1.04
-0.09
0.84
1.50
1.76
1.70
1.53
1.55
1.84
2.23
2.32
1.72
0.31
-1.65
-3.65
-5.17
-5.92
-5.94
-5.48
-4.76
-3.94
-3.12
-2.47
-2.34
-3.05
-4.74
-7.03
-9.08
-9.83
-8.39
-4.48
1.49
8.56
15.70
22.07
27.32
31.49
34.85
37.59
39.75
41.20
41.75
41.37
40.21
38.60
36.99
35.80
35.30
35.54
36.32
37.22
37.78
37.55
36.21
33.64
29.87
24.95
19.04
12.37
5.38
-1.33
-7.03
-11.11
-13.28
-13.78
-13.31
-12.83
-13.30
-15.34
-18.99
-23.78
-28.85
-33.29
-36.36
-37.74
-37.49
-35.96
-33.62
-30.92
-28.21
-25.69
-23.39
-21.27
-19.21
-17.14
-15.15
-13.45
-12.33
-11.92
-12.08
-12.36
-12.24
-11.39
-9.87
-8.09
-6.54
-5.52
-4.98
-4.52
-3.73
-2.48
-0.98
0.28
0.76
0.21
-1.31
-3.50
-5.95
-8.44
-10.86
-13.36
-16.15
-19.45
-23.34
-27.64
-31.96
-35.65
-37.97
-38.30
-36.26
-31.79
-25.22
-17.02
-7.86
1.53
10.45
18.21
24.34
28.54
30.88
31.54
30.89
29.32
27.18
24.82
22.51
20.51
18.90
17.67
16.70
15.82
14.93
13.96
12.87
11.60
10.04
8.09
5.77
3.18
0.57
-1.73
-3.43
-4.36
-4.42
-3.76
-2.59
-1.28
-0.25
0.02
-0.78
-2.54
-4.71
-6.31
-6.38
-4.24
0.18
6.33
13.34
20.36
26.82
32.62
37.86
42.69
47.02
50.52
52.72
53.24
52.05
49.56
46.60
44.06
42.57
42.09
41.92
40.94
38.26
33.55
27.20
20.05
12.91
6.29
0.28
-5.25
-10.45
-15.49
-20.60
-26.14
-32.33
-39.04
-45.61
-50.93
-54.10
-54.98
-54.64
-54.94
-57.67
-63.59
-71.80
-80.05
-85.57
-86.22
-81.16
-70.98
-57.20
-41.53
-25.40
-9.65
5.23
18.89
30.94
40.94
48.56
53.78
56.88
58.37
58.81
58.55
57.79
56.47
54.50
51.85
48.60
44.99
41.13
37.16
33.20
29.32
25.33
20.94
15.71
9.48
2.45
-4.87
-11.69
-16.96
-19.84
-20.03
-17.83
-14.22
-10.26
-6.79
-4.55
-3.50
-2.71
-0.87
3.09
9.62
18.17
27.69
36.95
43.68
46.54
45.91
43.45
40.80
39.09
37.85
36.32
34.15
29.09
20.42
9.72
-0.38
-8.64
-15.24
-22.93
-33.87
-48.45
-69.57
-97.85
-130.27
-161.91
-189.33
-210.70
-228.51
-245.72
-265.11
-294.54
-339.34
-398.38
-464.50
-528.45
-580.84
-618.10
-639.96
-615.72
-535.93
-418.94
-298.63
-199.62
-138.26
-100.08
-74.27
-55.10
-39.60
-29.52
-26.56
-27.95
-27.97
-22.24
-8.34
10.61
31.19
51.18
65.56
71.67
71.12
68.29
66.86
69.26
73.88
78.94
83.51
84.92
81.82
75.54
69.08
64.99
65.01
68.39
74.12
81.55
89.04
95.42
100.76
105.96
111.89
119.25
127.71
136.94
146.66
156.02
164.08
170.17
174.00
175.54
175.15
173.21
170.30
167.02
163.68
160.23
156.54
152.55
148.64
145.60
144.56
146.74
153.31
165.29
183.22
206.67
233.62
260.39
282.24
294.75
295.35
284.23
264.11
239.04
212.84
188.00
165.53
145.40
127.33
111.11
96.61
83.53
71.36
59.67
48.34
37.63
27.87
19.11
10.98
2.84
-5.81
-14.89
-23.78
-31.48
-37.15
-40.41
-41.48
-41.12
-40.55
-41.37
-45.12
-52.64
-63.34
-74.74
-83.15
-85.11
-79.15
-66.94
-52.85
-42.03
-38.17
-41.79
-50.31
-59.57
-65.70
-66.22
-60.25
-48.32
-32.06
-14.32
1.38
12.34
18.62
24.19
35.71
59.14
95.68
139.78
180.62
206.78
211.24
193.85
160.17
117.79
72.85
28.79
-12.46
-48.86
-77.62
-96.29
-104.36
-103.83
-98.56
-92.37
-87.49
-84.30
-81.98
-79.48
-76.00
-70.97
-63.94
-54.92
-44.89
-36.43
-32.87
-36.71
-47.82
-62.32
-73.16
-71.99
-52.26
-11.93
44.88
108.46
166.17
206.40
222.03
212.24
181.98
139.44
93.16
49.82
13.45
-14.14
-32.65
-42.58
-45.13
-42.29
-36.76
-31.29
-28.00
-27.92
-30.93
-36.13
-42.15
-47.73
-51.96
-54.51
-55.70
-56.25
-56.87
-57.79
-58.54
-58.14
-55.61
-50.56
-43.39
-35.21
-27.33
-20.72
-15.77
-12.33
-9.92
-8.10
-6.65
-5.55
-4.83
-4.52
-4.52
-4.64
-4.64
-4.35
-3.69
-2.65
-1.37
0.06
1.52
2.91
4.14
5.12
5.79
6.09
5.98
5.45
4.48
3.10
1.43
-0.34
-1.98
-3.29
-4.26
-5.06
-6.03
-7.49
-9.57
-12.06
-14.49
-16.30
-17.04
-16.54
-14.94
-12.52
-9.57
-6.37
-3.11
0.01
2.72
4.73
5.88
6.28
6.25
6.22
6.45
6.93
7.36
7.40
6.86
5.83
4.67
3.76
3.37
3.54
4.08
4.71
5.24
5.58
5.72
5.64
5.26
4.40
2.94
0.90
-1.51
-3.91
-5.86
-7.11
-7.64
-7.76
-7.93
-8.60
-10.02
-12.12
-14.59
-16.94
-18.70
-19.50
-19.21
-17.84
-15.59
-12.66
-9.26
-5.57
-1.83
1.69
4.66
6.77
7.91
8.11
7.68
6.97
6.27
5.74
5.36
5.08
4.88
4.73
4.63
4.47
4.14
3.58
2.89
2.33
2.22
2.69
3.60
4.47
4.78
4.19
2.75
0.88
-0.91
-2.27
-3.15
-3.81
-4.63
-5.95
-7.91
-10.40
-13.18
-15.85
-18.05
-19.44
-19.82
-19.08
-17.27
-14.57
-11.27
-7.76
-4.46
-1.66
0.54
2.19
3.51
4.62
5.54
6.14
6.35
6.20
5.92
5.75
5.80
5.94
5.87
5.32
4.22
2.76
1.34
0.38
0.14
0.63
1.56
2.48
2.93
2.64
1.56
-0.03
-1.74
-3.20
-4.25
-4.96
-5.64
-6.63
-8.16
-10.32
-13.00
-15.92
-18.65
-20.73
-21.75
-21.49
-19.92
-17.19
-13.54
-9.31
-4.87
-0.66
2.90
5.48
6.98
7.54
7.51
7.21
6.86
6.45
5.93
5.27
4.49
3.73
3.06
2.47
1.88
1.29
0.73
0.38
0.34
0.67
1.28
1.96
2.48
2.61
2.14
0.96
-0.91
-3.27
-5.71
-7.82
-9.35
-10.43
-11.41
-12.76
-14.66
-16.91
-18.95
-20.05
-19.69
-17.76
-14.54
-10.63
-6.68
-3.18
-0.35
1.87
3.66
5.22
6.62
7.81
8.71
9.22
9.31
9.03
8.40
7.43
6.04
4.29
2.35
0.61
-0.51
-0.69
0.05
1.30
2.35
2.54
1.50
-0.68
-3.43
-6.00
-7.75
-8.42
-8.27
-7.87
-7.93
-8.95
-11.14
-14.28
-17.81
-20.95
-23.02
-23.56
-22.47
-20.03
-16.66
-12.81
-8.80
-4.83
-1.07
2.34
5.22
7.46
9.02
9.94
10.26
10.03
9.31
8.24
7.13
6.23
5.76
5.63
5.59
5.31
4.62
3.65
2.71
2.13
1.99
2.10
2.02
1.46
0.34
-1.13
-2.56
-3.71
-4.59
-5.48
-6.73
-8.58
-11.02
-13.76
-16.35
-18.34
-19.47
-19.68
-19.04
-17.67
-15.69
-13.13
-10.10
-6.78
-3.44
-0.38
2.22
4.38
6.26
8.04
9.67
10.92
11.43
11.05
10.01
8.86
8.21
8.38
9.18
10.05
10.37
9.78
8.40
6.66
5.11
4.12
3.79
3.92
4.24
4.48
4.50
4.27
3.78
3.05
2.09
0.93
-0.32
-1.58
-2.78
-4.01
-5.52
-7.60
-10.41
-13.84
-17.37
-20.22
-21.58
-20.90
-18.15
-13.73
-8.39
-2.95
1.90
5.67
8.17
9.41
9.64
9.29
8.89
8.86
9.39
10.31
11.29
11.95
12.11
11.82
11.32
10.86
10.53
10.29
10.05
9.79
9.58
9.48
9.48
9.49
9.36
8.96
8.23
7.15
5.76
4.08
2.21
0.24
-1.77
-3.72
-5.60
-7.34
-8.86
-10.09
-10.98
-11.68
-12.46
-13.68
-15.56
-18.03
-20.63
-22.64
-23.39
-22.45
-19.87
-16.13
-11.89
-7.71
-3.86
-0.31
3.11
6.46
9.53
11.92
13.24
13.36
12.55
11.33
10.31
9.88
10.10
10.74
11.40
11.73
11.53
10.82
9.80
8.77
7.98
7.60
7.60
7.87
8.22
8.51
8.68
8.70
8.52
8.03
7.09
5.58
3.50
1.05
-1.47
-3.74
-5.55
-6.92
-8.04
-9.17
-10.54
-12.27
-14.38
-16.77
-19.36
-21.96
-24.31
-26.10
-26.95
-26.50
-24.55
-21.10
-16.47
-11.19
-5.91
-1.14
2.84
6.05
8.64
10.79
12.52
13.71
14.22
14.05
13.40
12.57
11.82
11.25
10.82
10.40
9.96
9.53
9.20
9.00
8.87
8.73
8.53
8.28
8.08
7.97
7.95
7.90
7.60
6.88
5.62
3.85
1.69
-0.69
-3.12
-5.44
-7.50
-9.20
-10.49
-11.40
-12.06
-12.64
-13.34
-14.36
-15.81
-17.74
-20.01
-22.30
-24.16
-25.12
-24.81
-23.10
-20.19
-16.46
-12.32
-8.06
-3.78
0.45
4.48
8.03
10.74
12.43
13.17
13.33
13.39
13.60
14.00
14.39
14.54
14.38
13.97
13.43
12.82
12.09
11.17
10.08
9.03
8.25
7.90
7.93
8.13
8.22
7.98
7.38
6.49
5.35
3.96
2.30
0.37
-1.70
-3.77
-5.65
-7.27
-8.66
-9.93
-11.21
-12.64
-14.32
-16.28
-18.39
-20.43
-22.01
-22.80
-22.55
-21.19
-18.87
-15.85
-12.45
-8.98
-5.65
-2.59
0.12
2.43
4.34
5.81
6.83
7.40
7.58
7.53
7.44
7.51
7.85
8.42
9.04
9.49
9.58
9.24
8.52
7.57
6.59
5.70
4.99
4.47
4.05
3.62
3.04
2.20
1.05
-0.40
-2.04
-3.71
-5.21
-6.42
-7.33
-8.16
-9.19
-10.72
-12.79
-15.17
-17.38
-18.84
-19.17
-18.21
-16.13
-13.24
-9.91
-6.42
-3.01
0.11
2.73
4.64
5.74
6.09
5.92
5.61
5.52
5.86
6.61
7.51
8.22
8.49
8.25
7.63
6.87
6.12
5.45
4.82
4.21
3.70
3.35
3.23
3.25
3.19
2.85
2.13
1.12
0.04
-0.92
-1.73
-2.54
-3.70
-5.47
-7.96
-11.00
-14.20
-17.06
-19.10
-19.99
-19.59
-17.97
-15.36
-12.02
-8.27
-4.45
-0.84
2.30
4.80
6.64
7.97
9.02
9.96
10.79
11.31
11.30
10.61
9.37
7.88
6.55
5.68
5.34
5.42
5.67
5.89
5.97
5.90
5.68
5.34
4.92
4.43
3.91
3.33
2.64
1.78
0.71
-0.50
-1.73
-2.82
-3.72
-4.54
-5.50
-6.86
-8.77
-11.15
-13.68
-15.97
-17.61
-18.39
-18.22
-17.13
-15.19
-12.46
-9.08
-5.35
-1.63
1.62
4.16
5.94
7.23
8.31
9.35
10.23
10.72
10.61
9.95
9.05
8.31
7.95
7.89
7.82
7.44
6.68
5.73
4.84
4.25
4.00
3.99
4.10
4.31
4.60
4.94
5.14
4.91
4.01
2.36
0.17
-2.15
-4.18
-5.67
-6.73
-7.74
-9.23
-11.59
-14.85
-18.60
-22.13
-24.64
-25.53
-24.67
-22.23
-18.63
-14.32
-9.60
-4.73
0.04
4.41
8.01
10.54
11.87
12.13
11.74
11.23
11.02
11.33
12.05
12.82
13.27
13.18
12.61
11.85
11.21
10.87
10.72
10.46
9.82
8.69
7.25
5.83
4.68
3.85
3.13
2.19
0.82
-1.00
-3.05
-5.10
-6.97
-8.62
-10.09
-11.41
-12.58
-13.62
-14.61
-15.69
-16.99
-18.50
-19.96
-20.93
-20.88
-19.48
-16.66
-12.71
-8.16
-3.56
0.65
4.30
7.40
10.10
12.47
14.41
15.67
16.00
15.35
13.94
12.21
10.65
9.60
9.13
9.09
9.30
9.62
10.03
10.53
11.04
11.36
11.23
10.54
9.36
8.04
6.92
6.14
5.53
4.71
3.25
1.02
-1.79
-4.73
-7.28
-9.20
-10.49
-11.48
-12.54
-14.01
-16.00
-18.46
-21.10
-23.55
-25.32
-25.92
-24.96
-22.29
-18.13
-13.05
-7.83
-3.24
0.29
2.68
4.24
5.48
6.81
8.39
10.08
11.56
12.50
12.74
12.35
11.54
10.61
9.78
9.15
8.76
8.57
8.54
8.63
8.78
8.89
8.90
8.73
8.37
7.84
7.14
6.26
5.20
3.95
2.60
1.27
0.08
-0.85
-1.54
-2.12
-2.80
-3.80
-5.35
-7.51
-10.17
-13.08
-15.95
-18.49
-20.48
-21.74
-22.04
-21.20
-19.04
-15.64
-11.38
-6.83
-2.63
0.78
3.30
5.13
6.61
8.03
9.44
10.76
11.80
12.46
12.69
12.55
12.13
11.45
10.59
9.68
8.88
8.46
8.57
9.24
10.23
11.20
11.69
11.47
10.51
9.00
7.24
5.47
3.80
2.23
0.68
-0.89
-2.48
-4.06
-5.63
-7.20
-8.76
-10.33
-11.89
-13.45
-15.04
-16.62
-18.12
-19.40
-20.23
-20.41
-19.82
-18.42
-16.31
-13.62
-10.55
-7.32
-4.12
-1.14
1.50
3.72
5.55
7.03
8.21
9.08
9.59
9.77
9.71
9.59
9.61
9.90
10.41
10.96
11.33
11.37
11.10
10.66
10.19
9.79
9.47
9.19
8.82
8.26
7.37
6.07
4.37
2.44
0.53
-1.14
-2.44
-3.49
-4.56
-5.92
-7.76
-10.12
-12.93
-16.00
-19.05
-21.71
-23.50
-23.98
-22.94
-20.38
-16.62
-12.12
-7.38
-2.86
1.11
4.26
6.48
7.77
8.35
8.56
8.73
9.10
9.67
10.29
10.72
10.74
10.23
9.25
7.98
6.71
5.83
5.58
6.03
6.99
8.02
8.64
8.49
7.44
5.71
3.67
1.69
0.00
-1.38
-2.61
-3.92
-5.51
-7.49
-9.87
-12.53
-15.30
-17.88
-19.90
-20.92
-20.54
-18.60
-15.20
-10.86
-6.25
-2.05
1.32
3.78
5.50
6.76
7.76
8.59
9.21
9.58
9.65
9.43
8.90
8.09
7.12
6.21
5.60
5.48
5.89
6.67
7.54
8.24
8.60
8.60
8.19
7.34
5.98
4.15
2.07
0.05
-1.57
-2.68
-3.44
-4.26
-5.61
-7.80
-10.78
-14.14
-17.28
-19.62
-20.78
-20.60
-19.13
-16.60
-13.30
-9.62
-5.87
-2.35
0.78
3.47
5.77
7.73
9.39
10.69
11.57
12.01
12.06
11.88
11.60
11.29
10.95
10.50
9.96
9.39
8.91
8.62
8.55
8.60
8.58
8.30
7.63
6.54
5.17
3.71
2.33
1.08
-0.20
-1.77
-3.89
-6.70
-10.14
-14.01
-17.97
-21.59
-24.40
-25.95
-25.86
-23.98
-20.45
-15.78
-10.63
-5.64
-1.28
2.34
5.27
7.71
9.75
11.40
12.58
13.29
13.59
13.63
13.57
13.57
13.64
13.76
13.82
13.73
13.41
12.84
11.99
10.93
9.78
8.74
7.99
7.58
7.35
7.02
6.25
4.87
2.92
0.61
-1.77
-4.00
-6.02
-7.90
-9.72
-11.60
-13.59
-15.72
-17.91
-19.95
-21.49
-22.09
-21.45
-19.51
-16.52
-12.88
-8.99
-5.05
-1.15
2.70
6.29
9.28
11.31
12.24
12.27
11.94
11.85
12.33
13.32
14.41
15.13
15.22
14.73
13.93
13.14
12.54
12.10
11.70
11.22
10.67
10.17
9.77
9.45
9.06
8.33
7.05
5.13
2.65
-0.20
-3.12
-5.78
-7.90
-9.35
-10.16
-10.56
-10.92
-11.67
-13.12
-15.36
-18.21
-21.27
-24.01
-25.96
-26.75
-26.13
-24.02
-20.52
-15.92
-10.70
-5.44
-0.71
3.06
5.76
7.52
8.74
9.84
11.09
12.49
13.85
14.94
15.57
15.74
15.57
15.10
14.41
13.48
12.39
11.32
10.50
10.16
10.26
10.57
10.72
10.40
9.54
8.26
6.85
5.60
4.59
3.77
2.98
2.04
0.87
-0.56
-2.20
-3.99
-5.76
-7.39
-8.74
-9.89
-11.04
-12.55
-14.70
-17.52
-20.72
-23.78
-26.10
-27.28
-27.09
-25.58
-22.89
-19.24
-14.90
-10.27
-5.79
-1.84
1.39
3.99
6.18
8.21
10.13
11.81
13.08
13.90
14.40
14.82
15.32
15.79
15.96
15.56
14.51
13.11
11.85
11.15
11.12
11.50
11.79
11.59
10.80
9.63
8.43
7.41
6.59
5.80
4.91
3.83
2.64
1.41
0.11
-1.39
-3.26
-5.59
-8.21
-10.80
-12.91
-14.25
-14.86
-15.07
-15.45
-16.53
-18.52
-21.22
-24.08
-26.33
-27.28
-26.55
-24.06
-20.10
-15.11
-9.63
-4.15
0.90
5.23
8.63
11.04
12.54
13.32
13.62
13.69
13.66
13.59
13.45
13.22
12.85
12.40
11.92
11.41
10.92
10.45
10.07
9.87
9.94
10.22
10.57
10.72
10.44
9.61
8.28
6.67
5.06
3.67
2.57
1.70
0.88
-0.04
-1.17
-2.47
-3.84
-5.17
-6.43
-7.67
-9.00
-10.57
-12.43
-14.55
-16.83
-19.13
-21.31
-23.21
-24.69
-25.50
-25.34
-23.95
-21.21
-17.28
-12.62
-7.87
-3.61
-0.19
2.45
4.61
6.68
8.88
11.14
13.15
14.51
15.02
14.70
13.93
13.17
12.82
13.00
13.61
14.30
14.75
14.77
14.34
13.65
12.87
12.16
11.54
11.01
10.49
9.99
9.44
8.82
8.04
7.04
5.75
4.20
2.41
0.49
-1.46
-3.37
-5.20
-6.91
-8.46
-9.85
-11.08
-12.28
-13.67
-15.55
-18.12
-21.32
-24.76
-27.78
-29.64
-29.84
-28.19
-24.86
-20.34
-15.17
-9.88
-4.93
-0.62
2.92
5.68
7.80
9.47
10.83
11.94
12.74
13.12
13.00
12.39
11.41
10.25
9.18
8.38
8.05
8.19
8.72
9.45
10.13
10.60
10.78
10.73
10.51
10.22
9.85
9.42
8.87
8.17
7.25
6.05
4.54
2.74
0.77
-1.15
-2.87
-4.31
-5.54
-6.66
-7.66
-8.49
-9.13
-9.75
-10.72
-12.47
-15.21
-18.70
-22.24
-24.94
-26.02
-25.16
-22.48
-18.52
-13.87
-9.12
-4.70
-0.84
2.32
4.77
6.53
7.75
8.57
9.14
9.56
9.86
10.02
10.03
9.89
9.64
9.38
9.13
8.96
8.82
8.70
8.64
8.67
8.81
8.99
9.05
8.78
8.06
6.93
5.57
4.25
3.08
2.06
1.08
-0.03
-1.31
-2.68
-3.98
-5.08
-5.93
-6.64
-7.38
-8.26
-9.35
-10.70
-12.34
-14.33
-16.65
-19.12
-21.36
-22.87
-23.16
-21.99
-19.37
-15.66
-11.38
-7.07
-3.13
0.21
2.94
5.15
6.91
8.31
9.40
10.14
10.51
10.52
10.22
9.68
8.99
8.21
7.44
6.75
6.27
6.14
6.40
7.02
7.84
8.68
9.34
9.63
9.49
8.88
7.89
6.67
5.39
4.19
3.09
1.96
0.62
-1.13
-3.32
-5.78
-8.19
-10.22
-11.73
-12.84
-13.94
-15.35
-17.23
-19.41
-21.50
-23.03
-23.66
-23.24
-21.78
-19.40
-16.22
-12.41
-8.19
-3.87
0.19
3.66
6.33
8.16
9.23
9.72
9.79
9.59
9.19
8.73
8.31
8.04
7.94
7.98
8.07
8.13
8.13
8.13
8.15
8.19
8.21
8.14
7.93
7.59
7.16
6.66
6.09
5.36
4.36
3.02
1.33
-0.64
-2.71
-4.71
-6.52
-8.11
-9.61
-11.25
-13.21
-15.57
-18.14
-20.54
-22.20
-22.60
-21.47
-18.88
-15.21
-11.01
-6.84
-3.05
0.24
3.06
5.50
7.59
9.26
10.39
10.91
10.83
10.28
9.44
8.51
7.64
6.90
6.31
5.83
5.38
4.96
4.64
4.48
4.52
4.70
4.85
4.79
4.39
3.64
2.65
1.59
0.62
-0.19
-0.87
-1.55
-2.47
-3.89
-5.98
-8.77
-12.07
-15.49
-18.53
-20.73
-21.70
-21.27
-19.46
-16.54
-12.90
-9.04
-5.36
-2.13
0.56
2.79
4.67
6.32
7.80
9.11
10.22
11.01
11.35
11.18
10.57
9.72
8.93
8.41
8.30
8.53
8.91
9.22
9.32
9.19
8.81
8.16
7.22
5.96
4.38
2.60
0.76
-1.04
-2.70
-4.23
-5.68
-7.20
-8.96
-11.09
-13.58
-16.19
-18.47
-19.86
-19.91
-18.48
-15.71
-12.07
-8.13
-4.37
-1.09
1.65
3.92
5.85
7.52
8.96
10.10
10.96
11.55
11.90
12.03
11.89
11.43
10.67
9.79
9.03
8.58
8.46
8.46
8.26
7.58
6.36
4.74
3.00
1.34
-0.11
-1.34
-2.43
-3.47
-4.62
-6.10
-8.11
-10.79
-14.11
-17.80
-21.35
-24.11
-25.44
-24.90
-22.41
-18.30
-13.27
-8.21
-3.80
-0.38
2.19
4.34
6.50
8.88
11.39
13.68
15.43
16.45
16.82
16.65
16.03
15.00
13.51
11.69
9.85
8.45
7.89
8.24
9.18
10.09
10.36
9.61
7.88
5.57
3.18
1.14
-0.44
-1.70
-2.97
-4.66
-7.06
-10.32
-14.35
-18.80
-23.07
-26.49
-28.48
-28.70
-27.20
-24.36
-20.73
-16.88
-13.18
-9.71
-6.31
-2.75
1.07
5.10
9.11
12.79
15.87
18.16
19.59
20.22
20.16
19.66
18.93
18.15
17.43
16.76
16.12
15.50
14.95
14.59
14.41
14.27
13.93
13.09
11.62
9.58
7.19
4.72
2.36
0.15
-1.99
-4.23
-6.69
-9.39
-12.30
-15.34
-18.40
-21.34
-23.91
-25.82
-26.72
-26.37
-24.70
-21.91
-18.33
-14.44
-10.55
-6.82
-3.20
0.47
4.26
8.13
11.85
15.20
17.95
20.10
21.71
22.91
23.85
24.55
24.97
25.06
24.77
24.15
23.30
22.32
21.28
20.20
19.02
17.71
16.22
14.59
12.82
10.93
8.89
6.64
4.18
1.57
-1.04
-3.58
-6.05
-8.60
-11.46
-14.77
-18.43
-22.10
-25.33
-27.63
-28.68
-28.34
-26.70
-23.96
-20.40
-16.31
-11.98
-7.59
-3.27
0.98
5.18
9.25
13.00
16.16
18.53
20.03
20.83
21.19
21.38
21.52
21.57
21.43
21.05
20.51
19.93
19.44
19.03
18.66
18.24
17.72
17.07
16.21
15.05
13.49
11.52
9.27
6.98
4.83
2.84
0.92
-1.12
-3.36
-5.74
-8.06
-10.17
-12.10
-14.10
-16.48
-19.43
-22.89
-26.43
-29.49
-31.47
-31.94
-30.77
-28.11
-24.33
-19.88
-15.22
-10.70
-6.53
-2.73
0.77
4.13
7.37
10.50
13.34
15.78
17.74
19.17
20.06
20.41
20.26
19.74
19.03
18.32
17.80
17.50
17.37
17.33
17.31
17.28
17.21
17.01
16.54
15.61
14.12
12.08
9.65
7.00
4.29
1.58
-1.13
-3.90
-6.74
-9.58
-12.22
-14.39
-15.96
-16.96
-17.74
-18.76
-20.52
-23.22
-26.67
-30.22
-33.00
-34.24
-33.50
-30.75
-26.40
-21.02
-15.27
-9.65
-4.56
-0.18
3.50
6.64
9.46
12.12
14.60
16.76
18.36
19.28
19.56
19.44
19.19
18.97
18.73
18.32
17.54
16.32
14.79
13.21
11.82
10.77
10.07
9.56
9.05
8.37
7.44
6.33
5.17
4.12
3.23
2.43
1.54
0.34
-1.29
-3.33
-5.59
-7.84
-9.92
-11.77
-13.48
-15.24
-17.25
-19.61
-22.35
-25.31
-28.21
-30.59
-31.92
-31.68
-29.58
-25.68
-20.45
-14.69
-9.20
-4.60
-1.09
1.48
3.48
5.24
6.95
8.60
10.07
11.26
12.12
12.63
12.78
12.60
12.12
11.46
10.77
10.19
9.82
9.65
9.64
9.71
9.85
10.09
10.41
10.71
10.79
10.46
9.62
8.35
6.86
5.35
3.91
2.49
0.95
-0.77
-2.62
-4.45
-6.11
-7.58
-8.98
-10.53
-12.39
-14.63
-17.22
-20.11
-23.23
-26.44
-29.42
-31.68
-32.62
-31.77
-28.99
-24.58
-19.14
-13.42
-8.04
-3.38
0.51
3.79
6.68
9.37
11.89
14.10
15.80
16.82
17.07
16.63
15.67
14.42
13.11
11.89
10.88
10.07
9.46
9.03
8.82
8.87
9.13
9.47
9.68
9.51
8.86
7.74
6.36
4.92
3.55
2.27
1.05
-0.17
-1.37
-2.52
-3.63
-4.79
-6.11
-7.69
-9.48
-11.35
-13.16
-14.85
-16.52
-18.42
-20.78
-23.63
-26.63
-29.09
-30.23
-29.40
-26.48
-21.80
-16.14
-10.39
-5.22
-1.01
2.23
4.68
6.63
8.27
9.65
10.78
11.62
12.20
12.62
13.00
13.41
13.82
14.04
13.85
13.19
12.19
11.22
10.67
10.77
11.44
12.36
13.07
13.22
12.68
11.53
10.03
8.42
6.84
5.31
3.78
2.22
0.60
-1.05
-2.74
-4.48
-6.26
-8.07
-9.82
-11.39
-12.67
-13.72
-14.72
-16.03
-17.93
-20.52
-23.58
-26.56
-28.82
-29.75
-29.09
-26.83
-23.23
-18.64
-13.48
-8.14
-3.01
1.55
5.30
8.20
10.36
11.93
13.00
13.63
13.82
13.63
13.19
12.66
12.14
11.69
11.28
10.96
10.86
11.12
11.77
12.61
13.32
13.56
13.19
12.34
11.27
10.29
9.51
8.88
8.24
7.47
6.46
5.23
3.78
2.13
0.29
-1.65
-3.64
-5.58
-7.39
-9.11
-10.80
-12.60
-14.60
-16.88
-19.42
-22.15
-24.91
-27.51
-29.64
-30.83
-30.60
-28.62
-24.82
-19.56
-13.51
-7.41
-1.91
2.72
6.46
9.43
11.75
13.43
14.44
14.80
14.63
14.17
13.71
13.43
13.39
13.51
13.64
13.60
13.27
12.62
11.76
10.89
10.14
9.57
9.14
8.72
8.23
7.67
7.12
6.61
6.16
5.64
4.86
3.64
1.89
-0.31
-2.70
-4.94
-6.72
-7.88
-8.47
-8.71
-8.87
-9.22
-9.98
-11.33
-13.44
-16.37
-19.89
-23.48
-26.32
-27.65
-26.96
-24.25
-19.99
-14.90
-9.68
-4.80
-0.52
3.10
6.06
8.41
10.15
11.35
12.05
12.29
12.10
11.48
10.54
9.42
8.36
7.56
7.11
7.03
7.23
7.60
8.05
8.50
8.85
8.92
8.60
7.83
6.75
5.64
4.75
4.22
3.95
3.70
3.20
2.22
0.72
-1.25
-3.55
-6.00
-8.44
-10.73
-12.85
-14.96
-17.33
-20.15
-23.34
-26.43
-28.68
-29.35
-28.06
-24.91
-20.41
-15.27
-10.13
-5.41
-1.37
1.88
4.37
6.16
7.39
8.21
8.73
8.96
8.85
8.35
7.52
6.55
5.70
5.17
5.10
5.48
6.25
7.26
8.33
9.26
9.81
9.77
9.09
7.81
6.11
4.19
2.23
0.34
-1.41
-2.96
-4.34
-5.58
-6.76
-8.02
-9.49
-11.30
-13.50
-15.98
-18.49
-20.65
-22.01
-22.19
-20.93
-18.22
-14.29
-9.58
-4.60
0.10
4.16
7.37
9.72
11.30
12.22
12.55
12.34
11.62
10.48
9.13
7.86
6.90
6.32
6.07
5.97
5.85
5.61
5.27
4.89
4.57
4.31
3.98
3.35
2.24
0.61
-1.31
-3.19
-4.70
-5.81
-6.81
-8.24
-10.60
-14.02
-18.10
-21.97
-24.59
-25.17
-23.44
-19.69
-14.68
-9.29
-4.27
-0.05
3.27
5.81
7.77
9.36
10.72
11.91
12.92
13.69
14.08
14.00
13.38
12.28
10.92
9.56
8.48
7.81
7.52
7.43
7.34
7.11
6.66
6.00
5.11
3.90
2.27
0.19
-2.25
-4.79
-7.16
-9.19
-10.91
-12.58
-14.47
-16.71
-19.07
-21.04
-21.99
-21.45
-19.35
-15.97
-11.81
-7.36
-2.98
1.19
5.04
8.47
11.35
13.57
15.17
16.26
17.02
17.60
17.96
18.01
17.62
16.75
15.47
13.93
12.31
10.79
9.46
8.34
7.35
6.39
5.34
4.12
2.76
1.30
-0.26
-1.96
-3.98
-6.55
-9.81
-13.71
-17.93
-21.94
-25.14
-27.12
-27.68
-26.87
-24.82
-21.71
-17.72
-13.14
-8.39
-3.90
-0.02
3.21
6.04
8.85
11.88
15.08
18.09
20.52
22.15
23.09
23.64
24.05
24.37
24.40
23.92
22.92
21.64
20.43
19.59
19.10
18.65
17.83
16.34
14.13
11.41
8.46
5.45
2.42
-0.64
-3.74
-6.75
-9.59
-12.32
-15.15
-18.35
-22.00
-25.80
-29.09
-31.13
-31.35
-29.69
-26.51
-22.46
-18.12
-13.87
-9.77
-5.74
-1.64
2.62
7.00
11.40
15.63
19.44
22.56
24.78
26.01
26.37
26.15
25.74
25.46
25.44
25.58
25.59
25.20
24.28
22.93
21.44
20.06
18.91
17.88
16.70
15.11
12.97
10.31
7.28
4.05
0.79
-2.34
-5.16
-7.56
-9.53
-11.30
-13.27
-15.87
-19.29
-23.31
-27.37
-30.66
-32.51
-32.46
-30.48
-26.86
-22.14
-16.93
-11.84
-7.25
-3.29
0.20
3.52
6.92
10.49
14.02
17.19
19.70
21.41
22.40
22.85
22.97
22.86
22.57
22.10
21.52
20.93
20.48
20.21
19.99
19.62
18.84
17.54
15.78
13.78
11.79
9.92
8.10
6.11
3.77
1.07
-1.82
-4.55
-6.85
-8.66
-10.11
-11.44
-12.90
-14.70
-16.97
-19.80
-23.13
-26.67
-29.88
-32.04
-32.52
-31.01
-27.68
-23.15
-18.16
-13.30
-8.84
-4.76
-0.92
2.71
6.07
9.06
11.67
13.98
16.12
18.09
19.71
20.69
20.77
19.96
18.54
16.92
15.54
14.68
14.43
14.69
15.29
16.00
16.54
16.65
16.07
14.73
12.78
10.54
8.42
6.69
5.35
4.21
2.92
1.23
-0.90
-3.34
-5.87
-8.26
-10.45
-12.45
-14.40
-16.45
-18.77
-21.42
-24.37
-27.37
-30.03
-31.87
-32.43
-31.39
-28.73
-24.67
-19.66
-14.25
-9.00
-4.28
-0.30
3.01
5.75
8.10
10.11
11.76
13.00
13.84
14.38
14.74
15.03
15.22
15.27
15.09
14.74
14.35
14.11
14.16
14.47
14.93
15.31
15.41
15.15
14.50
13.49
12.14
10.46
8.51
6.45
4.52
2.92
1.72
0.79
-0.23
-1.64
-3.58
-5.91
-8.30
-10.45
-12.29
-14.02
-16.01
-18.50
-21.52
-24.80
-27.88
-30.28
-31.63
-31.68
-30.32
-27.62
-23.76
-19.11
-14.13
-9.29
-4.95
-1.28
1.70
4.16
6.23
8.06
9.65
10.96
11.94
12.56
12.90
13.08
13.25
13.47
13.67
13.72
13.51
13.02
12.38
11.85
11.63
11.79
12.17
12.47
12.37
11.72
10.55
9.05
7.43
5.82
4.24
2.65
1.05
-0.49
-1.88
-3.03
-3.99
-4.93
-6.11
-7.71
-9.87
-12.51
-15.46
-18.50
-21.46
-24.22
-26.73
-28.92
-30.61
-31.43
-30.95
-28.84
-25.10
-20.04
-14.29
-8.45
-3.03
1.74
5.77
8.97
11.24
12.56
13.00
12.83
12.46
12.23
12.27
12.49
12.68
12.61
12.21
11.58
10.86
10.24
9.83
9.70
9.85
10.21
10.66
11.04
11.19
11.00
10.42
9.45
8.13
6.52
4.77
3.02
1.48
0.26
-0.64
-1.41
-2.33
-3.64
-5.46
-7.70
-10.11
-12.41
-14.46
-16.30
-18.15
-20.23
-22.70
-25.35
-27.80
-29.44
-29.71
-28.25
-25.04
-20.35
-14.75
-8.97
-3.74
0.38
3.17
4.74
5.53
6.08
6.85
8.05
9.61
11.26
12.65
13.53
13.82
13.61
13.09
12.48
12.02
11.85
12.04
12.56
13.25
13.84
14.08
13.77
12.79
11.23
9.29
7.26
5.43
4.00
3.04
2.46
2.04
1.47
0.48
-1.11
-3.24
-5.64
-7.92
-9.77
-11.11
-12.13
-13.23
-14.86
-17.26
-20.44
-24.13
-27.85
-30.95
-32.79
-32.81
-30.76
-26.80
-21.50
-15.68
-10.14
-5.44
-1.74
1.14
3.46
5.53
7.46
9.28
10.95
12.41
13.59
14.39
14.65
14.28
13.31
11.95
10.58
9.64
9.44
10.01
11.07
12.17
12.82
12.73
11.85
10.42
8.75
7.18
5.91
4.98
4.31
3.77
3.19
2.41
1.33
-0.06
-1.70
-3.47
-5.24
-6.97
-8.66
-10.38
-12.22
-14.29
-16.68
-19.36
-22.10
-24.46
-25.84
-25.71
-23.76
-20.13
-15.33
-10.03
-4.91
-0.40
3.36
6.37
8.65
10.22
11.07
11.26
10.98
10.43
9.81
9.25
8.78
8.44
8.23
8.07
7.88
7.60
7.22
6.83
6.57
6.57
6.83
7.27
7.70
7.86
7.55
6.56
4.89
2.64
0.15
-2.15
-3.89
-4.94
-5.55
-6.27
-7.62
-9.86
-12.87
-16.19
-19.29
-21.70
-23.11
-23.40
-22.46
-20.31
-16.97
-12.72
-7.95
-3.20
1.06
4.51
7.05
8.80
9.96
10.71
11.14
11.31
11.26
11.05
10.74
10.41
10.01
9.45
8.62
7.55
6.38
5.39
4.81
4.69
4.80
4.81
4.41
3.51
2.24
0.92
-0.21
-1.11
-1.96
-3.06
-4.68
-6.94
-9.82
-13.15
-16.65
-19.92
-22.54
-24.03
-24.06
-22.50
-19.51
-15.47
-10.86
-6.14
-1.68
2.19
5.25
7.39
8.64
9.27
9.66
10.22
11.08
12.15
13.09
13.57
13.39
12.61
11.48
10.30
9.29
8.56
8.06
7.74
7.44
7.04
6.46
5.64
4.58
3.34
1.97
0.49
-1.13
-2.89
-4.80
-6.89
-9.23
-11.92
-15.03
-18.46
-21.91
-24.84
-26.59
-26.59
-24.60
-20.85
-15.93
-10.56
-5.39
-0.82
3.09
6.44
9.36
11.91
13.98
15.46
16.31
16.63
16.68
16.70
16.83
17.02
17.04
16.64
15.75
14.53
13.32
12.42
11.96
11.72
11.31
10.30
8.53
6.18
3.65
1.39
-0.30
-1.45
-2.35
-3.44
-5.08
-7.47
-10.61
-14.31
-18.23
-22.00
-25.18
-27.32
-27.98
-26.82
-23.79
-19.11
-13.40
-7.43
-1.96
2.51
5.86
8.26
10.04
11.47
12.68
13.62
14.23
14.51
14.58
14.60
14.70
14.87
15.03
15.08
14.98
14.80
14.66
14.64
14.65
14.49
13.99
13.00
11.57
9.83
7.95
5.99
3.91
1.60
-0.97
-3.68
-6.31
-8.59
-10.40
-11.87
-13.32
-15.17
-17.67
-20.75
-23.99
-26.69
-28.09
-27.67
-25.30
-21.23
-16.06
-10.49
-5.12
-0.31
3.81
7.35
10.41
13.05
15.28
17.03
18.26
18.96
19.20
19.03
18.56
17.94
17.32
16.86
16.63
16.64
16.72
16.63
16.16
15.21
13.86
12.32
10.84
9.61
8.69
7.93
7.08
5.86
4.11
1.83
-0.85
-3.69
-6.50
-9.14
-11.55
-13.73
-15.68
-17.49
-19.29
-21.33
-23.78
-26.77
-30.12
-33.31
-35.60
-36.17
-34.47
-30.40
-24.36
-17.17
-9.77
-2.97
2.72
7.14
10.39
12.67
14.14
14.95
15.24
15.20
15.07
15.11
15.45
16.05
16.66
16.92
16.58
15.54
13.98
12.23
10.66
9.47
8.66
8.03
7.33
6.35
5.03
3.48
1.87
0.38
-0.89
-1.94
-2.86
-3.79
-4.90
-6.43
-8.58
-11.48
-15.05
-18.97
-22.69
-25.45
-26.61
-25.77
-22.98
-18.69
-13.59
-8.38
-3.56
0.60
4.05
6.83
8.98
10.58
11.71
12.53
13.19
13.79
14.30
14.51
14.22
13.31
11.83
10.03
8.25
6.85
6.07
5.93
6.25
6.73
7.00
6.78
5.91
4.41
2.50
0.49
-1.35
-2.84
-4.00
-4.99
-6.07
-7.55
-9.64
-12.38
-15.64
-19.04
-22.03
-24.03
-24.47
-23.07
-19.82
-15.11
-9.57
-3.90
1.36
5.91
9.68
12.72
15.02
16.50
17.08
16.76
15.77
14.47
13.25
12.34
11.77
11.39
11.02
10.55
9.97
9.36
8.84
8.45
8.14
7.76
7.17
6.24
4.95
3.34
1.45
-0.61
-2.74
-4.82
-6.77
-8.57
-10.28
-12.12
-14.27
-16.85
-19.78
-22.69
-25.07
-26.30
-25.92
-23.69
-19.69
-14.29
-8.12
-1.89
3.75
8.34
11.71
13.92
15.20
15.83
16.06
16.10
16.06
16.03
16.01
15.97
15.75
15.22
14.27
12.94
11.43
9.99
8.86
8.15
7.78
7.57
7.31
6.82
5.97
4.68
2.87
0.53
-2.21
-5.10
-7.77
-9.92
-11.49
-12.68
-13.92
-15.65
-18.15
-21.40
-24.99
-28.25
-30.43
-30.87
-29.23
-25.56
-20.28
-14.10
-7.79
-2.01
2.86
6.76
9.86
12.36
14.39
15.88
16.66
16.61
15.80
14.55
13.31
12.38
11.89
11.69
11.57
11.33
10.93
10.42
9.84
9.18
8.39
7.39
6.20
4.83
3.32
1.70
0.04
-1.55
-2.93
-3.95
-4.60
-5.07
-5.65
-6.68
-8.41
-10.91
-14.03
-17.46
-20.79
-23.58
-25.44
-25.98
-24.95
-22.30
-18.18
-12.99
-7.30
-1.73
3.22
7.25
10.34
12.60
14.16
15.16
15.64
15.61
15.08
14.11
12.79
11.25
9.66
8.19
6.96
6.06
5.55
5.47
5.85
6.62
7.61
8.52
8.95
8.56
7.19
4.96
2.22
-0.53
-2.87
-4.62
-5.89
-7.06
-8.60
-10.91
-14.08
-17.87
-21.76
-25.07
-27.08
-27.35
-25.69
-22.30
-17.64
-12.33
-6.97
-2.03
2.20
5.63
8.21
9.98
10.99
11.36
11.38
11.35
11.51
11.89
12.25
12.30
11.84
10.89
9.74
8.76
8.27
8.36
8.85
9.35
9.42
8.72
7.14
4.85
2.24
-0.26
-2.35
-3.97
-5.30
-6.68
-8.46
-10.89
-13.98
-17.53
-21.08
-24.03
-25.71
-25.54
-23.31
-19.18
-13.75
-7.88
-2.35
2.27
5.85
8.53
10.61
12.30
13.67
14.62
15.01
14.73
13.89
12.69
11.44
10.36
9.50
8.82
8.24
7.69
7.24
6.94
6.81
6.69
6.32
5.39
3.79
1.61
-0.83
-3.12
-5.00
-6.44
-7.66
-9.04
-10.92
-13.48
-16.60
-19.82
-22.48
-23.94
-23.72
-21.71
-18.18
-13.62
-8.60
-3.59
1.07
5.23
8.76
11.55
13.56
14.77
15.28
15.23
14.77
14.07
13.22
12.28
11.30
10.28
9.26
8.27
7.36
6.56
5.89
5.33
4.84
4.35
3.79
3.03
2.01
0.72
-0.82
-2.53
-4.39
-6.42
-8.64
-11.12
-13.87
-16.82
-19.75
-22.35
-24.15
-24.70
-23.68
-20.98
-16.82
-11.64
-6.00
-0.43
4.67
9.06
12.60
15.24
16.96
17.87
18.13
17.98
17.69
17.38
17.09
16.67
15.95
14.80
13.28
11.59
10.02
8.82
8.03
7.49
6.88
5.88
4.34
2.29
-0.04
-2.46
-4.72
-6.72
-8.42
-9.87
-11.20
-12.65
-14.50
-16.90
-19.75
-22.64
-24.91
-25.88
-25.08
-22.38
-18.12
-12.90
-7.41
-2.25
2.29
6.09
9.23
11.80
13.85
15.40
16.45
17.07
17.36
17.43
17.35
17.11
16.71
16.08
15.23
14.19
13.01
11.78
10.62
9.68
9.11
8.90
8.89
8.70
7.90
6.21
3.58
0.34
-3.02
-5.99
-8.30
-9.97
-11.32
-12.80
-14.75
-17.36
-20.54
-23.91
-26.94
-28.96
-29.41
-27.95
-24.62
-19.80
-14.15
-8.34
-2.90
1.87
5.96
9.48
12.52
15.08
17.07
18.38
19.00
18.98
18.42
17.51
16.39
15.22
14.15
13.24
12.51
11.89
11.30
10.67
9.97
9.24
8.49
7.71
6.85
5.83
4.62
3.20
1.63
-0.09
-1.91
-3.81
-5.71
-7.56
-9.37
-11.28
-13.54
-16.39
-19.85
-23.59
-26.95
-29.17
-29.65
-28.20
-24.99
-20.49
-15.20
-9.58
-4.01
1.17
5.72
9.42
12.27
14.37
15.83
16.67
16.86
16.40
15.43
14.24
13.21
12.54
12.19
11.95
11.59
11.04
10.48
10.10
10.02
10.13
10.11
9.67
8.67
7.13
5.21
3.07
0.77
-1.62
-4.03
-6.26
-8.09
-9.34
-10.06
-10.50
-11.08
-12.24
-14.28
-17.24
-20.81
-24.34
-27.04
-28.13
-27.15
-24.10
-19.44
-13.92
-8.30
-3.15
1.29
4.98
8.07
10.68
12.84
14.57
15.77
16.38
16.39
15.94
15.22
14.45
13.76
13.14
12.51
11.75
10.85
9.84
8.88
8.09
7.61
7.47
7.63
7.91
8.02
7.63
6.50
4.73
2.65
0.73
-0.66
-1.49
-2.11
-3.03
-4.61
-6.87
-9.50
-12.13
-14.55
-16.88
-19.45
-22.45
-25.79
-28.89
-30.98
-31.38
-29.78
-26.34
-21.54
-15.94
-10.04
-4.26
1.10
5.82
9.75
12.85
15.19
16.86
17.90
18.30
18.06
17.20
15.91
14.45
13.09
12.09
11.54
11.46
11.74
12.19
12.61
12.82
12.73
12.35
11.75
10.93
9.83
8.35
6.48
4.34
2.10
-0.04
-2.03
-3.86
-5.65
-7.42
-9.20
-10.98
-12.80
-14.81
-17.16
-19.88
-22.85
-25.76
-28.21
-29.75
-29.96
-28.53
-25.34
-20.52
-14.56
-8.15
-2.06
3.09
7.03
9.79
11.63
12.80
13.49
13.78
13.77
13.64
13.64
13.88
14.25
14.42
13.99
12.81
11.09
9.39
8.32
8.21
8.99
10.19
11.25
11.72
11.44
10.46
8.90
6.89
4.60
2.18
-0.11
-2.03
-3.44
-4.37
-4.96
-5.43
-6.06
-7.07
-8.69
-11.05
-14.16
-17.78
-21.44
-24.56
-26.56
-26.98
-25.64
-22.64
-18.35
-13.25
-7.89
-2.81
1.61
5.08
7.57
9.15
10.06
10.56
10.85
11.08
11.31
11.51
11.66
11.76
11.87
12.02
12.21
12.33
12.23
11.77
10.98
9.99
9.03
8.22
7.54
6.78
5.73
4.33
2.71
1.08
-0.40
-1.75
-3.14
-4.74
-6.62
-8.67
-10.76
-12.88
-15.13
-17.68
-20.50
-23.31
-25.49
-26.39
-25.52
-22.76
-18.46
-13.26
-7.88
-2.92
1.33
4.81
7.67
10.03
11.93
13.32
14.14
14.45
14.39
14.16
13.91
13.61
13.10
12.19
10.80
9.13
7.53
6.42
6.04
6.35
7.05
7.76
8.13
7.99
7.36
6.29
4.83
3.04
0.94
-1.31
-3.50
-5.48
-7.25
-8.97
-10.91
-13.32
-16.28
-19.63
-23.05
-26.06
-28.20
-29.05
-28.33
-25.91
-21.90
-16.69
-10.82
-4.95
0.33
4.61
7.76
9.86
11.17
11.93
12.32
12.45
12.38
12.23
12.08
12.05
12.15
12.34
12.57
12.82
13.04
13.15
13.02
12.52
11.62
10.49
9.37
8.48
7.80
7.09
5.96
4.14
1.65
-1.21
-4.02
-6.46
-8.46
-10.26
-12.19
-14.55
-17.45
-20.70
-23.88
-26.45
-27.86
-27.72
-25.89
-22.48
-17.82
-12.40
-6.73
-1.28
3.58
7.57
10.57
12.63
13.86
14.48
14.67
14.54
14.17
13.60
12.89
12.13
11.38
10.68
9.98
9.23
8.43
7.68
7.12
6.91
7.10
7.54
7.89
7.73
6.71
4.77
2.16
-0.61
-2.99
-4.67
-5.68
-6.39
-7.34
-9.00
-11.60
-15.07
-19.07
-23.09
-26.51
-28.73
-29.27
-27.86
-24.56
-19.77
-14.08
-8.15
-2.44
2.76
7.28
11.00
13.80
15.53
16.16
15.81
14.79
13.44
12.10
10.94
10.02
9.24
8.51
7.79
7.18
6.80
6.78
7.09
7.51
7.70
7.34
6.25
4.54
2.56
0.64
-1.00
-2.37
-3.67
-5.15
-6.99
-9.28
-12.03
-15.17
-18.51
-21.68
-24.20
-25.43
-24.82
-22.16
-17.69
-12.03
-6.08
-0.52
4.30
8.38
11.90
14.88
17.12
18.27
18.15
16.89
14.98
13.05
11.55
10.60
10.02
9.49
8.86
8.18
7.58
7.13
6.71
6.08
5.01
3.42
1.43
-0.72
-2.82
-4.76
-6.57
-8.37
-10.27
-12.31
-14.52
-16.83
-19.19
-21.48
-23.38
-24.47
-24.24
-22.33
-18.70
-13.69
-7.95
-2.22
2.91
7.06
10.16
12.34
13.81
14.84
15.61
16.24
16.73
16.97
16.81
16.16
15.02
13.53
11.94
10.53
9.55
9.12
9.20
9.50
9.63
9.21
8.04
6.16
3.85
1.43
-0.83
-2.86
-4.81
-6.90
-9.34
-12.21
-15.45
-18.85
-22.10
-24.77
-26.32
-26.22
-24.12
-20.03
-14.41
-8.08
-1.95
3.28
7.21
9.97
11.85
13.25
14.39
15.33
16.00
16.34
16.37
16.14
15.67
14.95
14.01
12.93
11.86
11.02
10.51
10.28
10.21
10.11
9.80
9.14
8.04
6.38
4.15
1.41
-1.63
-4.71
-7.63
-10.41
-13.28
-16.53
-20.22
-24.04
-27.30
-29.15
-28.93
-26.49
-22.22
-16.84
-11.12
-5.56
-0.34
4.60
9.28
13.50
16.85
18.96
19.72
19.41
18.57
17.79
17.42
17.42
17.50
17.31
16.68
15.66
14.48
13.35
12.31
11.35
10.33
9.17
7.81
6.25
4.49
2.53
0.40
-1.84
-4.12
-6.34
-8.48
-10.53
-12.63
-14.89
-17.47
-20.38
-23.43
-26.15
-27.86
-27.94
-26.01
-22.18
-16.99
-11.19
-5.44
-0.14
4.66
8.96
12.74
15.77
17.74
18.55
18.34
17.60
16.85
16.50
16.60
16.98
17.38
17.55
17.43
17.01
16.37
15.57
14.67
13.73
12.80
11.88
10.89
9.73
8.23
6.37
4.12
1.56
-1.17
-3.91
-6.44
-8.65
-10.45
-11.95
-13.35
-14.92
-16.90
-19.32
-22.05
-24.84
-27.31
-29.01
-29.47
-28.23
-25.01
-19.93
-13.56
-6.82
-0.63
4.30
7.84
10.30
12.23
14.02
15.73
17.03
17.54
17.13
16.02
14.74
13.81
13.42
13.42
13.37
12.95
12.09
11.06
10.21
9.78
9.71
9.78
9.65
9.14
8.28
7.17
5.88
4.30
2.28
-0.26
-3.15
-6.02
-8.47
-10.27
-11.57
-12.82
-14.57
-17.16
-20.62
-24.52
-28.23
-31.06
-32.51
-32.22
-30.12
-26.29
-21.02
-14.78
-8.19
-1.94
3.42
7.56
10.49
12.43
13.76
14.75
15.57
16.23
16.70
16.96
17.01
16.88
16.66
16.38
16.08
15.68
15.06
14.08
12.66
10.85
8.81
6.83
5.22
4.15
3.60
3.35
3.04
2.34
1.06
-0.86
-3.33
-6.12
-8.93
-11.36
-13.10
-14.03
-14.35
-14.58
-15.34
-17.10
-19.90
-23.34
-26.56
-28.67
-28.96
-27.19
-23.56
-18.58
-12.87
-7.08
-1.71
2.87
6.45
9.00
10.68
11.81
12.72
13.71
14.85
16.01
16.94
17.38
17.18
16.42
15.31
14.11
13.04
12.24
11.71
11.42
11.32
11.32
11.34
11.29
11.04
10.52
9.67
8.48
6.95
5.05
2.74
0.07
-2.82
-5.66
-8.13
-9.97
-11.15
-11.90
-12.65
-13.90
-16.03
-19.15
-22.98
-26.95
-30.28
-32.16
-31.99
-29.45
-24.75
-18.46
-11.48
-4.71
1.08
5.44
8.25
9.74
10.35
10.62
10.92
11.39
11.93
12.31
12.39
12.21
11.97
11.88
12.03
12.35
12.64
12.79
12.76
12.65
12.51
12.29
11.88
11.14
10.03
8.64
7.12
5.62
4.21
2.87
1.49
-0.14
-2.19
-4.75
-7.67
-10.57
-12.99
-14.59
-15.46
-16.03
-16.96
-18.78
-21.57
-24.86
-27.86
-29.64
-29.53
-27.29
-23.12
-17.57
-11.35
-5.13
0.55
5.37
9.22
12.08
13.96
14.94
15.09
14.62
13.83
13.00
12.35
11.92
11.64
11.37
11.08
10.77
10.56
10.50
10.53
10.55
10.37
9.89
9.16
8.31
7.54
6.96
6.52
5.99
5.14
3.80
1.97
-0.16
-2.36
-4.47
-6.41
-8.19
-9.82
-11.21
-12.27
-13.06
-13.80
-14.87
-16.60
-19.08
-22.02
-24.85
-26.85
-27.41
-26.17
-23.11
-18.50
-12.86
-6.83
-1.07
3.93
7.90
10.81
12.76
13.92
14.49
14.61
14.50
14.31
14.16
14.01
13.73
13.20
12.46
11.70
11.20
11.10
11.36
11.78
12.13
12.25
12.08
11.62
10.89
9.88
8.60
7.18
5.76
4.45
3.21
1.88
0.26
-1.81
-4.29
-6.96
-9.49
-11.65
-13.31
-14.59
-15.83
-17.42
-19.68
-22.63
-25.87
-28.69
-30.26
-30.02
-27.77
-23.86
-18.92
-13.66
-8.53
-3.70
0.85
5.16
9.08
12.30
14.50
15.52
15.47
14.77
13.92
13.33
13.14
13.16
13.05
12.55
11.65
10.58
9.73
9.35
9.35
9.42
9.10
8.21
6.91
5.66
4.91
4.81
5.09
5.25
4.83
3.66
1.96
0.09
-1.62
-3.10
-4.44
-5.79
-7.22
-8.68
-10.15
-11.70
-13.59
-16.07
-19.19
-22.69
-25.94
-28.18
-28.71
-27.23
-23.89
-19.20
-13.88
-8.61
-3.92
-0.03
3.01
5.37
7.23
8.75
9.95
10.79
11.23
11.29
11.07
10.72
10.33
9.91
9.45
8.93
8.38
7.84
7.33
6.82
6.25
5.56
4.75
3.90
3.08
2.35
1.71
1.10
0.49
-0.16
-0.83
-1.51
-2.22
-3.01
-3.96
-5.22
-6.89
-9.10
-11.89
-15.15
-18.56
-21.56
-23.57
-24.02
-22.60
-19.35
-14.63
-8.99
-3.08
2.52
7.34
11.06
13.47
14.59
14.69
14.24
13.67
13.29
13.07
12.75
12.08
10.90
9.31
7.59
6.02
4.81
4.04
3.69
3.70
3.96
4.25
4.26
3.72
2.53
0.80
-1.14
-2.95
-4.46
-5.79
-7.22
-9.05
-11.46
-14.34
-17.39
-20.25
-22.58
-24.17
-24.84
-24.41
-22.69
-19.59
-15.23
-10.00
-4.46
0.83
5.45
9.23
12.19
14.42
16.00
16.88
16.97
16.27
14.87
13.08
11.26
9.72
8.59
7.89
7.51
7.34
7.31
7.35
7.32
6.94
5.92
4.09
1.54
-1.35
-4.00
-5.97
-7.06
-7.49
-7.72
-8.30
-9.69
-12.09
-15.38
-19.17
-22.81
-25.52
-26.57
-25.45
-22.03
-16.65
-10.09
-3.35
2.65
7.27
10.39
12.30
13.46
14.33
15.12
15.76
16.05
15.88
15.26
14.38
13.39
12.36
11.29
10.15
8.99
7.96
7.20
6.77
6.57
6.37
5.93
5.06
3.69
1.88
-0.23
-2.50
-4.76
-6.93
-9.04
-11.24
-13.75
-16.71
-20.04
-23.30
-25.77
-26.77
-25.80
-22.83
-18.27
-12.85
-7.35
-2.36
1.86
5.35
8.34
11.05
13.52
15.70
17.39
18.49
19.01
19.09
18.88
18.50
17.90
17.04
15.93
14.76
13.84
13.45
13.62
14.05
14.20
13.52
11.71
8.89
5.46
1.98
-1.11
-3.60
-5.58
-7.25
-8.86
-10.67
-12.90
-15.73
-19.16
-22.94
-26.55
-29.26
-30.39
-29.56
-26.84
-22.63
-17.54
-12.09
-6.58
-1.18
3.98
8.75
12.89
16.25
18.77
20.50
21.58
22.15
22.34
22.27
22.07
21.81
21.52
21.18
20.74
20.18
19.58
19.03
18.53
17.93
16.93
15.36
13.18
10.64
8.06
5.69
3.56
1.56
-0.47
-2.63
-4.89
-7.20
-9.57
-12.16
-15.22
-18.88
-23.04
-27.29
-30.90
-33.09
-33.21
-30.99
-26.66
-20.86
-14.49
-8.35
-2.92
1.73
5.83
9.64
13.29
16.66
19.54
21.72
23.12
23.82
23.97
23.70
23.06
22.04
20.70
19.16
17.71
16.62
16.08
16.00
16.11
16.01
15.38
14.14
12.46
10.71
9.19
7.96
6.81
5.36
3.33
0.67
-2.34
-5.29
-7.88
-10.06
-12.10
-14.37
-17.17
-20.53
-24.23
-27.81
-30.73
-32.48
-32.70
-31.18
-27.97
-23.35
-17.78
-11.81
-5.99
-0.69
3.84
7.58
10.61
13.15
15.40
17.49
19.37
20.88
21.77
21.92
21.41
20.53
19.61
18.87
18.36
17.94
17.50
16.96
16.35
15.74
15.12
14.37
13.35
11.95
10.18
8.17
6.06
3.96
1.91
-0.06
-1.93
-3.59
-5.02
-6.25
-7.43
-8.78
-10.55
-12.94
-15.99
-19.58
-23.43
-27.14
-30.19
-32.02
-32.20
-30.52
-27.06
-22.25
-16.71
-11.14
-6.04
-1.66
2.04
5.24
8.13
10.72
12.85
14.27
14.85
14.68
14.13
13.63
13.57
14.06
14.94
15.80
16.29
16.18
15.50
14.49
13.50
12.85
12.73
13.06
13.55
13.81
13.45
12.32
10.61
8.65
6.85
5.36
4.12
2.82
1.13
-1.11
-3.78
-6.56
-9.08
-11.06
-12.43
-13.30
-13.96
-14.74
-15.97
-17.91
-20.63
-23.94
-27.38
-30.24
-31.74
-31.27
-28.60
-23.98
-18.11
-11.88
-6.09
-1.22
2.58
5.47
7.72
9.56
11.14
12.53
13.73
14.73
15.48
15.90
15.92
15.46
14.56
13.33
12.00
10.88
10.23
10.23
10.87
11.99
13.24
14.24
14.66
14.39
13.50
12.21
10.81
9.50
8.40
7.42
6.39
5.07
3.25
0.88
-1.95
-5.01
-8.02
-10.75
-13.02
-14.79
-16.11
-17.15
-18.16
-19.46
-21.35
-23.94
-27.08
-30.30
-32.83
-33.90
-33.02
-30.11
-25.55
-19.99
-14.14
-8.55
-3.58
0.65
4.09
6.70
8.54
9.76
10.57
11.23
11.91
12.63
13.28
13.68
13.75
13.55
13.25
12.99
12.85
12.72
12.47
11.98
11.32
10.65
10.18
9.98
9.91
9.69
8.97
7.59
5.65
3.47
1.45
-0.18
-1.43
-2.52
-3.72
-5.15
-6.71
-8.20
-9.47
-10.53
-11.54
-12.64
-13.89
-15.26
-16.72
-18.33
-20.26
-22.59
-25.17
-27.52
-28.98
-28.96
-27.15
-23.65
-18.82
-13.22
-7.40
-1.83
3.11
7.16
10.16
12.09
13.09
13.38
13.26
12.99
12.74
12.58
12.45
12.25
11.89
11.36
10.71
10.05
9.52
9.19
9.13
9.36
9.86
10.48
10.97
11.06
10.53
9.41
7.90
6.27
4.73
3.29
1.81
0.16
-1.67
-3.58
-5.39
-7.01
-8.43
-9.77
-11.11
-12.55
-14.10
-15.78
-17.63
-19.77
-22.27
-25.15
-28.20
-31.02
-32.99
-33.45
-31.94
-28.32
-22.92
-16.47
-9.85
-3.83
1.13
4.94
7.74
9.77
11.20
12.12
12.63
12.85
13.02
13.37
14.01
14.87
15.60
15.82
15.28
14.05
12.53
11.23
10.51
10.42
10.69
10.89
10.67
9.95
8.82
7.53
6.17
4.78
3.30
1.75
0.21
-1.16
-2.31
-3.27
-4.15
-5.04
-5.99
-7.02
-8.24
-9.85
-12.06
-14.92
-18.25
-21.57
-24.26
-25.71
-25.55
-23.70
-20.38
-15.96
-10.95
-5.84
-1.04
3.17
6.57
9.11
10.77
11.61
11.76
11.41
10.80
10.15
9.60
9.20
8.98
8.99
9.22
9.61
9.96
10.01
9.58
8.74
7.74
7.00
6.74
6.86
6.96
6.52
5.30
3.37
1.12
-1.05
-2.92
-4.61
-6.35
-8.27
-10.35
-12.39
-14.26
-16.03
-17.97
-20.40
-23.39
-26.61
-29.35
-30.75
-30.13
-27.28
-22.52
-16.67
-10.68
-5.40
-1.23
1.82
4.04
5.79
7.27
8.57
9.68
10.62
11.42
12.09
12.48
12.39
11.69
10.44
8.97
7.73
7.06
7.03
7.44
7.90
8.08
7.79
6.93
5.52
3.66
1.55
-0.49
-2.13
-3.15
-3.61
-3.87
-4.47
-5.81
-8.06
-11.01
-14.20
-17.12
-19.28
-20.32
-19.95
-18.01
-14.51
-9.76
-4.38
0.86
5.20
8.21
9.84
10.42
10.41
10.18
9.92
9.63
9.25
8.73
8.17
7.68
7.39
7.27
7.22
7.13
6.90
6.58
6.21
5.82
5.31
4.52
3.39
1.99
0.57
-0.63
-1.50
-2.18
-3.01
-4.35
-6.53
-9.57
-13.29
-17.20
-20.68
-23.06
-23.80
-22.58
-19.44
-14.79
-9.31
-3.80
1.11
5.04
7.95
9.99
11.42
12.42
13.06
13.30
13.09
12.44
11.48
10.40
9.44
8.80
8.51
8.50
8.60
8.61
8.42
8.00
7.43
6.81
6.14
5.33
4.20
2.61
0.55
-1.85
-4.42
-7.13
-10.11
-13.58
-17.60
-21.83
-25.48
-27.52
-27.11
-23.95
-18.50
-11.78
-5.01
0.85
5.33
8.47
10.60
12.15
13.43
14.60
15.68
16.57
17.07
16.92
15.95
14.21
12.04
9.99
8.58
8.06
8.29
8.84
9.26
9.22
8.70
7.82
6.70
5.41
3.86
1.95
-0.38
-3.08
-6.06
-9.30
-12.83
-16.59
-20.35
-23.64
-25.85
-26.45
-25.19
-22.21
-17.94
-12.98
-7.84
-2.86
1.83
6.24
10.34
14.08
17.32
19.92
21.76
22.80
23.05
22.60
21.62
20.26
18.67
16.96
15.21
13.53
12.00
10.68
9.57
8.60
7.63
6.49
5.03
3.13
0.82
-1.79
-4.47
-6.98
-9.17
-11.09
-13.00
-15.31
-18.30
-21.93
-25.68
-28.71
-30.10
-29.31
-26.33
-21.67
-16.13
-10.40
-4.88
0.31
5.22
9.81
13.88
17.14
19.41
20.70
21.22
21.30
21.21
21.04
20.77
20.25
19.47
18.49
17.47
16.55
15.80
15.21
14.68
14.15
13.56
12.87
12.03
11.01
9.74
8.20
6.43
4.50
2.48
0.38
-1.84
-4.30
-7.15
-10.55
-14.58
-19.16
-23.90
-28.11
-31.02
-31.89
-30.36
-26.58
-21.11
-14.77
-8.33
-2.33
2.97
7.59
11.62
15.21
18.44
21.39
24.05
26.41
28.39
29.90
30.84
31.11
30.69
29.67
28.29
26.87
25.76
25.24
25.33
25.93
26.76
27.59
28.23
28.55
28.43
27.82
26.77
25.57
24.65
24.47
25.13
26.16
26.44
24.50
19.05
9.48
-3.87
-19.74
-36.28
-51.49
-63.64
-71.58
-74.75
-73.19
-67.39
-58.16
-46.47
-33.43
-20.24
-8.05
2.09
9.41
13.42
14.03
11.62
6.87
0.56
-6.78
-15.04
-24.65
-36.37
-51.15
-69.84
-92.96
-120.48
-151.63
-184.80
-217.70
-247.94
-273.84
-295.15
-313.24
-330.44
-348.78
-368.60
-388.02
-403.55
-411.52
-409.64
-397.80
-377.88
-352.67
-324.79
-295.97
-267.10
-238.64
-211.11
-185.20
-161.51
-140.24
-121.00
-103.05
-85.66
-68.47
-51.62
-35.51
-20.51
-6.66
6.34
18.99
31.70
44.54
57.25
69.46
81.04
92.28
103.88
116.67
131.20
147.49
165.12
183.44
201.95
220.58
239.63
259.74
281.80
306.92
336.29
370.43
408.16
445.82
477.31
495.56
494.79
472.69
431.36
376.43
315.02
253.39
195.53
143.02
95.82
53.19
14.23
-22.10
-57.19
-92.68
-129.85
-168.82
-207.89
-243.55
-271.06
-285.93
-285.44
-269.61
-241.18
-204.54
-163.99
-122.22
-79.89
-36.47
8.11
52.12
91.82
122.58
140.75
145.21
137.82
122.53
103.80
85.06
68.17
53.66
41.68
32.63
27.39
26.88
31.35
39.97
50.83
61.48
69.70
74.12
74.56
71.92
67.60
62.90
58.54
54.51
50.22
44.81
37.62
28.30
16.92
3.98
-9.70
-23.01
-34.72
-43.75
-49.56
-52.50
-53.86
-55.44
-58.65
-63.66
-68.82
-70.92
-66.19
-51.67
-26.41
8.18
48.66
90.65
129.95
163.46
189.40
207.23
217.25
220.18
217.00
208.85
196.99
182.69
167.08
151.04
135.12
119.66
104.91
91.20
78.90
68.33
59.61
52.51
46.48
40.76
34.62
27.40
18.69
8.37
-3.43
-16.35
-29.99
-44.05
-58.43
-73.17
-88.22
-103.16
-117.04
-128.51
-136.39
-140.12
-140.24
-138.26
-136.26
-136.25
-139.55
-146.54
-156.45
-167.65
-177.70
-183.73
-182.93
-173.12
-153.41
-124.54
-88.88
-49.84
-11.03
24.53
54.88
79.25
97.83
111.35
120.84
127.29
131.51
134.02
135.05
134.70
132.97
130.01
126.10
121.71
117.32
113.39
110.24
108.02
106.64
105.77
104.82
103.13
100.05
95.19
88.54
80.56
71.90
63.23
54.96
47.12
39.36
31.18
22.22
12.40
2.01
-8.45
-18.49
-27.80
-36.35
-44.45
-52.66
-61.73
-72.50
-85.47
-100.47
-116.27
-130.53
-140.29
-142.75
-136.14
-120.33
-96.83
-68.30
-37.81
-8.06
18.99
42.13
60.84
75.02
84.85
90.78
93.38
93.32
91.25
87.72
83.12
77.78
72.03
66.30
61.07
56.81
53.80
52.05
51.24
50.76
49.96
48.34
45.64
41.94
37.46
32.42
26.87
20.70
13.68
5.69
-3.22
-12.78
-22.59
-32.25
-41.43
-50.01
-58.06
-65.96
-74.37
-84.08
-95.64
-108.90
-122.61
-134.48
-141.57
-141.21
-131.81
-113.36
-87.49
-56.90
-24.73
6.13
33.47
55.95
72.97
84.61
91.40
94.11
93.60
90.68
86.07
80.43
74.29
68.09
62.11
56.50
51.33
46.67
42.63
39.42
37.21
35.95
35.29
34.56
32.90
29.51
23.96
16.28
7.04
-2.91
-12.72
-21.87
-30.30
-38.42
-46.93
-56.55
-67.83
-80.81
-94.93
-108.78
-120.26
-126.87
-126.39
-117.51
-100.33
-76.38
-48.28
-19.00
8.81
33.23
53.19
68.35
78.75
84.70
86.66
85.27
81.35
75.78
69.35
62.66
56.00
49.46
43.11
37.13
31.87
27.72
24.94
23.43
22.62
21.64
19.51
15.48
9.24
1.03
-8.50
-18.47
-28.12
-37.06
-45.53
-54.28
-64.35
-76.57
-90.99
-106.47
-120.72
-130.71
-133.60
-127.59
-112.48
-89.74
-61.96
-32.16
-3.08
23.21
45.46
63.06
75.96
84.52
89.38
91.32
91.08
89.22
86.05
81.69
76.17
69.60
62.30
54.77
47.74
41.87
37.67
35.19
33.95
32.99
31.12
27.32
21.09
12.59
