1520874565.00
64.000000
-0.00
-0.00
-0.00
-0.00
-0.00
-0.00
-0.00
-0.00
-0.00
-0.00
0.00
0.01
0.01
-0.00
-0.03
-0.05
-0.05
0.00
0.13
0.36
0.66
1.01
1.37
1.72
2.06
2.40
2.79
3.24
3.80
4.42
5.06
5.66
6.20
6.68
7.15
7.68
8.31
9.14
10.09
11.04
11.88
12.56
13.14
13.76
14.65
15.96
17.91
20.32
22.90
25.38
27.58
29.57
31.68
34.32
37.81
42.54
48.15
54.10
59.83
64.97
69.58
74.14
79.34
85.71
93.76
103.00
112.62
121.73
129.77
136.75
143.30
150.75
157.77
166.64
177.95
191.79
206.97
220.57
228.25
225.36
208.53
176.87
132.76
80.05
23.07
-34.94
-92.44
-149.16
-205.23
-260.37
-313.74
-363.87
-409.83
-450.91
-486.50
-515.74
-537.23
-549.22
-549.96
-538.37
-514.21
-478.67
-433.88
-382.45
-327.02
-269.84
-212.63
-156.66
-102.95
-52.37
-5.90
35.58
71.43
101.35
125.50
144.38
158.69
169.15
176.37
180.75
182.57
182.07
179.51
175.23
169.65
163.18
156.15
148.81
141.30
133.69
126.02
118.33
110.69
103.16
95.80
88.68
81.83
75.25
68.95
62.95
57.25
51.86
46.78
42.03
37.59
33.45
29.61
26.07
22.81
19.83
17.11
14.67
12.48
10.54
8.83
7.35
6.07
4.97
4.05
3.27
2.62
2.09
1.65
1.30
1.01
0.79
0.61
0.47
0.37
0.29
0.23
0.19
0.16
0.14
0.14
0.15
0.16
0.18
0.21
0.24
0.28
0.32
0.36
0.41
0.45
0.50
0.55
0.60
0.65
0.71
0.77
0.84
0.91
0.98
1.07
1.17
1.27
1.39
1.53
1.68
1.85
2.03
2.24
2.48
2.73
3.01
3.32
3.67
4.04
4.45
4.90
5.38
5.90
6.45
7.05
7.69
8.38
9.11
9.88
10.71
11.58
12.48
13.44
14.45
15.53
16.67
17.88
19.13
20.43
21.71
22.92
23.96
24.74
25.13
24.99
24.24
22.77
20.56
17.64
14.07
9.96
5.51
0.92
-3.61
-7.89
-11.75
-15.04
-17.65
-19.53
-20.66
-21.06
-20.84
-20.12
-19.06
-17.80
-16.45
-15.05
-13.63
-12.15
-10.57
-8.94
-7.29
-5.70
-4.22
-2.87
-1.62
-0.40
0.91
2.45
4.13
5.83
7.42
8.75
9.77
10.58
11.38
12.48
14.16
16.24
18.46
20.45
21.89
22.62
22.77
22.71
22.98
24.11
25.83
27.74
29.25
29.80
29.09
27.22
24.64
22.01
20.02
18.42
16.76
14.30
10.05
2.76
-8.88
-26.13
-50.08
-76.24
-101.03
-120.62
-131.93
-133.83
-127.61
-116.48
-104.27
-93.81
-85.92
-80.32
-75.71
-71.04
-66.27
-62.34
-60.40
-61.27
-65.00
-71.03
-79.00
-88.09
-96.89
-103.23
-104.30
-97.38
-80.89
-55.18
-22.81
11.78
43.97
70.28
89.04
100.59
106.49
108.64
108.61
107.31
104.97
101.70
97.70
93.38
89.26
85.81
83.41
82.19
82.05
82.59
83.22
83.23
82.03
79.19
74.60
68.36
60.77
52.24
43.34
34.56
26.33
18.91
12.27
6.16
0.24
-5.67
-11.68
-17.73
-23.89
-30.22
-36.78
-43.42
-49.80
-55.46
-60.15
-63.96
-67.49
-71.60
-77.29
-85.34
-96.17
-109.51
-124.06
-137.45
-146.41
-147.56
-138.53
-118.97
-90.98
-58.56
-26.28
2.14
24.87
41.91
54.41
63.56
69.94
73.49
74.00
71.79
67.83
63.61
60.49
59.18
59.56
61.09
63.13
65.36
67.69
70.03
72.00
72.88
71.81
68.25
62.21
54.43
45.92
37.63
29.95
22.68
15.19
6.91
-2.33
-12.16
-21.81
-30.62
-38.33
-45.28
-52.33
-60.39
-70.10
-81.48
-94.04
-106.95
-119.19
-129.77
-138.03
-143.86
-147.98
-151.83
-156.90
-163.73
-170.92
-175.17
-172.25
-158.90
-134.56
-102.01
-66.58
-34.30
-9.99
4.00
7.78
3.21
-7.23
-21.22
-36.89
-52.96
-68.61
-83.29
-96.49
-107.40
-114.74
-117.06
-113.43
-104.10
-90.75
-75.97
-62.25
-50.97
-41.98
-34.01
-25.47
-15.33
-3.40
9.90
23.91
38.03
51.50
63.26
72.06
76.87
77.52
75.06
71.53
69.26
69.84
73.32
78.15
81.66
81.15
74.91
62.90
46.64
28.58
11.21
-3.70
-15.13
-22.43
-24.74
-20.73
-9.28
9.68
34.50
62.01
88.70
112.00
131.01
146.28
158.72
168.32
173.76
172.97
164.44
148.46
127.48
105.29
85.74
71.43
63.09
59.94
60.32
62.61
65.72
69.11
72.42
75.13
76.38
75.05
70.18
61.54
49.87
36.85
24.59
14.91
8.82
6.36
6.92
9.84
14.77
21.73
30.82
41.94
54.47
67.38
79.50
89.69
96.93
100.34
99.21
93.21
82.89
70.03
57.67
49.51
48.84
57.42
74.76
98.25
123.87
147.51
165.99
177.58
181.95
179.67
171.70
159.16
143.24
125.19
106.32
87.73
70.09
53.56
37.92
22.78
7.81
-7.11
-21.97
-36.69
-51.14
-65.04
-77.85
-88.75
-96.98
-102.29
-105.29
-107.43
-110.43
-115.49
-122.81
-131.58
-140.55
-148.83
-156.35
-163.63
-171.34
-179.83
-189.06
-198.91
-209.29
-220.18
-230.83
-239.19
-241.90
-235.17
-216.21
-184.75
-143.53
-97.54
-52.37
-12.41
20.28
45.95
66.22
82.90
96.99
108.48
116.80
121.55
123.19
123.06
122.85
123.69
125.38
126.17
123.13
113.39
95.26
69.23
38.05
6.04
-22.27
-43.66
-57.12
-63.94
-66.79
-68.54
-70.96
-74.38
-78.04
-81.07
-83.33
-85.67
-89.68
-97.02
-109.09
-126.73
-150.08
-178.38
-209.55
-239.99
-264.87
-279.12
-278.72
-262.06
-230.49
-188.05
-140.27
-92.57
-48.91
-11.13
20.68
47.43
69.97
88.53
102.96
113.38
120.83
127.17
134.27
142.87
152.01
159.44
162.93
161.75
157.23
152.21
149.61
150.98
155.90
162.30
167.68
170.14
169.15
165.26
159.53
152.86
145.69
138.05
129.61
119.87
108.16
93.82
76.24
55.20
30.88
4.05
-23.99
-51.36
-75.81
-95.01
-107.24
-111.87
-109.72
-102.92
-94.20
-85.96
-79.38
-74.32
-69.75
-64.65
-58.77
-52.66
-47.24
-43.15
-40.17
-37.19
-32.70
-25.34
-14.49
-0.54
15.41
31.97
47.90
62.38
74.86
84.85
91.68
94.69
93.56
88.88
82.19
75.52
70.38
66.92
63.73
58.47
49.15
35.20
17.91
-0.32
-17.12
-31.12
-42.44
-52.14
-61.46
-71.23
-81.49
-91.56
-100.23
-105.84
-106.51
-100.68
-87.68
-68.41
-45.30
-21.77
-1.15
14.32
24.04
28.88
30.47
30.46
29.98
29.60
29.57
30.00
31.06
32.88
35.38
38.22
40.91
43.09
44.68
45.97
47.37
49.07
50.78
51.74
51.00
47.93
42.52
35.36
27.34
19.12
10.97
2.77
-5.65
-14.26
-22.74
-30.81
-38.42
-45.99
-54.35
-64.39
-76.71
-91.10
-106.37
-120.33
-130.29
-133.66
-128.78
-115.52
-95.26
-70.55
-44.34
-19.19
3.14
21.71
36.19
46.53
52.89
55.79
56.22
55.67
55.69
57.44
61.25
66.50
72.04
76.72
79.90
81.59
82.24
82.13
81.18
78.81
74.37
67.61
59.00
49.61
40.75
33.28
27.30
21.95
15.75
7.27
-4.27
-18.41
-33.53
-47.39
-58.11
-64.94
-68.57
-70.75
-73.49
-78.36
-86.13
-96.73
-109.44
-122.86
-134.82
-142.46
-142.80
-133.65
-114.57
-87.33
-55.45
-23.17
5.92
29.67
47.49
59.93
67.95
72.42
74.03
73.43
71.34
68.73
66.62
65.78
66.59
68.83
71.87
74.90
77.13
78.10
77.70
76.10
73.50
70.01
65.49
59.72
52.59
44.36
35.69
27.47
20.43
14.74
9.82
4.49
-2.32
-11.08
-21.30
-31.67
-40.81
-47.93
-53.22
-57.76
-63.06
-70.49
-80.79
-93.88
-108.75
-123.52
-135.61
-142.12
-140.44
-129.20
-108.75
-81.32
-50.48
-20.00
7.12
29.30
46.47
59.42
69.18
76.45
81.37
83.76
83.61
81.35
78.02
75.02
73.50
73.98
76.08
78.82
81.11
82.26
82.18
81.12
79.29
76.55
72.54
66.89
59.56
51.00
41.94
33.11
24.90
17.30
10.08
3.05
-3.81
-10.43
-16.81
-23.12
-29.62
-36.43
-43.37
-50.02
-55.97
-61.14
-65.97
-71.26
-78.00
-86.86
-98.02
-111.06
-124.83
-137.49
-146.61
-149.47
-143.78
-128.54
-104.56
-74.52
-42.23
-11.53
14.86
35.77
51.43
62.76
70.65
75.54
77.52
76.82
74.09
70.50
67.37
65.67
65.59
66.50
67.42
67.45
66.29
64.28
62.17
60.52
59.40
58.21
55.96
51.71
44.99
36.02
25.66
15.14
5.73
-1.60
-6.36
-8.70
-9.35
-9.55
-10.64
-13.73
-19.27
-26.97
-35.87
-44.77
-52.76
-59.50
-65.42
-71.53
-79.09
-89.09
-101.80
-116.35
-130.63
-141.52
-145.61
-140.27
-124.49
-99.48
-68.40
-35.47
-4.74
20.90
40.35
54.00
63.04
68.69
71.75
72.49
71.14
68.25
64.81
61.93
60.49
60.73
62.27
64.35
66.16
67.25
67.51
67.05
66.00
64.39
62.07
58.78
54.23
48.24
40.86
32.42
23.55
14.95
7.24
0.70
-4.88
-9.99
-15.29
-21.28
-28.15
-35.67
-43.30
-50.49
-56.85
-62.34
-67.30
-72.45
-78.67
-86.87
-97.56
-110.48
-124.31
-136.58
-144.09
-143.68
-133.32
-112.95
-84.72
-52.44
-20.36
7.96
30.63
47.38
58.99
66.45
70.43
71.21
69.07
64.75
59.41
54.44
50.81
48.80
47.98
47.62
47.16
46.43
45.64
45.10
44.95
44.98
44.72
43.53
40.87
36.54
30.88
24.77
19.22
14.88
11.51
7.97
2.76
-5.12
-15.46
-26.80
-37.00
-44.40
-48.65
-50.93
-53.38
-58.17
-66.81
-79.69
-96.27
-115.16
-134.30
-151.15
-162.89
-167.02
-162.10
-148.32
-127.73
-103.64
-79.84
-59.63
-45.05
-36.61
-33.41
-33.61
-34.92
-35.10
-32.18
-24.59
-11.06
9.09
35.64
67.08
100.50
132.21
158.54
176.98
186.70
188.47
183.95
174.70
161.70
145.27
125.64
103.26
79.04
54.01
29.02
4.48
-19.37
-42.07
-62.57
-79.23
-90.31
-94.63
-92.34
-85.19
-76.18
-68.80
-65.79
-68.15
-74.56
-81.77
-85.67
-82.90
-72.03
-54.14
-32.28
-10.22
8.94
23.63
34.01
41.38
47.38
53.31
59.83
67.08
74.88
83.00
91.32
99.71
107.75
114.54
118.66
118.43
112.41
100.02
81.89
59.91
37.04
16.64
1.85
-5.33
-4.54
2.73
13.57
24.57
32.78
36.34
34.44
26.91
13.70
-5.27
-29.77
-58.82
-90.40
-121.70
-149.85
-172.58
-188.59
-197.47
-199.16
-193.63
-180.67
-160.10
-132.28
-98.50
-61.35
-24.37
8.50
33.96
50.25
57.48
57.46
52.81
46.07
39.00
32.53
27.20
23.65
23.00
26.49
34.88
47.78
63.56
79.80
94.03
104.41
110.03
110.72
106.61
97.94
85.06
68.74
50.40
31.87
14.99
0.86
-10.49
-20.09
-29.46
-39.87
-51.72
-64.53
-77.25
-88.87
-98.81
-106.97
-113.50
-118.48
-121.64
-122.36
-119.68
-112.46
-99.67
-80.80
-56.28
-27.92
1.34
27.96
48.94
62.69
69.35
70.37
67.59
62.47
55.85
48.13
39.74
31.43
24.29
19.53
18.23
20.96
27.73
37.85
50.05
62.72
74.15
82.89
87.96
89.04
86.38
80.67
72.80
63.64
53.85
43.80
33.67
23.52
13.42
3.40
-6.62
-16.78
-27.20
-37.76
-48.15
-58.04
-67.50
-77.17
-87.99
-100.43
-113.73
-125.57
-132.54
-131.38
-120.31
-99.82
-72.63
-42.81
-14.53
8.98
26.10
36.77
42.04
43.39
42.02
38.60
33.40
26.77
19.76
14.16
12.03
14.78
22.32
32.87
43.65
52.14
57.09
58.91
59.00
58.64
58.25
57.27
54.77
50.19
43.74
36.20
28.40
20.75
13.21
5.52
-2.46
-10.62
-18.73
-26.75
-35.04
-44.30
-55.36
-68.62
-83.53
-98.33
-110.12
-115.58
-112.12
-98.98
-77.74
-52.00
-26.02
-3.22
14.73
27.98
37.64
44.59
48.86
49.86
47.08
41.02
33.42
26.78
23.44
24.54
29.68
37.19
44.96
51.31
55.45
57.47
57.81
56.71
53.95
48.95
41.28
31.03
18.94
6.30
-5.55
-15.63
-23.59
-29.82
-35.21
-40.97
-48.33
-58.26
-71.14
-86.44
-102.65
-117.32
-127.52
-130.59
-124.81
-110.02
-87.57
-60.09
-30.72
-2.35
22.98
44.18
60.98
73.55
82.09
86.66
87.34
84.49
79.00
72.42
66.77
64.08
65.78
72.13
82.03
93.19
102.92
108.97
110.20
106.69
99.36
89.30
77.29
63.66
48.54
32.20
15.29
-1.23
-16.45
-29.73
-40.94
-50.38
-58.72
-66.88
-75.84
-86.54
-99.47
-114.41
-130.12
-144.23
-153.64
-155.13
-146.35
-126.67
-97.60
-62.58
-26.13
7.34
34.69
54.55
67.22
74.01
76.47
75.72
72.44
67.11
60.25
52.70
45.34
38.90
33.81
30.21
28.20
28.10
30.33
35.17
42.40
51.09
59.68
66.46
69.99
69.39
64.34
54.97
41.75
25.50
7.57
-10.30
-26.32
-39.19
-48.59
-55.30
-60.99
-67.60
-76.74
-89.25
-104.79
-121.79
-137.56
-148.58
-151.26
-142.93
-122.74
-92.26
-55.28
-16.71
18.87
48.52
71.42
88.47
101.24
110.92
117.80
121.46
121.35
117.39
110.34
101.49
92.24
83.55
75.74
68.61
61.85
55.33
49.27
44.05
39.87
36.44
33.02
28.68
22.72
15.17
7.02
-0.07
-4.30
-4.51
-0.73
5.73
12.76
18.23
20.91
20.99
19.87
19.26
20.09
21.84
22.70
20.40
13.58
2.46
-11.07
-24.36
-35.12
-42.33
-46.41
-48.80
-50.98
-53.87
-57.51
-61.36
-64.78
-67.48
-69.58
-71.46
-73.34
-75.03
-75.92
-75.20
-72.28
-67.04
-59.91
-51.77
-43.67
-36.67
-31.57
-28.76
-28.10
-28.87
-29.97
-30.24
-28.79
-25.27
-19.92
-13.36
-6.41
0.06
5.28
8.63
9.78
8.72
5.66
0.91
-5.36
-13.38
-23.63
-36.53
-51.88
-68.34
-83.36
-93.64
-96.10
-89.02
-72.79
-49.92
-24.24
0.40
21.32
37.65
50.00
59.57
67.20
72.94
76.29
76.84
74.88
71.46
68.10
66.05
65.82
67.10
69.08
70.99
72.38
73.23
73.53
73.09
71.35
67.57
61.04
51.42
38.77
23.55
6.57
-11.19
-28.59
-44.51
-57.98
-68.44
-75.83
-80.72
-84.24
-88.05
-94.01
-103.75
-117.92
-135.60
-154.17
-169.76
-178.33
-176.81
-163.96
-140.42
-108.29
-70.47
-30.11
9.63
45.75
75.65
97.46
110.49
115.37
113.79
107.80
99.38
89.96
80.54
71.80
64.29
58.36
54.15
51.59
50.34
50.00
50.10
50.22
49.92
48.81
46.56
43.06
38.51
33.21
27.43
21.15
14.09
5.86
-3.78
-14.67
-26.37
-38.31
-50.06
-61.49
-72.53
-82.86
-91.62
-97.35
-98.27
-92.74
-79.97
-60.40
-35.70
-8.48
18.58
43.40
64.94
83.02
97.78
108.96
115.81
117.50
113.88
106.12
96.65
88.36
83.51
82.83
85.50
89.71
93.65
96.10
96.65
95.44
92.75
88.72
83.34
76.60
68.51
59.23
48.92
37.85
26.28
14.37
2.22
-10.38
-24.06
-39.77
-58.56
-81.15
-107.51
-136.55
-166.15
-193.52
-215.89
-231.22
-238.85
-239.71
-236.17
-231.08
-226.60
-223.17
-219.21
-211.99
-199.21
-180.39
-157.40
-133.56
-112.02
-94.19
-79.25
-64.95
-49.24
-31.39
-12.20
6.62
23.77
38.96
52.85
66.37
80.07
93.87
107.05
118.51
127.08
131.69
131.52
126.28
116.33
102.86
87.60
72.35
58.36
45.94
34.38
22.28
8.20
-8.80
-28.65
-49.99
-70.44
-87.02
-96.93
-98.31
-90.76
-75.43
-54.54
-30.87
-7.01
15.13
34.50
50.69
63.64
73.31
79.62
82.53
82.35
79.81
76.02
72.16
69.15
67.40
66.68
66.45
66.07
65.13
63.49
61.29
58.76
56.03
53.03
49.43
44.75
38.56
30.77
21.72
12.05
2.46
-6.57
-14.93
-22.76
-30.36
-38.03
-46.15
-55.20
-65.66
-77.68
-90.66
-102.92
-111.83
-114.58
-109.06
-94.70
-72.77
-46.08
-18.06
8.16
30.50
48.07
61.00
69.96
75.60
78.36
78.52
76.39
72.60
68.17
64.25
61.77
61.19
62.24
64.06
65.60
65.93
64.61
61.68
57.58
52.80
47.62
41.93
35.31
27.37
18.00
7.64
-2.85
-12.48
-20.57
-27.04
-32.54
-38.11
-44.80
-53.34
-63.88
-75.96
-88.50
-99.94
-108.32
-111.62
-108.21
-97.33
-79.56
-56.73
-31.51
-6.66
15.64
34.17
48.56
58.94
65.58
68.68
68.48
65.48
60.63
55.29
50.92
48.61
48.66
50.45
52.69
54.00
53.43
50.86
46.90
42.50
38.43
34.96
31.72
28.05
23.22
16.85
8.96
0.07
-9.11
-17.82
-25.59
-32.34
-38.42
-44.50
-51.26
-59.31
-68.83
-79.48
-90.28
-99.62
-105.33
-105.27
-97.86
-82.79
-61.30
-35.92
-9.86
13.95
33.49
47.94
57.45
62.67
64.35
63.18
59.87
55.40
50.95
47.72
46.47
47.17
49.03
50.80
51.37
50.28
47.78
44.62
41.55
38.92
36.49
33.61
29.49
23.52
15.54
5.91
-4.55
-14.73
-23.57
-30.46
-35.42
-39.11
-42.54
-46.80
-52.74
-60.86
-71.13
-82.90
-94.74
-104.42
-109.35
-107.22
-96.83
-78.69
-54.91
-28.65
-3.15
19.14
37.00
50.26
59.40
65.02
67.63
67.58
65.40
61.83
57.89
54.62
52.74
52.48
53.54
55.24
56.82
57.66
57.39
55.82
52.92
48.75
43.49
37.42
30.83
24.08
17.37
10.77
4.12
-2.74
-9.94
-17.37
-24.72
-31.57
-37.58
-42.77
-47.52
-52.51
-58.54
-66.27
-75.95
-87.16
-98.68
-108.46
-113.99
-112.93
-103.87
-87.02
-64.19
-38.30
-12.49
10.76
30.01
44.74
55.05
61.33
64.06
63.90
61.71
58.52
55.30
52.77
51.24
50.68
50.79
51.21
51.71
52.15
52.51
52.71
52.49
51.37
48.85
44.59
38.65
31.60
24.28
17.44
11.38
5.82
0.13
-6.27
-13.60
-21.56
-29.47
-36.69
-42.88
-48.22
-53.31
-58.94
-65.84
-74.46
-84.66
-95.65
-105.87
-113.12
-115.07
-109.88
-96.93
-77.17
-52.95
-27.29
-3.01
17.90
34.57
46.93
55.34
60.22
62.00
61.21
58.62
55.09
51.49
48.42
46.13
44.62
43.78
43.47
43.56
43.81
43.87
43.36
41.89
39.22
35.26
30.05
23.74
16.60
8.89
0.86
-7.38
-15.90
-24.95
-34.68
-45.04
-55.61
-65.77
-75.00
-83.12
-90.47
-97.85
-106.34
-116.84
-129.77
-144.69
-160.08
-173.54
-182.22
-183.55
-176.00
-159.56
-135.74
-107.08
-76.33
-45.70
-16.54
10.59
35.47
57.85
77.27
93.19
105.28
113.71
119.18
122.66
125.10
127.04
128.61
129.63
129.84
128.96
126.81
123.21
118.04
111.34
103.36
94.55
85.31
75.83
65.98
55.52
44.31
32.60
20.97
10.11
0.46
-8.06
-15.84
-23.43
-31.31
-39.77
-49.04
-59.19
-69.95
-80.39
-88.82
-93.07
-91.11
-81.88
-65.80
-44.75
-21.51
1.06
20.86
36.75
48.47
56.24
60.32
60.93
58.34
53.19
46.58
40.00
34.91
32.32
32.37
34.34
36.98
38.94
39.40
38.20
35.77
32.83
29.90
27.01
23.71
19.30
13.28
5.65
-3.01
-11.78
-19.81
-26.66
-32.50
-37.90
-43.57
-50.10
-57.84
-66.87
-76.98
-87.50
-97.11
-103.90
-105.67
-100.63
-88.11
-69.00
-45.57
-20.83
2.39
22.15
37.58
48.69
55.85
59.48
59.93
57.62
53.25
47.86
42.68
38.83
37.00
37.27
39.10
41.59
43.72
44.72
44.29
42.61
40.12
37.18
33.84
29.68
24.08
16.55
7.10
-3.65
-14.60
-24.56
-32.67
-38.72
-43.22
-47.11
-51.52
-57.41
-65.33
-75.30
-86.75
-98.42
-108.43
-114.46
-114.22
-106.16
-90.10
-67.51
-41.28
-14.84
8.80
27.87
41.99
51.83
58.29
61.99
63.10
61.57
57.71
52.50
47.40
43.91
42.90
44.26
47.01
49.77
51.41
51.45
50.04
47.67
44.77
41.40
37.35
32.28
26.07
18.88
11.06
3.04
-4.91
-12.67
-20.18
-27.36
-34.07
-40.22
-45.94
-51.70
-58.29
-66.54
-76.96
-89.22
-102.00
-113.00
-119.45
-118.84
-109.73
-92.36
-68.66
-41.85
-15.38
8.06
27.09
41.72
52.73
60.91
66.63
69.79
70.24
68.24
64.66
60.69
57.41
55.33
54.40
54.19
54.36
54.85
55.73
56.90
57.84
57.64
55.38
50.65
43.77
35.66
27.38
19.67
12.65
5.99
-0.79
-8.01
-15.63
-23.41
-31.04
-38.32
-45.15
-51.58
-57.81
-64.30
-71.75
-80.76
-91.35
-102.45
-111.82
-116.48
-113.63
-101.82
-81.53
-55.21
-26.47
1.03
24.55
42.76
55.60
63.80
68.25
69.72
68.78
65.97
62.00
57.75
54.13
51.85
51.15
51.87
53.50
55.42
56.98
57.68
57.13
55.12
51.64
46.98
41.57
35.88
30.15
24.29
17.99
10.90
2.82
-6.06
-15.29
-24.27
-32.40
-39.36
-45.21
-50.40
-55.80
-62.46
-71.14
-81.83
-93.47
-103.93
-110.45
-110.55
-102.75
-87.17
-65.50
-40.44
-15.02
8.20
27.63
42.65
53.33
60.01
63.01
62.61
59.28
53.97
48.05
43.08
40.18
39.73
41.15
43.31
45.06
45.72
45.22
43.96
42.37
40.55
38.18
34.64
29.36
22.09
13.06
3.02
-6.96
-15.82
-22.90
-28.22
-32.50
-36.92
-42.65
-50.42
-60.34
-71.79
-83.48
-93.56
-99.90
-100.45
-93.80
-79.67
-59.27
-35.05
-10.07
12.84
31.74
45.83
55.23
60.46
62.06
60.43
56.10
49.93
43.24
37.64
34.45
34.20
36.35
39.55
42.23
43.38
42.83
41.14
38.99
36.64
33.68
29.32
22.97
14.65
5.09
-4.59
-13.36
-20.66
-26.58
-31.70
-36.90
-43.13
-51.10
-61.12
-72.77
-84.83
-95.36
-101.99
-102.55
-95.71
-81.43
-61.20
-37.58
-13.59
8.26
26.44
40.64
51.28
58.91
63.69
65.39
63.74
59.12
52.73
46.34
41.69
39.71
40.26
42.25
44.30
45.33
44.95
43.35
41.00
38.23
35.00
30.85
25.21
17.75
8.61
-1.47
-11.36
-20.01
-26.87
-32.17
-36.76
-41.80
-48.21
-56.48
-66.46
-77.50
-88.49
-97.80
-103.48
-103.52
-96.42
-81.81
-60.83
-35.96
-10.38
13.02
32.35
47.00
57.34
64.13
67.89
68.78
66.87
62.51
56.65
50.77
46.36
44.34
44.70
46.58
48.69
49.91
49.75
48.29
45.93
42.98
39.39
34.88
29.07
21.84
13.37
4.20
-4.94
-13.32
-20.44
-26.17
-30.82
-35.00
-39.62
-45.49
-53.24
-63.04
-74.41
-86.17
-96.49
-103.19
-104.17
-98.03
-84.55
-64.86
-41.26
-16.57
6.56
26.27
41.75
53.08
60.78
65.41
67.25
66.37
62.92
57.46
51.11
45.41
41.79
41.02
42.84
46.06
49.12
50.70
50.26
48.06
44.78
41.09
37.20
32.81
27.38
20.49
12.09
2.70
-6.86
-15.70
-23.24
-29.32
-34.21
-38.49
-42.87
-47.99
-54.43
-62.57
-72.40
-83.41
-94.21
-102.63
-106.10
-102.38
-90.50
-71.14
-46.69
-20.37
4.59
25.84
42.24
53.76
60.98
64.66
65.42
63.79
60.30
55.73
51.00
47.07
44.63
43.93
44.66
46.13
47.43
47.88
47.11
45.21
42.54
39.40
35.98
32.12
27.48
21.68
14.52
6.12
-3.06
-12.34
-21.08
-28.77
-35.23
-40.51
-44.93
-48.99
-53.39
-58.91
-66.16
-75.28
-85.53
-95.15
-101.53
-101.97
-94.53
-78.88
-56.60
-30.72
-4.93
17.68
35.30
47.57
55.26
59.53
61.33
61.05
58.88
54.94
49.83
44.51
40.11
37.51
37.14
38.87
42.10
46.00
49.61
52.01
52.46
50.64
46.69
41.22
34.98
28.55
22.14
15.50
8.28
0.31
-8.27
-17.06
-25.60
-33.65
-41.24
-48.60
-56.11
-64.08
-72.77
-82.20
-91.92
-100.85
-107.26
-109.07
-104.44
-92.49
-73.71
-50.12
-24.77
-0.91
18.90
33.30
42.28
46.84
48.44
48.63
48.64
49.39
51.45
54.98
59.76
65.22
70.60
75.12
78.14
79.12
77.66
73.52
66.70
57.68
47.31
36.60
26.33
16.79
7.80
-1.05
-9.91
-18.59
-26.57
-33.41
-38.97
-43.57
-47.89
-52.76
-58.91
-66.86
-76.70
-87.94
-99.31
-108.81
-114.05
-112.84
-103.94
-87.58
-65.45
-40.28
-15.13
7.45
25.87
39.59
48.84
54.22
56.35
55.74
52.90
48.55
43.71
39.51
36.89
36.30
37.55
39.83
42.15
43.61
43.78
42.61
40.38
37.43
33.93
29.87
25.08
19.40
12.70
5.06
-3.21
-11.64
-19.68
-26.84
-32.93
-38.12
-42.91
-47.93
-53.80
-60.97
-69.61
-79.53
-90.08
-99.96
-107.26
-109.70
-105.27
-92.96
-73.26
-48.32
-21.31
4.46
26.47
43.36
54.94
61.66
64.30
63.66
60.64
56.27
51.66
47.84
45.45
44.67
45.26
46.79
48.71
50.52
51.71
51.73
50.20
46.95
42.20
36.49
30.49
24.65
19.05
13.36
7.14
0.09
-7.71
-15.82
-23.70
-30.89
-37.32
-43.24
-49.13
-55.48
-62.71
-71.07
-80.68
-91.31
-102.15
-111.51
-117.01
-116.04
-106.78
-89.02
-64.54
-36.67
-9.21
14.71
33.48
46.96
55.98
61.51
64.20
64.33
62.13
58.13
53.29
48.80
45.65
44.32
44.72
46.37
48.60
50.76
52.35
53.00
52.35
50.17
46.28
40.65
33.59
25.76
18.05
11.25
5.67
1.02
-3.54
-8.94
-15.73
-23.71
-32.09
-39.90
-46.49
-51.97
-57.07
-62.93
-70.57
-80.40
-91.91
-103.54
-112.90
-117.21
-114.17
-102.63
-83.11
-57.79
-29.95
-3.01
20.24
38.21
50.58
57.98
61.50
62.24
61.20
59.07
56.43
53.73
51.44
49.89
49.24
49.44
50.21
51.22
52.15
52.76
52.82
52.07
50.22
47.01
42.40
36.62
30.09
23.27
16.42
9.48
2.28
-5.28
-13.12
-20.85
-28.06
-34.45
-40.07
-45.26
-50.63
-56.86
-64.57
-74.07
-85.13
-96.74
-107.09
-113.77
-114.33
-106.99
-91.29
-68.41
-41.00
-12.64
13.16
33.81
48.22
56.72
60.63
61.35
59.89
56.74
52.21
46.88
41.89
38.61
38.05
40.28
44.31
48.56
51.59
52.64
51.76
49.49
46.32
42.43
37.71
32.04
25.49
18.29
10.82
3.32
-4.10
-11.43
-18.55
-25.21
-31.07
-35.99
-40.23
-44.50
-49.78
-56.93
-66.26
-77.23
-88.32
-97.27
-101.64
-99.39
-89.51
-72.41
-49.78
-24.29
0.98
23.28
40.71
52.50
58.99
61.24
60.51
57.85
53.98
49.34
44.45
40.04
37.06
36.29
37.99
41.63
46.08
50.00
52.26
52.21
49.74
45.16
38.99
31.96
24.73
17.83
11.50
5.62
-0.18
-6.28
-12.81
-19.63
-26.34
-32.64
-38.42
-43.89
-49.45
-55.60
-62.76
-71.17
-80.82
-91.08
-100.67
-107.62
-109.65
-104.84
-92.24
-72.35
-47.15
-19.62
6.94
29.77
47.14
58.61
64.81
66.89
66.13
63.51
59.80
55.61
51.63
48.58
47.10
47.42
49.27
51.97
54.60
56.44
57.13
56.62
55.04
52.45
48.73
43.70
37.27
29.64
21.30
12.92
5.03
-2.16
-8.80
-15.34
-22.12
-29.12
-35.95
-42.02
-46.94
-50.88
-54.56
-59.16
-65.78
-75.09
-86.90
-99.96
-112.04
-120.37
-122.25
-115.83
-100.84
-78.72
-52.37
-25.24
-0.42
20.12
35.78
46.93
54.37
58.81
60.72
60.45
58.49
55.62
52.83
51.03
50.69
51.73
53.65
55.75
57.49
58.60
59.10
59.11
58.59
57.26
54.63
50.24
43.91
35.95
27.18
18.67
11.36
5.64
1.21
-2.82
-7.47
-13.42
-20.60
-28.26
-35.37
-41.16
-45.49
-48.94
-52.56
-57.48
-64.61
-74.32
-86.33
-99.44
-111.66
-120.31
-122.66
-116.71
-101.97
-79.68
-52.63
-24.31
2.08
24.30
41.40
53.37
60.80
64.38
64.88
63.06
59.81
56.18
53.19
51.63
51.84
53.63
56.31
59.02
61.04
62.03
62.00
61.18
59.72
57.50
54.15
49.31
42.92
35.37
27.41
19.88
13.31
7.73
2.72
-2.36
-8.08
-14.61
-21.72
-28.87
-35.44
-40.99
-45.42
-49.11
-52.89
-57.99
-65.71
-76.83
-91.09
-106.64
-120.22
-127.88
-126.27
-113.77
-91.26
-61.76
-29.57
1.08
27.01
46.52
59.28
65.88
67.53
65.64
61.65
56.85
52.27
48.60
46.16
45.08
45.26
46.43
48.13
49.80
50.90
51.18
50.65
49.48
47.76
45.32
41.79
36.86
30.61
23.53
16.29
9.45
3.04
-3.25
-9.88
-17.04
-24.39
-31.32
-37.28
-42.21
-46.60
-51.30
-57.27
-65.12
-74.91
-85.96
-96.89
-105.59
-109.66
-106.99
-96.45
-78.40
-54.74
-28.43
-2.60
20.17
38.39
51.60
60.08
64.36
65.07
62.88
58.59
53.33
48.31
44.66
43.06
43.56
45.70
48.76
51.93
54.54
56.06
56.07
54.29
50.68
45.49
39.24
32.48
25.61
18.68
11.52
3.98
-3.90
-11.78
-19.29
-26.17
-32.38
-38.09
-43.55
-49.03
-54.94
-61.85
-70.37
-80.82
-92.69
-104.23
-112.77
-115.27
-109.51
-94.89
-72.84
-46.40
-19.23
5.49
25.83
41.21
52.06
59.09
62.96
64.07
62.82
59.85
56.04
52.44
49.79
48.46
48.31
48.92
49.90
50.96
51.93
52.65
52.87
52.27
50.45
47.12
42.15
35.73
28.31
20.57
13.11
6.33
0.21
-5.52
-11.27
-17.32
-23.69
-30.25
-36.72
-42.94
-48.96
-55.03
-61.61
-69.30
-78.59
-89.46
-101.02
-111.29
-117.53
-117.02
-108.00
-90.48
-66.27
-38.59
-10.96
13.74
33.82
48.82
59.19
65.62
68.77
69.13
67.19
63.65
59.51
55.90
53.78
53.61
55.19
57.72
60.20
61.77
62.06
61.18
59.49
57.24
54.42
50.71
45.82
39.67
32.57
25.14
18.02
11.65
6.09
0.99
-4.22
-10.14
-17.13
-25.16
-33.74
-42.10
-49.46
-55.40
-60.21
-64.86
-70.70
-78.90
-89.63
-101.75
-112.74
-119.45
-119.01
-109.88
-92.39
-68.69
-42.06
-15.80
7.56
26.69
41.32
51.81
58.68
62.39
63.37
62.20
59.67
56.71
54.26
53.08
53.51
55.39
58.16
61.01
63.08
63.92
63.51
62.23
60.51
58.44
55.64
51.50
45.62
38.23
30.18
22.67
16.59
12.10
8.51
4.60
-0.76
-8.15
-17.29
-27.17
-36.51
-44.23
-49.87
-53.75
-56.92
-60.83
-66.80
-75.59
-87.00
-99.57
-110.83
-117.68
-117.25
-107.91
-89.89
-65.41
-38.03
-11.53
11.18
28.84
41.55
50.26
55.89
58.97
59.65
58.16
55.15
51.71
49.09
48.21
49.36
52.07
55.46
58.42
60.10
60.07
58.34
55.28
51.35
46.94
42.17
36.97
31.20
24.83
18.04
11.14
4.37
-2.21
-8.67
-15.13
-21.57
-27.80
-33.52
-38.58
-43.19
-47.96
-53.81
-61.59
-71.64
-83.20
-94.36
-102.31
-104.16
-97.96
-83.41
-62.14
-37.15
-11.92
10.69
29.02
42.74
52.39
58.69
62.22
63.19
61.71
58.10
53.14
47.98
43.88
41.84
42.13
44.26
47.15
49.58
50.62
49.94
47.78
44.68
41.16
37.39
33.26
28.37
22.43
15.41
7.60
-0.52
-8.45
-15.82
-22.51
-28.58
-34.23
-39.71
-45.34
-51.58
-58.92
-67.72
-77.87
-88.47
-97.72
-103.25
-102.85
-95.13
-80.12
-59.34
-35.32
-10.93
11.33
29.90
44.11
53.99
59.93
62.38
61.80
58.75
54.11
49.07
44.92
42.68
42.74
44.73
47.70
50.54
52.34
52.70
51.60
49.30
46.08
42.21
37.87
33.19
28.20
22.80
16.76
9.86
2.07
-6.39
-14.92
-22.84
-29.60
-34.98
-39.28
-43.20
-47.62
-53.35
-60.97
-70.59
-81.73
-93.20
-103.15
-109.27
-109.36
-101.91
-86.71
-65.16
-39.89
-14.08
9.40
28.67
43.04
52.76
58.55
61.20
61.33
59.49
56.36
52.78
49.66
47.79
47.50
48.62
50.60
52.73
54.46
55.50
55.79
55.30
53.81
50.99
46.53
40.44
33.13
25.30
17.63
10.47
3.83
-2.56
-9.00
-15.56
-22.08
-28.37
-34.27
-39.75
-44.95
-50.08
-55.50
-61.74
-69.44
-78.93
-89.87
-100.81
-109.36
-112.69
-108.55
-96.05
-76.13
-51.29
-24.78
0.28
21.65
38.23
49.86
56.99
60.33
60.67
58.85
55.85
52.74
50.46
49.54
49.93
51.14
52.50
53.57
54.29
54.87
55.45
55.87
55.62
53.98
50.45
44.94
37.91
30.15
22.51
15.67
9.93
5.22
1.11
-3.11
-8.11
-14.31
-21.60
-29.33
-36.63
-42.73
-47.38
-51.01
-54.58
-59.27
-66.04
-75.20
-86.12
-97.11
-105.68
-109.11
-105.24
-93.24
-74.00
-49.99
-24.58
-1.03
18.38
32.70
42.24
47.97
50.88
51.72
50.86
48.70
45.82
43.01
41.18
40.87
42.05
44.06
46.00
47.11
47.07
46.13
44.76
43.35
41.85
39.85
36.76
32.21
26.24
19.31
12.11
5.14
-1.45
-7.82
-14.26
-20.84
-27.35
-33.39
-38.72
-43.37
-47.88
-52.97
-59.41
-67.54
-77.07
-86.98
-95.43
-100.11
-98.84
-90.29
-74.49
-53.09
-28.89
-5.02
15.90
32.43
44.29
52.03
56.45
58.21
57.69
55.13
51.00
46.05
41.37
38.01
36.66
37.40
39.69
42.64
45.30
47.05
47.51
46.55
44.07
40.00
34.42
27.66
20.34
13.12
6.46
0.45
-5.18
-10.82
-16.68
-22.58
-28.15
-32.94
-36.87
-40.32
-44.11
-49.22
-56.39
-65.90
-77.29
-89.32
-100.09
-107.32
-108.89
-103.38
-90.59
-71.70
-49.03
-25.37
-3.28
15.52
30.34
41.23
48.70
53.31
55.51
55.73
54.47
52.40
50.25
48.57
47.67
47.52
47.78
48.05
48.05
47.68
47.07
46.40
45.72
44.75
42.97
39.77
34.82
28.27
20.73
13.03
5.81
-0.71
-6.75
-12.80
-19.18
-25.89
-32.54
-38.61
-43.77
-48.12
-52.24
-57.08
-63.63
-72.47
-83.41
-95.28
-105.92
-112.65
-112.96
-105.35
-89.82
-68.00
-42.68
-17.02
6.26
25.36
39.58
49.10
54.55
56.77
56.64
55.04
52.77
50.47
48.60
47.24
46.35
45.78
45.48
45.48
45.88
46.55
47.14
47.15
46.00
43.40
39.37
34.21
28.41
22.46
16.69
11.20
5.83
0.28
-5.77
-12.45
-19.53
-26.59
-33.09
-38.71
-43.49
-47.82
-52.44
-58.13
-65.60
-75.07
-86.03
-97.08
-105.98
-110.14
-107.33
-96.54
-78.40
-55.17
-30.03
-6.17
14.03
29.45
40.09
46.67
50.11
51.11
50.20
47.79
44.38
40.76
37.87
36.52
37.08
39.31
42.40
45.36
47.39
48.06
47.38
45.62
43.03
39.75
35.70
30.73
24.70
17.60
9.57
0.92
-7.81
-16.02
-23.07
-28.55
-32.50
-35.52
-38.64
-43.02
-49.55
-58.50
-69.35
-80.78
-90.83
-97.26
-98.02
-91.71
-78.09
-58.22
-34.47
-9.97
12.21
29.79
41.77
48.44
50.96
50.68
48.63
45.38
41.19
36.41
31.77
28.27
26.80
27.69
30.45
33.97
36.91
38.32
37.97
36.21
33.75
31.16
28.54
25.46
21.21
15.18
7.29
-1.91
-11.36
-19.85
-26.55
-31.38
-35.02
-38.69
-43.67
-50.92
-60.62
-72.10
-83.84
-93.68
-99.28
-98.65
-90.73
-75.76
-55.29
-31.78
-7.94
13.87
32.09
46.01
55.57
61.08
63.01
61.85
58.24
52.95
47.01
41.54
37.60
35.79
36.04
37.70
39.77
41.36
42.05
41.82
40.90
39.28
36.64
32.45
26.27
18.19
8.93
-0.49
-9.12
-16.47
-22.59
-28.03
-33.53
-39.91
-47.85
-57.77
-69.46
-81.78
-92.68
-99.54
-99.88
-92.15
-76.41
-54.44
-29.18
-3.94
18.61
36.90
50.54
59.84
65.32
67.28
66.01
61.94
56.05
49.81
44.75
41.94
41.61
43.07
45.10
46.54
46.78
45.75
43.88
41.64
39.24
36.48
32.84
27.69
20.63
11.82
1.93
-7.89
-16.57
-23.53
-28.90
-33.42
-38.16
-44.16
-52.13
-62.30
-74.22
-86.66
-97.55
-104.31
-104.44
-96.38
-80.13
-57.40
-31.18
-4.78
19.00
38.44
52.99
62.84
68.49
70.43
69.09
65.04
59.14
52.62
46.84
42.91
41.38
42.08
44.24
46.81
48.85
49.77
49.36
47.66
44.85
41.16
36.75
31.75
26.11
19.73
12.50
4.41
-4.24
-12.96
-21.16
-28.45
-34.75
-40.38
-45.96
-52.29
-60.01
-69.38
-80.02
-90.57
-98.92
-102.61
-99.61
-89.00
-71.41
-48.78
-23.79
0.86
22.99
41.11
54.45
62.83
66.54
66.32
63.23
58.45
53.13
48.22
44.45
42.29
41.95
43.24
45.58
48.06
49.82
50.24
49.16
46.78
43.51
39.62
35.30
30.52
25.21
19.22
12.46
4.95
-3.09
-11.21
-18.86
-25.60
-31.30
-36.33
-41.39
-47.34
-54.87
-64.26
-75.20
-86.60
-96.54
-102.55
-102.15
-93.65
-76.87
-53.45
-26.55
0.16
23.50
41.66
54.23
61.87
65.56
66.15
64.18
60.08
54.51
48.45
43.12
39.56
38.39
39.51
42.22
45.42
48.03
49.23
48.66
46.39
42.79
38.37
33.54
28.46
23.05
17.02
10.12
2.33
-6.07
-14.53
-22.47
-29.48
-35.46
-40.61
-45.35
-50.27
-56.07
-63.35
-72.40
-82.72
-92.83
-100.36
-102.56
-97.27
-83.79
-63.23
-38.28
-12.43
11.11
30.14
43.76
52.20
56.25
56.87
54.88
51.08
46.27
41.41
37.49
35.28
35.06
36.51
38.81
40.93
42.00
41.58
39.73
36.91
33.69
30.40
26.97
22.96
17.76
11.04
2.92
-5.81
-14.08
-20.92
-25.97
-29.63
-32.91
-36.92
-42.60
-50.35
-60.07
-71.14
-82.34
-91.87
-97.53
-97.23
-89.68
-74.90
-54.44
-30.89
-7.16
14.31
31.96
45.23
54.16
59.07
60.49
59.03
55.48
50.76
45.85
41.63
38.66
37.22
37.16
37.99
39.01
39.54
39.21
38.04
36.33
34.43
32.42
29.89
26.18
20.70
13.30
4.46
-4.79
-13.38
-20.54
-26.15
-30.68
-34.89
-39.62
-45.51
-52.93
-62.00
-72.44
-83.33
-93.14
-99.75
-100.94
-95.08
-81.70
-61.81
-37.78
-12.61
10.78
30.31
45.00
54.91
60.61
62.85
62.28
59.43
54.88
49.49
44.26
40.20
38.01
37.85
39.39
41.91
44.61
46.74
47.72
47.17
44.93
41.07
35.93
30.02
23.92
18.00
12.27
6.43
0.06
-7.10
-14.93
-22.95
-30.53
-37.21
-42.93
-48.00
-53.00
-58.46
-64.86
-72.54
-81.59
-91.69
-101.73
-109.77
-113.24
-109.74
-97.95
-78.30
-53.08
-25.77
0.03
21.68
38.04
49.27
56.25
59.87
60.70
59.05
55.36
50.43
45.48
41.80
40.19
40.63
42.33
44.18
45.41
45.86
45.86
45.81
45.64
44.73
42.25
37.71
31.35
24.08
17.00
10.81
5.43
0.20
-5.64
-12.41
-19.87
-27.33
-34.11
-39.81
-44.54
-48.77
-53.17
-58.49
-65.36
-74.08
-84.38
-95.13
-104.36
-109.59
-108.48
-99.60
-83.02
-60.42
-34.62
-8.79
14.38
33.17
46.92
55.79
60.38
61.39
59.59
55.78
50.91
46.01
42.03
39.64
39.10
40.29
42.74
45.84
48.89
51.23
52.36
51.98
50.00
46.53
41.69
35.73
28.95
21.73
14.45
7.37
0.59
-6.05
-12.74
-19.51
-26.14
-32.17
-37.23
-41.23
-44.59
-48.08
-52.69
-59.19
-67.95
-78.62
-90.04
-100.28
-106.93
-107.71
-101.13
-86.95
-66.42
-41.98
-16.65
6.72
26.01
40.22
49.35
54.04
55.20
53.62
49.95
44.88
39.37
34.61
31.76
31.56
33.89
37.84
42.05
45.27
46.79
46.53
44.86
42.23
38.93
35.03
30.47
25.10
18.81
11.54
3.42
-5.18
-13.73
-21.64
-28.47
-34.11
-38.87
-43.34
-48.28
-54.34
-61.92
-70.93
-80.62
-89.49
-95.44
-96.30
-90.45
-77.45
-58.30
-35.26
-11.24
11.04
29.59
43.47
52.66
57.61
58.96
57.29
53.25
47.66
41.67
36.61
33.69
33.60
36.18
40.47
45.10
48.80
50.81
51.01
49.67
47.24
44.05
40.28
35.95
30.93
25.01
17.94
9.51
-0.27
-10.98
-21.81
-31.83
-40.30
-47.02
-52.51
-57.83
-64.21
-72.48
-82.51
-93.08
-101.99
-106.70
-105.00
-95.73
-79.11
-56.68
-30.96
-4.85
18.88
38.10
51.61
59.18
61.55
60.09
56.44
52.09
48.12
45.16
43.42
42.98
43.70
45.38
47.69
50.19
52.44
54.07
54.78
54.31
52.41
48.88
43.69
37.08
29.61
21.90
14.45
7.42
0.56
-6.47
-13.87
-21.46
-28.79
-35.41
-41.14
-46.27
-51.43
-57.42
-64.86
-74.03
-84.70
-96.00
-106.35
-113.47
-114.86
-108.45
-93.44
-70.86
-43.46
-14.99
10.90
31.67
46.39
55.58
60.50
62.46
62.36
60.63
57.63
53.84
50.02
47.08
45.68
46.04
47.87
50.49
53.10
55.06
56.00
55.77
54.37
51.80
48.06
43.14
37.15
30.33
23.07
15.75
8.63
1.71
-5.27
-12.53
-20.14
-27.83
-35.11
-41.52
-46.91
-51.65
-56.62
-62.88
-71.18
-81.50
-92.72
-102.62
-108.43
-107.51
-98.31
-80.89
-57.11
-30.12
-3.40
20.16
38.89
52.40
61.19
66.00
67.55
66.30
62.77
57.63
51.90
46.68
42.99
41.45
42.13
44.61
48.08
51.49
53.85
54.36
52.61
48.65
42.98
36.44
29.86
23.91
18.85
14.51
10.41
5.94
0.58
-5.87
-13.16
-20.67
-27.68
-33.66
-38.56
-42.88
-47.55
-53.63
-61.86
-72.25
-83.82
-94.60
-101.92
-103.07
-96.14
-80.71
-58.17
-31.46
-4.21
20.28
39.85
53.76
62.34
66.46
66.94
64.45
59.62
53.36
46.93
41.72
38.93
39.09
41.93
46.39
51.00
54.29
55.31
53.85
50.38
45.76
40.82
35.98
31.15
25.88
19.71
12.47
4.45
-3.77
-11.59
-18.69
-25.05
-30.87
-36.38
-41.84
-47.61
-54.16
-61.99
-71.32
-81.69
-91.68
-99.01
-101.14
-96.00
-82.86
-62.70
-38.01
-12.04
12.05
32.02
46.86
56.62
62.07
64.16
63.70
61.30
57.50
52.92
48.38
44.80
42.83
42.77
44.39
47.07
49.90
52.02
52.78
51.79
49.05
44.79
39.48
33.52
27.20
20.64
13.76
6.42
-1.39
-9.46
-17.49
-25.04
-31.77
-37.56
-42.54
-47.06
-51.67
-57.01
-63.73
-72.26
-82.43
-93.24
-102.83
-108.77
-108.66
-100.92
-85.30
-63.10
-36.87
-9.82
15.00
35.37
50.25
59.79
64.82
66.35
65.21
62.00
57.28
51.90
46.96
43.67
42.70
43.94
46.49
49.05
50.49
50.29
48.55
45.75
42.37
38.63
34.50
29.83
24.46
18.32
11.39
3.71
-4.48
-12.81
-20.74
-27.72
-33.41
-37.89
-41.68
-45.60
-50.55
-57.30
-66.24
-77.18
-89.16
-100.35
-108.26
-110.23
-104.32
-90.01
-68.63
-43.05
-16.87
6.74
25.69
39.34
48.06
52.61
53.75
52.12
48.36
43.38
38.41
34.70
33.14
33.95
36.51
39.69
42.26
43.40
42.95
41.35
39.27
37.17
34.99
32.09
27.66
21.07
12.34
2.19
-8.07
-17.20
-24.33
-29.36
-33.04
-36.53
-41.09
-47.65
-56.49
-67.13
-78.36
-88.29
-94.64
-95.20
-88.46
-74.14
-53.51
-29.22
-4.58
17.38
34.66
46.69
54.03
57.78
58.82
57.63
54.38
49.37
43.48
38.08
34.64
34.06
36.20
39.80
43.20
44.98
44.61
42.50
39.55
36.49
33.46
30.03
25.48
19.28
11.47
2.61
-6.45
-14.86
-22.09
-28.02
-32.98
-37.59
-42.62
-48.79
-56.59
-66.04
-76.57
-86.88
-95.00
-98.69
-96.01
-86.02
-69.16
-47.29
-23.12
0.49
21.28
37.97
50.11
57.89
61.74
62.22
59.97
55.86
50.92
46.24
42.80
41.22
41.66
43.76
46.65
49.29
50.63
50.04
47.41
43.24
38.33
33.46
28.98
24.74
20.21
14.85
8.43
1.04
-6.90
-14.92
-22.68
-29.99
-36.81
-43.11
-48.99
-54.73
-60.90
-68.19
-76.99
-86.92
-96.45
-103.14
-104.30
-97.96
-83.61
-62.57
-37.55
-11.80
11.76
31.22
45.88
55.87
61.73
64.06
63.38
60.25
55.45
50.00
45.01
41.49
40.02
40.57
42.57
45.14
47.31
48.35
47.86
45.74
42.15
37.40
31.90
26.15
20.53
15.20
10.08
4.81
-1.02
-7.61
-14.86
-22.29
-29.22
-35.15
-39.96
-44.12
-48.54
-54.30
-62.14
-72.15
-83.39
-93.88
-101.03
-102.25
-95.80
-81.38
-60.31
-35.20
-9.33
14.28
33.39
46.98
55.21
58.99
59.57
58.14
55.48
52.06
48.29
44.65
41.78
40.28
40.40
41.82
43.75
45.27
45.73
44.94
43.06
40.35
36.92
32.71
27.66
21.89
15.72
9.41
3.10
-3.33
-10.04
-17.02
-23.99
-30.48
-36.11
-40.85
-45.13
-49.67
-55.25
-62.33
-70.98
-80.71
-90.49
-98.74
-103.46
-102.66
-94.86
-79.81
-58.79
-34.46
-10.13
11.28
28.01
39.76
47.21
51.25
52.50
51.09
47.19
41.39
35.03
29.83
27.31
28.01
31.40
36.04
40.30
43.03
43.82
42.98
41.10
38.64
35.66
31.84
26.70
19.91
11.57
2.21
-7.19
-15.60
-22.21
-26.81
-29.89
-32.49
-35.86
-40.96
-48.24
-57.60
-68.45
-79.78
-90.14
-97.65
-100.18
-95.97
-84.24
-65.71
-42.63
-18.22
4.35
22.80
36.25
45.08
50.24
52.67
52.86
50.97
47.18
42.08
36.78
32.68
30.90
31.85
35.01
39.09
42.62
44.45
44.16
42.06
38.82
35.10
31.18
26.87
21.65
15.10
7.10
-1.84
-10.78
-18.69
-24.93
-29.48
-32.97
-36.29
-40.27
-45.43
-52.06
-60.35
-70.33
-81.65
-93.20
-103.00
-108.44
-107.09
-97.53
-79.99
-56.38
-29.74
-3.36
19.96
38.42
51.23
58.57
61.27
60.60
57.91
54.46
51.13
48.44
46.58
45.61
45.52
46.27
47.81
49.95
52.36
54.46
55.56
54.97
52.20
47.26
40.62
33.15
25.68
18.73
12.32
6.12
-0.27
-7.01
-13.95
-20.76
-27.14
-33.01
-38.43
-43.64
-48.89
-54.59
-61.23
-69.40
-79.37
-90.75
-102.21
-111.41
-115.64
-112.59
-101.18
-82.13
-57.84
-31.69
-6.98
14.06
30.63
43.16
52.52
59.30
63.54
64.99
63.62
60.06
55.57
51.52
48.94
48.14
48.78
50.28
52.22
54.34
56.51
58.39
59.32
58.46
55.15
49.27
41.38
32.58
24.11
16.83
11.04
6.35
2.01
-2.68
-8.19
-14.46
-21.20
-27.99
-34.52
-40.72
-46.67
-52.62
-58.98
-66.24
-74.82
-84.75
-95.37
-105.13
-111.73
-112.61
-105.88
-91.02
-69.29
-43.44
-16.92
7.19
26.94
41.77
52.14
58.96
62.91
64.33
63.43
60.63
56.82
53.15
50.64
49.83
50.56
52.23
54.13
55.75
56.95
57.75
58.11
57.74
56.14
52.85
47.72
41.08
33.72
26.56
20.28
15.06
10.47
5.75
0.20
-6.50
-14.08
-21.90
-29.18
-35.38
-40.33
-44.32
-47.96
-52.08
-57.53
-65.01
-74.89
-86.83
-99.62
-111.01
-118.13
-118.16
-109.29
-91.49
-66.64
-38.15
-9.87
15.01
34.67
48.77
58.03
63.44
65.78
65.50
62.94
58.66
53.66
49.19
46.40
45.92
47.69
50.99
54.80
58.19
60.59
61.82
61.96
61.13
59.27
56.14
51.44
45.10
37.52
29.43
21.82
15.47
10.60
6.80
3.15
-1.30
-7.16
-14.41
-22.45
-30.35
-37.22
-42.61
-46.63
-49.99
-53.71
-58.91
-66.39
-76.32
-87.98
-99.67
-108.99
-113.39
-110.78
-100.18
-82.07
-58.33
-31.79
-5.59
17.54
35.77
48.38
55.60
58.32
57.67
54.82
50.76
46.40
42.58
40.02
39.37
40.85
44.19
48.55
52.78
55.80
56.94
56.16
53.82
50.45
46.37
41.69
36.31
30.27
23.76
17.20
10.94
5.09
-0.61
-6.56
-13.02
-19.87
-26.63
-32.72
-37.77
-41.86
-45.62
-49.98
-55.95
-64.28
-75.08
-87.57
-99.89
-109.35
-112.98
-108.45
-94.88
-73.30
-46.45
-17.99
8.56
30.62
46.93
57.49
62.99
64.49
63.02
59.56
55.08
50.58
47.02
45.11
45.17
46.95
49.78
52.72
54.96
55.95
55.52
53.83
51.11
47.53
43.14
37.92
31.91
25.24
18.14
10.83
3.46
-3.88
-11.14
-18.27
-25.10
-31.39
-36.95
-41.74
-46.02
-50.36
-55.44
-61.97
-70.44
-80.81
-92.26
-103.08
-110.77
-112.60
-106.49
-91.82
-69.81
-43.36
-16.08
8.72
28.84
43.53
53.13
58.55
60.74
60.50
58.55
55.61
52.42
49.68
47.91
47.36
48.03
49.66
51.86
54.09
55.83
56.68
56.41
54.94
52.30
48.51
43.57
37.51
30.55
23.12
15.75
8.81
2.38
-3.88
-10.44
-17.59
-25.22
-32.81
-39.72
-45.49
-50.23
-54.54
-59.49
-66.14
-75.10
-86.18
-97.99
-108.15
-113.77
-112.32
-102.54
-84.92
-61.63
-35.81
-10.60
11.61
29.63
43.20
52.75
58.88
62.12
62.92
61.69
58.92
55.29
51.65
48.94
47.90
48.81
51.27
54.37
56.97
58.17
57.65
55.59
52.51
48.86
44.83
40.34
35.33
29.80
23.91
17.81
11.50
4.81
-2.49
-10.50
-19.04
-27.56
-35.38
-41.87
-46.83
-50.55
-53.93
-58.15
-64.37
-73.19
-84.26
-95.99
-105.79
-110.64
-107.99
-96.63
-77.19
-52.03
-24.54
1.75
24.14
41.19
52.71
59.30
61.90
61.48
58.96
55.30
51.52
48.59
47.13
47.24
48.55
50.41
52.31
53.94
55.25
56.25
56.77
56.41
54.72
51.34
46.23
39.71
32.30
24.64
17.23
10.37
4.13
-1.68
-7.34
-13.18
-19.45
-26.10
-32.84
-39.30
-45.16
-50.47
-55.65
-61.44
-68.63
-77.55
-87.74
-97.76
-105.34
-107.93
-103.48
-91.18
-71.92
-48.06
-22.78
0.82
20.56
35.49
45.73
52.00
55.05
55.44
53.59
49.97
45.33
40.67
37.07
35.33
35.76
38.05
41.44
44.91
47.53
48.64
48.01
45.82
42.50
38.56
34.32
29.83
24.86
19.05
12.20
4.39
-3.94
-12.07
-19.32
-25.31
-30.06
-34.01
-37.73
-41.76
-46.55
-52.52
-60.02
-69.20
-79.63
-89.98
-97.96
-100.88
-96.47
-83.88
-64.16
-40.01
-14.95
7.89
26.48
40.26
49.70
55.64
58.77
59.45
57.81
54.17
49.31
44.34
40.48
38.59
38.89
41.00
44.14
47.50
50.38
52.36
53.02
52.04
49.15
44.27
37.63
29.88
21.90
14.47
8.08
2.72
-2.06
-6.92
-12.41
-18.78
-25.83
-33.02
-39.71
-45.53
-50.59
-55.51
-61.29
-68.90
-78.69
-89.98
-100.90
-108.64
-110.22
-103.53
-88.16
-65.76
-39.49
-13.06
10.43
29.14
42.66
51.46
56.33
57.99
57.07
54.29
50.58
47.02
44.56
43.78
44.67
46.77
49.35
51.68
53.23
53.74
53.20
51.75
49.53
46.53
42.55
37.43
31.19
24.22
17.15
10.52
4.53
-1.12
-7.03
-13.65
-20.96
-28.35
-34.92
-39.93
-43.29
-45.79
-48.83
-53.91
-62.03
-73.16
-86.03
-98.37
-107.40
-110.60
-106.31
-94.19
-75.27
-51.72
-26.35
-1.97
19.18
35.75
47.39
54.51
57.87
58.30
56.49
53.13
49.08
45.31
42.78
42.09
43.19
45.49
48.10
50.31
51.83
52.74
53.17
53.02
51.92
49.37
45.13
39.36
32.61
25.55
18.68
12.22
6.15
0.37
-5.27
-10.90
-16.65
-22.61
-28.72
-34.71
-40.20
-44.94
-49.09
-53.37
-58.72
-66.08
-75.75
-87.12
-98.57
-107.74
-112.02
-109.35
-98.85
-81.17
-58.45
-33.65
-9.70
11.26
28.20
41.08
50.25
56.08
58.69
58.24
55.25
50.78
46.33
43.32
42.60
44.18
47.25
50.69
53.47
55.08
55.46
54.81
53.29
50.85
47.31
42.55
36.72
30.19
23.48
17.06
11.19
5.96
1.25
-3.16
-7.66
-12.59
-18.19
-24.43
-30.97
-37.38
-43.33
-48.85
-54.41
-60.68
-68.23
-77.22
-87.13
-96.72
-104.16
-107.29
-104.21
-93.83
-76.45
-53.86
-28.97
-4.98
15.63
31.59
42.97
50.58
55.31
57.63
57.72
55.72
52.16
47.96
44.21
41.69
40.64
40.80
41.78
43.34
45.47
48.29
51.71
55.20
57.90
58.68
56.68
51.56
43.74
34.27
24.54
15.75
8.49
2.58
-2.78
-8.50
-15.06
-22.30
-29.51
-35.90
-41.08
-45.27
-49.12
-53.57
-59.39
-67.01
-76.36
-86.69
-96.46
-103.53
-105.55
-100.58
-87.93
-68.53
-44.79
-19.96
2.87
21.55
35.25
44.32
49.72
52.43
53.06
51.92
49.29
45.82
42.51
40.47
40.42
42.24
45.08
47.81
49.58
50.16
49.86
49.10
47.98
46.08
42.81
37.78
31.17
23.69
16.29
9.71
4.19
-0.59
-5.27
-10.49
-16.52
-23.19
-29.89
-35.92
-40.83
-44.75
-48.41
-52.90
-59.24
-67.80
-78.05
-88.38
-96.46
-99.74
-96.26
-85.21
-67.36
-44.90
-20.73
2.29
22.08
37.53
48.40
54.92
57.53
56.78
53.45
48.61
43.50
39.24
36.69
36.17
37.58
40.50
44.33
48.33
51.73
53.83
54.28
52.99
50.13
45.92
40.56
34.20
27.12
19.79
12.77
6.51
1.08
-3.90
-9.06
-14.90
-21.43
-28.18
-34.41
-39.63
-43.93
-48.02
-52.95
-59.68
-68.58
-79.25
-90.38
-99.93
-105.58
-105.21
-97.55
-82.60
-61.82
-37.77
-13.45
8.48
26.35
39.57
48.43
53.66
56.01
56.09
54.42
51.59
48.33
45.46
43.71
43.47
44.66
46.77
49.07
50.93
52.01
52.34
52.14
51.50
50.11
47.37
42.74
36.14
28.13
19.83
12.35
6.29
1.50
-2.72
-7.27
-12.69
-19.00
-25.78
-32.45
-38.48
-43.57
-47.79
-51.49
-55.38
-60.44
-67.55
-77.13
-88.59
-100.12
-109.03
-112.41
-108.06
-95.35
-75.44
-50.89
-24.91
-0.41
20.59
37.20
49.31
57.29
61.52
62.39
60.42
56.44
51.62
47.28
44.51
43.91
45.36
48.14
51.27
53.87
55.41
55.82
55.28
54.04
52.15
49.41
45.60
40.60
34.65
28.23
21.92
16.13
10.84
5.71
0.30
-5.74
-12.42
-19.45
-26.43
-32.91
-38.58
-43.35
-47.35
-51.15
-55.61
-61.78
-70.40
-81.40
-93.63
-104.80
-112.11
-113.03
-106.10
-91.39
-70.50
-46.00
-20.79
2.60
22.41
37.75
48.45
54.81
57.40
56.98
54.49
51.01
47.68
45.42
44.72
45.55
47.38
49.54
51.40
52.73
53.61
54.20
54.58
54.45
53.28
50.43
45.53
38.73
30.76
22.64
15.35
9.43
4.79
0.81
-3.33
-8.29
-14.27
-21.03
-28.11
-35.01
-41.42
-47.35
-53.03
-58.88
-65.42
-73.08
-81.91
-91.32
-99.95
-105.82
-106.89
-101.61
-89.48
-71.37
-49.29
-25.84
-3.58
15.66
31.00
42.36
50.16
54.81
56.55
55.56
52.22
47.41
42.48
38.90
37.71
39.07
42.33
46.31
49.81
52.09
52.86
52.17
50.19
46.97
42.56
37.10
30.91
24.44
18.04
11.88
5.79
-0.47
-7.18
-14.33
-21.69
-28.82
-35.29
-40.93
-45.95
-50.92
-56.65
-63.83
-72.71
-82.68
-92.17
-98.81
-100.06
-94.04
-80.27
-60.01
-36.06
-11.80
9.72
26.69
38.75
46.60
51.34
53.78
54.19
52.59
49.16
44.62
40.23
37.33
36.79
38.63
41.97
45.46
47.88
48.61
47.72
45.72
43.14
40.17
36.59
31.99
26.08
18.93
10.97
2.78
-5.19
-12.60
-19.38
-25.50
-30.99
-35.99
-40.79
-45.88
-51.86
-59.25
-68.21
-78.25
-88.03
-95.53
-98.41
-94.69
-83.51
-65.57
-43.07
-19.05
3.49
22.48
37.08
47.50
54.45
58.54
60.06
59.16
56.13
51.72
47.10
43.53
41.90
42.45
44.72
47.79
50.64
52.43
52.70
51.30
48.34
44.11
39.03
33.54
28.05
22.66
17.22
11.45
5.10
-1.90
-9.33
-16.89
-24.34
-31.53
-38.38
-44.87
-51.01
-56.98
-63.24
-70.38
-78.74
-87.97
-96.71
-102.70
-103.34
-96.69
-82.14
-60.83
-35.47
-9.50
13.89
32.61
46.02
54.67
59.78
62.42
63.30
62.63
60.52
57.39
53.99
51.22
49.74
49.67
50.62
51.95
53.11
53.83
54.04
53.71
52.64
50.48
46.92
41.84
35.50
28.36
21.03
13.82
6.71
-0.58
-8.33
-16.51
-24.73
-32.34
-38.74
-43.66
-47.36
-50.61
-54.44
-59.90
-67.70
-77.84
-89.26
-99.77
-106.44
-106.38
-97.82
-80.91
-57.80
-32.00
-7.08
14.43
31.49
44.32
53.63
60.00
63.61
64.49
62.90
59.62
55.80
52.52
50.44
49.60
49.70
50.30
51.18
52.21
53.24
53.93
53.73
52.16
48.92
44.07
37.98
31.17
24.16
17.33
10.94
5.05
-0.46
-5.92
-11.67
-17.88
-24.40
-30.76
-36.48
-41.39
-45.81
-50.55
-56.59
-64.64
-74.73
-85.92
-96.25
-103.09
-103.81
-96.70
-81.62
-60.27
-35.72
-11.47
9.63
26.02
37.52
44.86
48.96
50.49
49.83
47.29
43.48
39.38
36.16
34.76
35.59
38.23
41.72
44.90
46.78
46.93
45.44
42.75
39.37
35.66
31.80
27.74
23.26
18.04
11.85
4.62
-3.30
-11.27
-18.48
-24.42
-29.13
-33.23
-37.74
-43.55
-51.12
-60.42
-70.94
-81.83
-91.88
-99.42
-102.47
-99.19
-88.53
-70.99
-48.63
-24.54
-1.82
17.36
32.12
42.65
49.64
53.70
55.20
54.40
51.72
47.83
43.65
40.08
37.79
37.07
37.88
39.81
42.24
44.54
46.21
46.98
46.77
45.50
43.04
39.21
34.04
27.83
21.15
14.50
8.02
1.47
-5.56
-13.17
-21.03
-28.39
-34.53
-39.16
-42.62
-45.71
-49.37
-54.42
-61.31
-70.03
-79.89
-89.43
-96.41
-98.28
-92.98
-79.76
-59.77
-35.75
-11.30
10.44
27.56
39.80
48.12
53.80
57.86
60.58
61.78
61.26
59.17
56.23
53.38
51.41
50.57
50.56
50.68
50.29
49.04
47.02
44.62
42.14
39.70
37.02
33.65
29.06
22.95
15.40
6.78
-2.23
-11.01
-19.07
-26.22
-32.39
-37.64
-42.07
-45.81
-49.18
-52.77
-57.29
-63.23
-70.45
-77.83
-83.35
-84.57
-79.53
-67.60
-49.86
-28.85
-7.67
10.96
25.46
35.54
41.81
45.21
46.53
46.26
44.74
42.54
40.35
38.97
38.84
39.92
41.59
42.94
43.18
41.96
39.49
36.40
33.39
30.88
28.88
26.87
24.21
20.29
14.90
8.26
0.97
-6.22
-12.59
-17.71
-21.45
-24.07
-26.20
-28.64
-32.31
-37.98
-45.98
-56.00
-66.89
-76.67
-82.89
-83.17
-76.03
-61.43
-41.00
-17.60
5.63
26.08
42.30
53.98
61.46
65.12
65.15
61.69
55.25
46.97
38.61
32.01
28.40
28.00
29.86
32.42
34.22
34.50
33.31
31.32
29.26
27.36
25.29
22.30
17.67
11.14
3.13
-5.46
-13.55
-20.32
-25.44
-29.13
-32.08
-35.17
-39.18
-44.64
-51.68
-60.02
-68.91
-77.12
-83.05
-84.96
-81.37
-71.64
-56.25
-36.82
-15.70
4.55
21.92
35.20
44.08
48.94
50.45
49.33
46.19
41.59
36.21
30.80
26.15
22.87
21.21
21.08
21.99
23.40
24.76
25.69
25.95
25.30
23.52
20.34
15.59
9.30
1.83
-6.21
-14.05
-21.14
-27.26
-32.68
-38.06
-44.24
-51.88
-61.11
-71.30
-81.04
-88.38
-91.23
-87.97
-78.04
-62.15
-42.24
-20.90
-0.68
16.58
29.97
39.37
45.03
47.26
46.38
42.81
37.40
31.34
25.96
22.33
20.93
21.57
23.58
26.16
28.57
30.27
30.86
30.11
27.91
24.29
19.41
13.55
6.92
-0.33
-7.93
-15.56
-22.89
-29.80
-36.67
-44.27
-53.38
-64.12
-75.38
-84.83
-89.50
-86.92
-76.08
-57.97
-35.23
-11.32
10.61
28.52
41.62
50.10
54.52
55.44
53.36
48.77
42.47
35.46
28.93
23.76
20.37
18.68
18.31
18.79
19.76
20.88
21.69
21.57
19.85
16.08
10.28
3.05
-4.69
-12.03
-18.50
-24.29
-30.11
-36.85
-45.16
-55.04
-65.73
-75.72
-83.00
-85.48
-81.51
-70.40
-52.79
-30.61
-6.77
15.65
34.07
47.06
54.42
56.86
55.60
51.89
46.76
41.08
35.59
31.00
27.77
26.07
25.61
25.78
25.90
25.51
24.50
22.99
21.11
18.75
15.56
11.12
5.17
-2.09
-10.00
-17.69
-24.52
-30.33
-35.65
-41.43
-48.64
-57.68
-68.04
-78.14
-85.66
-88.24
-84.18
-73.02
-55.71
-34.28
-11.25
10.95
30.41
45.93
56.91
63.18
64.87
62.39
56.51
48.43
39.88
32.62
28.16
27.09
28.90
32.16
35.19
36.80
36.63
35.24
33.39
31.52
29.36
26.08
20.84
13.31
3.93
-6.22
-15.84
-24.00
-30.39
-35.39
-39.79
-44.66
-50.96
-59.31
-69.83
-81.96
-94.28
-104.55
-110.18
-108.88
-99.41
-82.14
-58.99
-32.88
-6.88
16.51
35.76
50.21
59.84
64.96
66.09
64.00
59.68
54.25
48.83
44.34
41.40
40.27
40.89
42.83
45.35
47.60
48.79
48.46
46.58
43.40
39.39
34.92
30.08
24.71
18.50
11.26
3.08
-5.55
-13.96
-21.61
-28.32
-34.36
-40.27
-46.68
-54.09
-62.80
-72.79
-83.63
-94.25
-102.89
-107.29
-105.22
-95.34
-77.78
-54.32
-27.92
-1.83
21.32
39.95
53.55
62.30
66.64
67.12
64.47
59.63
53.81
48.30
44.22
42.22
42.38
44.22
46.84
49.22
50.48
50.10
48.08
44.86
41.04
37.11
33.24
29.16
24.44
18.71
11.94
4.37
-3.51
-11.24
-18.51
-25.17
-31.25
-36.83
-42.14
-47.57
-53.78
-61.49
-71.12
-82.32
-93.68
-102.76
-106.74
-103.25
-91.32
-71.88
-47.49
-21.57
2.73
23.31
39.39
51.15
59.21
64.03
65.79
64.60
60.72
55.03
48.89
43.76
40.78
40.33
41.92
44.52
46.95
48.30
48.10
46.34
43.31
39.39
34.96
30.20
25.10
19.50
13.08
5.70
-2.51
-11.07
-19.23
-26.35
-32.10
-36.77
-41.17
-46.36
-53.26
-62.21
-72.77
-83.68
-93.03
-98.62
-98.42
-91.17
-76.76
-56.42
-32.49
-7.83
14.80
33.44
47.13
55.95
60.57
61.86
60.66
57.62
53.34
48.51
43.92
40.43
38.75
39.24
41.74
45.49
49.32
52.00
52.66
51.02
47.45
42.70
37.52
32.38
27.30
21.97
16.07
9.37
1.94
-5.96
-13.97
-21.74
-28.98
-35.55
-41.48
-47.09
-52.97
-59.84
-68.27
-78.39
-89.60
-100.38
-108.52
-111.47
-107.14
-94.62
-74.67
-49.65
-22.88
2.33
23.60
39.87
51.26
58.47
62.25
63.13
61.61
58.34
54.33
50.67
48.18
47.27
47.77
49.23
51.20
53.35
55.41
57.03
57.70
56.77
53.83
48.88
42.47
35.50
28.78
22.76
17.31
11.93
6.03
-0.65
-8.09
-15.92
-23.67
-30.96
-37.52
-43.21
-48.05
-52.43
-57.09
-63.13
-71.47
-82.31
-94.59
-105.92
-113.17
-113.38
-104.80
-87.53
-63.52
-36.00
-8.45
16.19
36.07
50.45
59.44
63.72
64.28
62.27
58.91
55.37
52.57
51.03
50.83
51.67
53.08
54.57
55.77
56.51
56.75
56.57
56.04
55.05
53.24
50.11
45.22
38.52
30.49
22.05
14.15
7.42
1.87
-3.03
-7.97
-13.51
-19.73
-26.30
-32.73
-38.69
-44.13
-49.30
-54.76
-61.09
-68.76
-77.93
-88.17
-98.33
-106.46
-110.21
-107.34
-96.57
-78.07
-53.83
-27.00
-1.13
20.86
37.33
48.03
53.69
55.42
54.33
51.35
47.31
43.08
39.52
37.36
36.93
38.16
40.55
43.41
46.04
47.88
48.55
47.90
45.95
42.88
39.02
34.69
30.09
25.26
20.06
14.25
7.74
0.62
-6.77
-13.92
-20.34
-25.77
-30.34
-34.49
-38.85
-43.95
-50.27
-58.03
-67.20
-77.30
-87.29
-95.43
-99.60
-97.68
-88.39
-71.90
-49.93
-25.42
-1.54
19.29
35.82
47.95
56.09
60.64
61.73
59.52
54.59
48.11
41.75
37.07
35.04
35.75
38.52
42.30
46.04
48.87
50.29
50.04
48.09
44.64
40.05
34.69
28.90
22.97
17.03
11.20
5.49
-0.18
-5.92
-11.91
-18.29
-25.10
-32.23
-39.57
-46.91
-54.18
-61.48
-69.09
-77.29
-86.07
-94.75
-101.80
-105.13
-102.60
-92.86
-75.91
-53.28
-27.66
-2.20
20.37
38.23
50.71
58.09
61.29
61.35
59.28
55.86
51.82
47.86
44.77
43.15
43.26
44.80
46.98
48.91
49.93
49.94
49.20
48.03
46.50
44.25
40.77
35.64
28.94
21.24
13.39
6.14
-0.15
-5.60
-10.65
-15.79
-21.31
-27.19
-33.21
-39.14
-44.82
-50.35
-56.08
-62.59
-70.40
-79.70
-89.86
-99.36
-105.82
-106.67
-99.99
-85.38
-64.21
-39.31
-13.98
8.88
27.52
41.38
50.75
56.25
58.52
58.13
55.66
51.89
47.77
44.24
42.10
41.70
42.94
45.32
48.15
50.81
52.91
54.25
54.74
54.35
52.90
50.19
46.03
40.38
33.49
25.88
18.29
11.49
6.01
1.80
-1.63
-5.16
-9.68
-15.59
-22.77
-30.53
-37.95
-44.31
-49.36
-53.46
-57.43
-62.34
-69.04
-77.85
-88.28
-98.84
-107.25
-111.05
-108.24
-98.03
-81.07
-59.29
-35.31
-11.68
9.58
27.22
40.61
49.61
54.36
55.32
53.29
49.36
44.76
40.58
37.53
35.97
35.93
37.28
39.80
43.08
46.56
49.58
51.44
51.66
49.98
46.50
41.55
35.59
29.11
22.50
16.05
9.90
4.08
-1.47
-6.93
-12.54
-18.53
-24.97
-31.66
-38.14
-43.87
-48.63
-52.86
-57.70
-64.43
-73.72
-84.92
-95.88
-103.51
-104.88
-98.31
-83.91
-63.42
-39.54
-15.08
7.61
26.90
41.91
52.35
58.40
60.59
59.72
56.74
52.69
48.54
45.15
43.20
42.98
44.41
47.00
50.05
52.83
54.74
55.47
54.89
53.10
50.21
46.35
41.57
35.92
29.52
22.62
15.58
8.77
2.36
-3.75
-9.88
-16.29
-23.02
-29.73
-35.85
-40.94
-44.98
-48.49
-52.44
-57.85
-65.48
-75.47
-87.18
-99.17
-109.36
-115.38
-115.09
-107.17
-91.58
-69.70
-44.10
-17.89
6.10
25.93
40.82
50.89
56.76
59.20
58.93
56.70
53.44
50.15
47.76
46.85
47.51
49.33
51.69
53.98
55.84
57.17
58.00
58.38
58.20
57.18
54.88
50.87
44.93
37.36
28.94
20.72
13.53
7.69
2.80
-1.97
-7.38
-13.84
-21.21
-28.94
-36.33
-42.82
-48.16
-52.55
-56.55
-61.11
-67.28
-75.81
-86.66
-98.64
-109.50
-116.32
-116.52
-108.60
-92.66
-70.39
-44.59
-18.41
5.37
24.87
39.26
48.73
54.13
56.48
56.65
55.24
52.65
49.32
45.95
43.47
42.70
43.98
46.89
50.41
53.43
55.21
55.67
55.16
54.04
52.32
49.62
45.43
39.67
32.80
25.72
19.29
13.89
9.22
4.51
-1.04
-7.74
-15.33
-23.07
-30.20
-36.27
-41.37
-46.04
-51.08
-57.31
-65.28
-75.08
-86.17
-97.17
-106.05
-110.40
-108.15
-98.20
-80.97
-58.29
-32.97
-8.07
13.92
31.39
43.78
51.27
54.58
54.67
52.63
49.50
46.20
43.40
41.55
40.82
41.11
42.16
43.62
45.14
46.44
47.29
47.54
47.02
45.63
43.30
40.04
35.96
31.21
25.97
20.35
14.36
7.90
0.88
-6.63
-14.33
-21.67
-28.17
-33.57
-38.00
-42.05
-46.63
-52.69
-60.84
-70.99
-82.03
-91.95
-98.17
-98.30
-90.97
-76.30
-55.99
-32.74
-9.42
11.71
29.36
43.07
52.69
58.27
59.97
58.26
54.15
49.05
44.38
41.15
39.72
39.88
41.12
42.92
44.87
46.63
47.85
48.18
47.33
45.20
41.89
37.63
32.71
27.26
21.39
15.10
8.38
1.25
-6.23
-13.89
-21.45
-28.49
-34.73
-40.10
-44.94
-49.92
-55.83
-63.23
-72.23
-82.36
-92.52
-101.06
-105.98
-105.30
-97.66
-82.80
-61.97
-37.60
-12.83
9.61
27.88
41.39
50.49
55.96
58.57
58.93
57.60
55.23
52.59
50.50
49.52
49.81
51.07
52.72
54.12
54.86
54.85
54.27
53.30
51.91
49.81
46.52
41.77
35.66
28.72
21.73
15.34
9.74
4.58
-0.79
-6.96
-14.07
-21.66
-28.91
-35.05
-39.84
-43.79
-47.99
-53.68
-61.69
-72.10
-84.16
-96.45
-107.07
-113.98
-115.24
-109.43
-96.06
-75.94
-51.23
-24.98
-0.33
20.39
36.15
47.25
54.68
59.47
62.27
63.30
62.65
60.65
58.03
55.69
54.43
54.60
55.99
57.98
59.88
61.26
61.92
61.92
61.24
59.74
57.09
53.01
47.48
40.87
33.84
27.09
21.13
16.00
11.31
6.42
0.79
-5.89
-13.46
-21.36
-28.89
-35.49
-40.94
-45.46
-49.59
-53.99
-59.26
-65.97
-74.44
-84.67
-95.84
-106.26
-113.37
-114.39
-107.28
-91.65
-69.16
-43.03
-17.04
5.81
24.04
37.67
47.67
55.00
60.09
62.78
62.82
60.42
56.58
52.90
50.84
51.17
53.54
56.80
59.58
61.06
61.17
60.44
59.44
58.38
56.99
54.70
51.08
46.00
39.79
33.05
26.40
20.35
15.06
10.44
6.07
1.50
-3.68
-9.56
-15.88
-22.15
-27.85
-32.77
-37.06
-41.24
-45.91
-51.55
-58.53
-66.99
-76.80
-87.34
-97.33
-104.76
-107.42
-103.42
-92.02
-74.00
-51.54
-27.49
-4.60
15.17
30.89
42.50
50.39
55.05
56.92
56.37
53.84
50.03
45.85
42.35
40.47
40.69
42.84
46.19
49.73
52.62
54.47
55.33
55.47
54.94
53.48
50.60
45.96
39.69
32.39
24.97
18.28
12.79
8.35
4.43
0.22
-4.92
-11.17
-18.16
-25.10
-31.07
-35.59
-38.90
-41.95
-46.05
-52.28
-60.96
-71.52
-82.52
-92.12
-98.45
-99.90
-95.33
-84.37
-67.59
-46.59
-23.73
-1.57
17.74
32.94
43.74
50.50
53.75
54.10
52.11
48.55
44.51
41.19
39.56
40.02
42.19
45.09
47.64
49.04
49.08
48.04
46.51
44.98
43.66
42.33
40.48
37.66
33.57
28.34
22.44
16.46
10.86
5.72
0.80
-4.41
-10.26
-16.88
-24.02
-31.15
-37.64
-42.99
-47.08
-50.29
-53.48
-57.86
-64.50
-73.93
-85.68
-98.17
-108.95
-115.31
-115.02
-107.06
-91.92
-71.44
-48.21
-24.91
-3.65
14.35
28.60
39.17
46.36
50.53
52.11
51.67
49.93
47.70
45.75
44.68
44.80
46.04
48.02
50.08
51.62
52.20
51.84
50.93
49.92
49.05
48.09
46.37
43.14
38.01
31.12
23.27
15.55
8.85
3.64
-0.28
-3.55
-6.93
-11.06
-16.29
-22.58
-29.56
-36.64
-43.24
-48.95
-53.67
-57.75
-61.85
-66.81
-73.38
-81.91
-91.97
-102.15
-110.14
-113.23
-109.24
-97.29
-78.32
-54.93
-30.52
-8.12
10.52
25.07
36.18
44.62
50.71
54.18
54.71
52.42
48.21
43.58
40.04
38.57
39.33
41.78
44.99
48.15
50.72
52.44
53.25
53.16
52.19
50.34
47.63
44.00
39.45
34.02
27.91
21.46
15.15
9.47
4.60
0.50
-3.29
-7.35
-12.20
-17.99
-24.42
-30.87
-36.68
-41.49
-45.45
-49.15
-53.46
-59.13
-66.59
-75.72
-85.98
-96.25
-104.95
-110.12
-109.85
-102.89
-89.11
-69.80
-47.28
-24.23
-2.92
15.26
29.81
40.70
48.05
51.97
52.64
50.58
46.73
42.37
38.73
36.74
36.69
38.33
40.99
43.84
46.18
47.61
48.14
48.06
47.72
47.19
46.22
44.35
41.14
36.57
31.09
25.40
20.14
15.57
11.48
7.30
2.41
-3.56
-10.61
-18.35
-26.11
-33.14
-38.84
-43.10
-46.33
-49.44
-53.53
-59.50
-67.78
-78.11
-89.59
-100.64
-109.21
-113.03
-110.23
-99.91
-82.67
-60.57
-36.58
-13.66
6.13
22.00
34.21
43.46
50.29
54.76
56.73
56.15
53.41
49.46
45.48
42.65
41.71
42.87
45.73
49.52
53.30
56.29
57.99
58.26
57.22
55.18
52.37
48.92
44.87
40.19
34.98
29.51
24.13
19.18
14.74
10.55
6.11
1.01
-4.96
-11.59
-18.42
-24.96
-30.89
-36.18
-41.15
-46.19
-51.68
-57.88
-64.89
-72.83
-81.81
-91.89
-102.72
-113.23
-121.53
-125.25
-122.28
-111.55
-93.55
-70.35
-44.91
-20.17
1.72
19.76
33.88
44.49
52.04
56.84
59.15
59.34
58.05
56.04
54.08
52.72
52.22
52.57
53.69
55.52
57.95
60.78
63.57
65.68
66.46
65.51
62.89
59.01
54.39
49.48
44.50
39.42
34.21
28.83
23.25
17.53
11.69
5.84
0.09
-5.46
-10.81
-16.12
-21.70
-27.76
-34.28
-40.91
-47.19
-52.75
-57.62
-62.32
-67.61
-74.26
-82.71
-92.83
-103.73
-113.78
-120.77
-122.42
-116.97
-103.79
-83.80
-59.22
-32.97
-7.90
13.96
31.63
44.98
54.33
60.17
62.90
63.01
61.16
58.23
55.26
53.24
52.84
54.24
57.13
60.70
64.05
66.41
67.43
67.19
65.98
64.11
61.70
58.77
55.28
51.35
47.19
42.95
38.64
34.05
28.92
23.11
16.80
10.41
4.44
-0.80
-5.35
-9.66
-14.44
-20.19
-27.01
-34.50
-41.86
-48.29
-53.45
-57.60
-61.52
-66.28
-72.72
-81.22
-91.51
-102.60
-112.81
-119.95
-121.67
-116.09
-102.53
-81.88
-56.52
-29.73
-4.66
16.46
32.66
44.16
51.78
56.48
58.93
59.50
58.45
56.21
53.43
50.93
49.56
49.79
51.64
54.60
57.76
60.30
61.68
61.86
61.20
60.16
58.91
57.17
54.37
49.92
43.68
36.07
28.04
20.65
14.65
10.09
6.43
2.81
-1.56
-7.00
-13.38
-20.16
-26.66
-32.34
-36.97
-40.71
-44.09
-47.89
-52.86
-59.58
-68.26
-78.58
-89.63
-99.84
-107.07
-109.08
-104.04
-91.18
-71.32
-46.75
-20.78
3.30
23.09
37.62
47.28
53.20
56.50
57.98
57.95
56.59
54.27
51.63
49.53
48.67
49.40
51.56
54.54
57.60
60.00
61.34
61.51
60.65
58.98
56.72
53.98
50.68
46.66
41.81
36.10
29.77
23.18
16.70
10.62
5.06
-0.03
-4.81
-9.40
-13.95
-18.63
-23.56
-28.87
-34.58
-40.61
-46.85
-53.26
-59.93
-67.13
-75.26
-84.64
-95.24
-106.48
-116.99
-124.70
-127.22
-122.51
-109.70
-89.53
-64.28
-37.19
-11.43
10.71
28.28
41.39
50.64
56.62
59.75
60.40
59.06
56.50
53.60
51.20
49.90
49.92
51.19
53.42
56.19
59.03
61.46
63.09
63.69
63.19
61.58
58.83
54.78
49.30
42.54
34.98
27.40
20.57
14.98
10.63
7.07
3.58
-0.51
-5.65
-11.88
-18.83
-25.88
-32.38
-37.89
-42.37
-46.27
-50.38
-55.58
-62.55
-71.59
-82.45
-94.22
-105.35
-113.72
-117.06
-113.48
-102.15
-83.71
-60.21
-34.64
-10.02
11.29
28.11
40.35
48.61
53.75
56.50
57.32
56.53
54.54
51.96
49.59
48.20
48.27
49.82
52.43
55.37
57.88
59.48
59.96
59.47
58.33
56.82
55.05
52.86
49.90
45.76
40.25
33.51
26.10
18.74
12.13
6.52
1.70
-2.81
-7.63
-13.03
-18.94
-25.01
-30.86
-36.32
-41.53
-46.81
-52.50
-58.81
-65.85
-73.73
-82.53
-92.12
-101.82
-110.05
-114.58
-113.05
-103.86
-86.90
-63.86
-37.73
-11.96
10.56
28.19
40.60
48.40
52.52
53.80
52.85
50.18
46.56
42.94
40.40
39.66
40.88
43.58
46.89
50.01
52.40
53.94
54.63
54.44
53.17
50.54
46.46
41.15
35.14
29.07
23.47
18.61
14.43
10.56
6.40
1.35
-5.02
-12.68
-21.12
-29.38
-36.55
-42.03
-45.92
-48.97
-52.41
-57.50
-65.05
-75.13
-86.71
-97.82
-105.85
-108.14
-102.81
-89.37
-69.09
-44.55
-19.00
4.65
24.38
39.36
49.64
55.73
58.20
57.64
54.69
50.32
45.74
42.27
40.89
41.87
44.68
48.19
51.24
53.11
53.73
53.58
53.20
52.73
51.83
49.82
46.11
40.59
33.68
26.19
18.94
12.48
6.91
1.96
-2.93
-8.29
-14.46
-21.38
-28.68
-35.80
-42.32
-48.21
-53.91
-60.22
-67.95
-77.55
-88.77
-100.55
-111.01
-117.72
-118.36
-111.33
-96.44
-75.11
-50.06
-24.54
-1.36
17.80
32.60
43.59
51.63
57.24
60.49
61.29
59.77
56.71
53.34
50.96
50.44
51.81
54.40
57.19
59.36
60.66
61.24
61.36
61.02
59.86
57.33
53.07
47.13
40.08
32.73
25.81
19.73
14.42
9.49
4.38
-1.42
-8.19
-15.93
-24.28
-32.60
-40.10
-46.16
-50.67
-54.22
-58.16
-63.99
-72.79
-84.53
-97.76
-109.87
-117.77
-118.95
-112.02
-97.24
-76.24
-51.57
-26.07
-2.25
18.11
34.14
45.76
53.50
58.09
60.27
60.61
59.60
57.78
55.81
54.39
54.07
54.98
56.76
58.82
60.52
61.47
61.63
61.15
60.15
58.60
56.29
52.99
48.50
42.94
36.56
29.83
23.29
17.37
12.28
7.83
3.54
-1.29
-7.18
-14.24
-22.08
-29.90
-36.91
-42.70
-47.36
-51.51
-56.06
-61.91
-69.69
-79.48
-90.68
-101.79
-110.64
-114.65
-111.70
-100.75
-82.46
-59.06
-33.74
-9.71
10.75
26.70
38.38
46.56
51.95
54.88
55.39
53.67
50.36
46.64
43.81
42.87
44.07
46.86
50.22
53.14
55.10
56.11
56.45
56.25
55.29
53.04
49.06
43.42
36.72
29.92
23.85
18.74
14.18
9.42
3.81
-2.79
-9.92
-16.85
-23.00
-28.22
-32.81
-37.32
-42.38
-48.46
-55.97
-65.22
-76.23
-88.35
-100.03
-108.81
-111.89
-107.12
-93.85
-73.43
-48.76
-23.36
-0.23
18.92
33.66
44.43
51.85
56.39
58.21
57.55
54.95
51.35
47.87
45.47
44.67
45.39
47.11
49.16
50.98
52.33
53.21
53.77
53.98
53.58
52.05
48.86
43.67
36.74
28.85
21.09
14.40
9.09
4.78
0.46
-4.90
-11.84
-20.19
-29.09
-37.48
-44.56
-50.17
-54.83
-59.47
-65.17
-72.74
-82.46
-93.80
-105.40
-115.08
-120.25
-118.62
-108.92
-91.46
-68.15
-42.07
-16.48
5.97
23.93
37.27
46.70
53.10
57.08
58.92
58.82
57.25
55.01
53.12
52.42
53.12
54.79
56.57
57.70
57.83
57.20
56.35
55.70
55.16
54.07
51.59
47.12
40.74
33.23
25.78
19.35
14.32
10.23
6.12
0.98
-5.72
-13.80
-22.51
-30.90
-38.22
-44.25
-49.26
-53.85
-58.77
-64.76
-72.43
-82.11
-93.53
-105.51
-115.82
-121.60
-120.17
-109.95
-91.27
-66.30
-38.49
-11.42
12.20
30.98
44.70
53.91
59.34
61.61
61.32
59.12
55.93
52.77
50.63
50.08
51.09
53.08
55.27
57.05
58.22
59.02
59.76
60.50
60.86
60.07
57.39
52.47
45.57
37.40
28.92
20.97
14.06
8.30
3.38
-1.25
-6.20
-11.95
-18.62
-25.93
-33.33
-40.14
-45.88
-50.40
-53.99
-57.35
-61.35
-66.85
-74.44
-84.11
-95.07
-105.56
-113.13
-115.25
-110.03
-96.90
-76.87
-52.30
-26.25
-1.62
19.42
35.75
47.15
54.02
57.03
56.92
54.43
50.30
45.30
40.17
35.66
32.46
31.11
31.84
34.41
38.15
42.02
44.92
46.07
45.09
42.13
37.62
32.05
25.76
18.87
11.39
3.40
-4.79
-12.61
-19.49
-25.08
-29.53
-33.44
-37.72
-43.24
-50.54
-59.67
-70.23
-81.33
-91.73
-99.74
-103.46
-101.16
-91.80
-75.54
-53.97
-29.85
-6.30
14.08
29.91
41.20
48.84
53.89
56.94
57.90
56.44
52.66
47.42
42.20
38.51
37.20
38.08
40.17
42.31
43.73
44.28
44.15
43.58
42.44
40.37
36.90
31.67
24.68
16.31
7.19
-1.87
-10.05
-16.86
-22.34
-27.07
-32.01
-38.14
-46.16
-56.28
-68.16
-80.84
-92.75
-101.72
-105.32
-101.55
-89.53
-70.13
-45.86
-20.17
3.67
23.48
38.53
49.30
56.76
61.75
64.62
65.36
63.93
60.67
56.36
52.09
48.88
47.31
47.32
48.33
49.49
50.04
49.57
48.03
45.65
42.72
39.40
35.65
31.16
25.59
18.69
10.49
1.37
-7.95
-16.78
-24.67
-31.60
-37.95
-44.27
-51.04
-58.68
-67.46
-77.64
-89.24
-101.65
-113.26
-121.45
-123.22
-116.25
-99.97
-76.06
-47.97
-19.78
5.15
25.05
39.83
50.35
57.66
62.37
64.62
64.38
62.00
58.27
54.38
51.45
50.19
50.69
52.46
54.74
56.70
57.73
57.45
55.79
52.88
49.04
44.57
39.73
34.62
29.17
23.17
16.45
8.97
0.90
-7.40
-15.51
-23.09
-30.01
-36.36
-42.48
-48.91
-56.32
-65.40
-76.44
-88.86
-100.96
-110.08
-113.29
-108.44
-95.01
-74.37
-49.34
-23.30
0.92
21.58
38.05
50.47
59.30
64.87
67.46
67.41
65.26
61.80
57.93
54.55
52.32
51.56
52.18
53.66
55.30
56.31
56.05
54.24
50.98
46.71
41.95
37.10
32.23
27.09
21.31
14.66
7.19
-0.83
-8.97
-16.85
-24.19
-30.91
-37.03
-42.86
-48.83
-55.56
-63.66
-73.45
-84.59
-95.85
-105.16
-109.95
-107.97
-98.03
-80.61
-57.76
-32.57
-8.19
13.02
29.91
42.43
51.06
56.33
58.54
58.00
55.22
51.13
46.92
43.73
42.25
42.53
44.03
45.88
47.16
47.28
46.07
43.89
41.34
38.94
36.76
34.37
31.01
25.95
18.93
10.34
1.04
-7.96
-15.94
-22.68
-28.45
-33.85
-39.63
-46.56
-55.28
-65.85
-77.58
-88.79
-97.09
-99.95
-95.60
-83.64
-65.18
-42.52
-18.40
4.69
24.99
41.56
54.01
62.28
66.41
66.58
63.37
57.77
51.23
45.30
41.23
39.58
40.15
42.11
44.30
45.71
45.70
44.16
41.45
38.10
34.56
30.98
27.21
22.75
17.17
10.25
2.19
-6.44
-14.83
-22.34
-28.71
-34.16
-39.34
-45.03
-51.94
-60.49
-70.69
-82.05
-93.45
-103.10
-108.79
-108.29
-100.07
-83.94
-61.37
-35.18
-8.70
15.11
34.39
48.55
57.86
63.03
64.76
63.74
60.72
56.63
52.48
49.13
47.10
46.34
46.52
47.15
47.89
48.59
49.15
49.36
48.84
47.11
43.81
38.92
32.83
26.19
19.59
13.33
7.33
1.23
-5.32
-12.57
-20.35
-28.28
-35.77
-42.34
-47.83
-52.55
-57.28
-63.03
-70.66
-80.42
-91.69
-102.85
-111.50
-115.14
-111.70
-100.35
-81.66
-57.65
-31.16
-5.12
18.13
37.27
51.86
62.09
68.31
70.92
70.41
67.48
63.09
58.43
54.52
51.99
50.99
51.11
51.79
52.47
52.90
53.07
53.18
53.31
53.24
52.39
50.01
45.49
38.69
30.22
21.23
13.04
6.55
1.93
-1.52
-4.96
-9.47
-15.57
-23.04
-31.03
-38.53
-44.74
-49.43
-52.98
-56.31
-60.59
-66.96
-76.14
-87.94
-101.07
-113.11
-121.14
-122.51
-115.72
-100.84
-79.54
-54.45
-28.53
-4.30
16.48
33.01
45.19
53.40
58.24
60.17
59.65
57.20
53.51
49.51
46.18
44.21
43.74
44.40
45.49
46.39
46.83
46.92
46.86
46.65
45.94
44.06
40.41
34.81
27.70
20.03
12.81
6.72
1.71
-2.81
-7.68
-13.48
-20.27
-27.54
-34.58
-40.76
-45.82
-50.03
-54.07
-58.92
-65.52
-74.43
-85.33
-96.73
-106.14
-110.60
-107.76
-96.77
-78.59
-55.65
-30.95
-7.15
14.07
31.90
46.13
56.65
63.31
66.01
65.08
61.36
56.21
51.11
47.25
45.22
45.02
46.14
47.86
49.52
50.71
51.30
51.35
50.96
50.10
48.56
45.92
41.73
35.80
28.43
20.45
12.91
6.61
1.67
-2.61
-7.37
-13.60
-21.52
-30.40
-38.87
-45.66
-50.23
-53.07
-55.48
-59.01
-64.83
-73.43
-84.54
-97.14
-109.57
-119.63
-124.82
-122.94
-112.69
-94.29
-69.59
-41.72
-14.17
10.16
29.66
44.07
54.06
60.53
64.05
64.83
63.00
59.09
54.16
49.64
46.85
46.45
48.23
51.26
54.43
56.88
58.32
58.86
58.70
57.87
56.14
53.21
48.87
43.20
36.62
29.71
23.09
17.21
12.24
7.98
3.97
-0.42
-5.72
-12.15
-19.48
-27.12
-34.41
-40.88
-46.51
-51.65
-56.84
-62.59
-69.27
-77.05
-86.02
-96.12
-106.83
-116.84
-124.05
-125.96
-120.44
-106.69
-85.68
-59.99
-33.01
-7.83
13.58
30.58
43.54
53.18
60.02
64.12
65.36
63.81
60.17
55.82
52.42
51.23
52.57
55.63
58.92
61.03
61.31
60.14
58.51
57.33
56.84
56.47
55.15
51.99
46.70
39.72
31.99
24.53
18.02
12.59
7.76
2.71
-3.35
-10.82
-19.43
-28.33
-36.45
-42.91
-47.45
-50.51
-53.05
-56.19
-60.94
-68.00
-77.62
-89.45
-102.34
-114.22
-122.39
-124.08
-117.35
-101.88
-79.15
-52.08
-24.20
1.44
22.89
39.46
51.38
59.32
63.90
65.62
64.93
62.39
58.75
54.88
51.57
49.37
48.54
49.01
50.49
52.59
54.93
57.15
58.91
59.81
59.41
57.24
53.01
46.83
39.30
31.45
24.28
18.34
13.38
8.54
2.72
-4.81
-13.93
-23.81
-33.22
-41.09
-46.95
-51.07
-54.31
-57.87
-62.99
-70.66
-81.19
-93.82
-106.57
-116.52
-120.60
-116.57
-103.78
-83.41
-58.00
-30.61
-4.07
19.55
38.97
53.60
63.33
68.48
69.66
67.82
64.02
59.24
54.36
50.09
47.00
45.41
45.40
46.72
48.91
51.40
53.71
55.37
56.02
55.32
52.95
48.79
42.95
35.89
28.25
20.62
13.29
6.17
-1.06
-8.80
-17.08
-25.61
-33.78
-41.07
-47.20
-52.38
-57.25
-62.62
-69.24
-77.48
-87.14
-97.19
-105.86
-110.84
-109.82
-101.24
-84.94
-62.40
-36.43
-10.32
13.19
32.50
47.12
57.22
63.10
64.86
62.66
57.18
49.78
42.44
37.13
35.10
36.43
40.17
44.76
48.66
50.88
51.02
49.24
46.06
42.07
37.82
33.64
29.51
25.07
19.79
13.20
5.17
-3.92
-13.30
-22.07
-29.58
-35.74
-41.13
-46.77
-53.79
-62.94
-74.15
-86.33
-97.50
-105.22
-107.18
-101.83
-88.80
-69.01
-44.51
-18.06
7.45
29.61
46.84
58.53
64.93
66.89
65.52
61.90
57.03
51.76
46.95
43.31
41.33
41.08
42.15
43.88
45.54
46.66
46.96
46.41
45.00
42.64
39.17
34.39
28.28
20.99
12.95
4.77
-3.00
-9.96
-16.02
-21.40
-26.52
-31.96
-38.30
-46.07
-55.62
-66.99
-79.66
-92.24
-102.59
-108.05
-106.25
-95.99
-77.75
-53.73
-27.13
-1.29
21.29
39.33
52.61
61.61
66.96
69.21
68.75
66.05
61.82
56.98
52.52
49.22
47.48
47.23
48.06
49.40
50.67
51.38
51.18
49.93
47.67
44.55
40.73
36.20
30.79
24.25
16.48
7.63
-1.81
-11.13
-19.63
-26.90
-32.92
-38.05
-42.85
-48.00
-54.09
-61.67
-71.06
-82.13
-94.02
-104.97
-112.53
-114.14
-107.88
-93.25
-71.51
-45.32
-18.06
7.15
28.27
44.52
56.14
63.82
68.24
69.78
68.68
65.33
60.48
55.23
50.76
47.94
47.07
47.85
49.56
51.42
52.79
53.25
52.59
50.64
47.35
42.75
37.03
30.52
23.57
16.43
9.26
2.06
-5.14
-12.30
-19.19
-25.57
-31.33
-36.56
-41.66
-47.24
-54.02
-62.57
-73.00
-84.70
-96.22
-105.42
-109.88
-107.57
-97.46
-79.87
-56.54
-30.15
-3.75
20.00
39.39
53.72
63.23
68.62
70.70
70.12
67.39
63.03
57.81
52.78
49.12
47.68
48.65
51.36
54.63
57.18
58.17
57.38
55.02
51.41
46.68
40.77
33.71
25.86
17.94
10.81
4.89
-0.08
-5.01
-10.81
-17.87
-25.78
-33.61
-40.51
-46.27
-51.44
-57.10
-64.26
-73.46
-84.42
-96.01
-106.36
-113.11
-113.86
-106.83
-91.54
-69.16
-42.43
-14.88
10.16
30.45
45.25
54.98
60.62
63.15
63.26
61.42
58.22
54.41
50.94
48.64
47.88
48.54
50.13
52.08
53.93
55.39
56.17
55.91
54.24
50.89
45.93
39.75
33.04
26.41
20.29
14.72
9.43
3.94
-2.23
-9.30
-17.16
-25.29
-32.97
-39.44
-44.31
-47.76
-50.68
-54.41
-60.37
-69.38
-81.10
-93.87
-104.93
-111.13
-109.88
-100.01
-82.14
-58.49
-32.21
-6.52
16.10
34.21
47.41
55.93
60.36
61.32
59.46
55.52
50.37
45.03
40.50
37.55
36.51
37.23
39.13
41.41
43.33
44.32
44.14
42.82
40.55
37.52
33.79
29.27
23.85
17.53
10.47
3.04
-4.38
-11.54
-18.29
-24.62
-30.53
-36.03
-41.18
-46.22
-51.61
-57.91
-65.65
-74.88
-84.95
-94.31
-100.69
-101.65
-95.42
-81.54
-61.19
-37.00
-12.17
10.38
28.70
42.02
50.55
55.02
56.34
55.41
53.07
50.12
47.23
44.90
43.46
43.04
43.65
45.15
47.27
49.56
51.42
52.20
51.41
48.83
44.59
39.17
33.21
27.30
21.78
16.62
11.53
6.09
0.01
-6.72
-13.86
-20.98
-27.73
-33.95
-39.75
-45.46
-51.52
-58.48
-66.78
-76.61
-87.53
-98.22
-106.59
-110.15
-106.83
-95.75
-77.61
-54.54
-29.44
-5.13
16.29
33.74
46.87
55.85
61.02
62.83
61.87
58.92
54.91
50.86
47.65
45.90
45.82
47.21
49.53
52.07
54.15
55.24
55.07
53.60
51.01
47.54
43.37
38.63
33.39
27.64
21.52
15.23
9.00
3.00
-2.83
-8.75
-15.07
-21.92
-29.08
-36.05
-42.25
-47.45
-51.94
-56.54
-62.29
-70.01
-79.95
-91.51
-103.17
-112.64
-117.31
-114.92
-104.33
-85.95
-61.88
-35.30
-9.50
12.97
30.88
44.15
53.29
58.87
61.24
60.70
57.90
53.87
49.98
47.46
47.00
48.56
51.48
54.75
57.40
58.87
59.05
58.13
56.50
54.38
51.70
48.26
43.79
38.27
32.00
25.51
19.21
13.27
7.52
1.66
-4.50
-10.96
-17.49
-23.75
-29.44
-34.34
-38.47
-42.09
-45.69
-49.99
-55.70
-63.39
-73.14
-84.35
-95.71
-105.26
-110.73
-110.09
-102.08
-86.72
-65.49
-41.00
-16.28
5.99
24.13
37.59
46.70
52.19
54.78
55.07
53.59
50.99
48.07
45.62
44.25
44.10
44.93
46.27
47.69
48.85
49.60
49.81
49.37
48.02
45.52
41.75
36.78
30.87
24.40
17.74
11.08
4.49
-2.05
-8.57
-15.02
-21.26
-27.13
-32.47
-37.33
-41.92
-46.68
-52.19
-59.07
-67.71
-77.88
-88.49
-97.52
-102.48
-101.13
-92.29
-76.35
-55.24
-31.73
-8.61
12.09
29.24
42.56
52.07
57.86
59.94
58.52
54.19
48.06
41.54
36.09
32.89
32.49
34.70
38.65
43.07
46.67
48.50
48.19
45.95
42.41
38.20
33.74
29.13
24.24
18.88
12.89
6.30
-0.79
-8.19
-15.63
-22.78
-29.31
-35.06
-40.13
-44.94
-50.18
-56.52
-64.41
-73.85
-84.17
-94.01
-101.39
-104.18
-100.57
-89.71
-72.15
-49.70
-25.03
-0.90
20.44
37.57
49.93
57.55
60.87
60.57
57.52
52.72
47.25
42.14
38.30
36.32
36.36
38.22
41.26
44.62
47.46
49.14
49.30
47.85
44.87
40.55
35.21
29.19
22.92
16.68
10.61
4.56
-1.72
-8.45
-15.71
-23.35
-31.02
-38.30
-44.87
-50.62
-55.85
-61.19
-67.48
-75.41
-85.00
-95.37
-104.54
-110.05
-109.59
-101.80
-86.74
-65.93
-41.81
-17.11
5.89
25.70
41.59
53.36
61.05
64.86
65.16
62.70
58.58
54.01
50.07
47.41
46.12
45.91
46.31
46.95
47.59
48.09
48.23
47.71
46.17
43.35
39.23
34.07
28.32
22.40
16.54
10.71
4.69
-1.77
-8.69
-15.80
-22.64
-28.79
-34.11
-38.81
-43.38
-48.41
-54.52
-62.20
-71.72
-82.78
-94.19
-103.77
-108.75
-106.63
-96.13
-77.85
-54.12
-28.18
-3.13
18.86
36.71
50.17
59.33
64.35
65.55
63.57
59.46
54.61
50.30
47.43
46.30
46.60
47.69
48.88
49.61
49.67
49.03
47.78
45.98
43.58
40.49
36.64
32.10
27.06
21.69
16.10
10.28
4.05
-2.75
-10.15
-17.96
-25.68
-32.67
-38.39
-42.67
-45.93
-49.21
-53.85
-60.92
-70.67
-82.18
-93.34
-101.36
-103.57
-98.14
-84.74
-64.60
-40.25
-14.79
8.84
28.51
43.17
52.73
57.75
59.10
57.62
54.09
49.28
44.07
39.34
35.95
34.40
34.73
36.57
39.21
41.84
43.72
44.31
43.41
41.08
37.58
33.21
28.23
22.72
16.65
9.97
2.80
-4.53
-11.63
-18.19
-24.17
-29.81
-35.47
-41.49
-48.10
-55.57
-64.08
-73.64
-83.67
-92.75
-98.69
-99.10
-92.23
-77.79
-57.17
-33.06
-8.57
13.66
31.94
45.58
54.58
59.31
60.26
58.07
53.59
47.88
42.18
37.68
35.21
35.06
36.86
39.76
42.64
44.58
45.11
44.32
42.62
40.36
37.61
34.01
29.09
22.60
14.77
6.31
-1.87
-9.15
-15.39
-21.03
-26.68
-32.83
-39.64
-47.05
-55.03
-63.78
-73.51
-84.05
-94.39
-102.53
-105.93
-102.29
-90.51
-71.27
-46.94
-20.83
3.87
24.86
41.17
52.89
60.67
65.13
66.65
65.47
61.91
56.66
50.76
45.40
41.55
39.66
39.58
40.66
42.05
43.03
43.14
42.28
40.54
38.06
34.83
30.69
25.39
18.76
10.89
2.26
-6.34
-14.07
-20.37
-25.30
-29.48
-34.01
-40.02
-48.31
-58.95
-71.23
-83.61
-94.02
-100.20
-100.18
-92.78
-77.98
-57.05
-32.38
-6.87
16.76
36.53
51.43
61.34
66.65
67.92
65.77
60.92
54.28
47.14
40.91
36.70
34.96
35.25
36.46
37.38
37.28
36.11
34.40
32.71
31.15
29.24
26.08
20.94
13.69
4.99
-4.01
-12.22
-19.05
-24.60
-29.55
-34.79
-41.06
-48.77
-57.95
-68.25
-78.80
-88.20
-94.50
-95.53
-89.54
-75.90
-55.55
-30.96
-5.43
17.78
36.34
49.28
56.83
59.94
59.74
57.14
52.91
47.72
42.45
38.04
35.25
34.39
35.03
36.29
37.17
37.11
36.07
34.37
32.27
29.66
26.17
21.31
14.99
7.62
-0.01
-7.11
-13.31
-18.78
-24.24
-30.62
-38.68
-48.69
-60.16
-71.82
-81.60
-87.16
-86.42
-78.21
-62.74
-41.60
-17.35
7.11
29.22
47.19
60.06
67.60
70.05
67.96
62.33
54.50
46.16
38.89
33.81
31.17
30.43
30.56
30.62
30.12
29.11
27.92
26.80
25.63
23.80
20.62
15.63
8.87
0.97
-7.12
-14.52
-20.72
-25.84
-30.58
-35.89
-42.67
-51.41
-61.93
-73.16
-83.27
-89.90
-90.73
-84.13
-69.79
-48.95
-24.18
1.31
24.61
43.63
57.46
66.02
69.69
69.01
64.66
57.58
49.19
41.10
34.78
31.09
30.05
30.92
32.56
33.99
