1520861865.00
64.000000
-0.00
-0.00
-0.00
-0.00
-0.00
-0.00
-0.00
-0.00
-0.00
-0.00
0.00
0.01
0.01
-0.00
-0.03
-0.05
-0.05
0.00
0.13
0.36
0.66
1.01
1.37
1.72
2.06
2.40
2.79
3.24
3.80
4.42
5.06
5.66
6.20
6.68
7.15
7.68
8.31
9.14
10.09
11.04
11.88
12.56
13.14
13.76
14.65
15.96
17.91
20.32
22.90
25.38
27.58
29.57
31.68
34.32
37.81
42.54
48.15
54.10
59.83
64.97
69.58
74.14
79.34
85.71
93.76
103.00
112.62
121.73
129.77
136.75
143.30
150.75
157.77
166.64
177.95
191.79
206.97
220.57
228.25
225.36
208.53
176.87
132.76
80.05
23.07
-34.94
-92.44
-149.16
-205.23
-260.37
-313.74
-363.87
-409.83
-450.91
-486.50
-515.74
-537.23
-549.22
-549.96
-538.37
-514.21
-478.67
-433.88
-382.45
-327.02
-269.84
-212.63
-156.66
-102.95
-52.37
-5.90
35.58
71.43
101.35
125.50
144.38
158.69
169.15
176.37
180.75
182.57
182.07
179.51
175.23
169.65
163.18
156.15
148.81
141.30
133.69
126.02
118.33
110.69
103.16
95.80
88.68
81.83
75.25
68.95
62.95
57.25
51.86
46.78
42.03
37.59
33.45
29.61
26.07
22.81
19.83
17.11
14.67
12.48
10.54
8.83
7.35
6.07
4.97
4.05
3.27
2.62
2.09
1.65
1.30
1.01
0.79
0.61
0.48
0.37
0.28
0.22
0.18
0.14
0.11
0.09
0.08
0.08
0.08
0.08
0.09
0.11
0.13
0.16
0.18
0.22
0.26
0.30
0.34
0.39
0.43
0.48
0.53
0.58
0.64
0.70
0.76
0.83
0.90
0.99
1.07
1.17
1.28
1.41
1.55
1.70
1.87
2.06
2.28
2.51
2.77
3.06
3.37
3.72
4.10
4.51
4.96
5.44
5.97
6.53
7.14
7.80
8.49
9.24
10.03
10.88
11.77
12.71
13.70
14.76
15.89
17.07
18.33
19.62
20.96
22.27
23.51
24.59
25.44
25.92
25.93
25.39
24.21
22.38
19.88
16.80
13.19
9.22
5.06
0.89
-3.11
-6.74
-9.87
-12.41
-14.30
-15.56
-16.24
-16.45
-16.32
-15.93
-15.35
-14.62
-13.74
-12.75
-11.69
-10.58
-9.54
-8.62
-7.80
-7.02
-6.18
-5.18
-3.96
-2.52
-0.88
0.76
2.30
3.75
5.23
6.93
9.02
11.56
14.47
17.60
20.43
22.68
24.34
25.69
27.16
29.18
31.93
35.28
38.86
41.78
43.50
44.05
44.01
44.33
45.85
48.97
53.42
58.39
62.20
63.70
62.49
58.93
53.80
47.68
40.19
29.46
16.80
0.97
-19.58
-46.08
-78.73
-116.05
-154.62
-189.38
-214.65
-225.60
-220.65
-201.49
-172.97
-141.53
-113.03
-91.00
-75.87
-65.67
-57.48
-49.54
-41.38
-33.67
-27.41
-23.10
-20.29
-17.95
-14.99
-10.91
-6.39
-2.41
0.23
1.38
1.68
2.11
3.50
5.92
8.43
9.32
7.07
1.10
-7.86
-17.89
-26.68
-32.36
-34.09
-32.14
-27.58
-21.63
-15.17
-8.56
-1.76
5.38
12.83
20.34
27.47
33.94
39.76
45.22
50.67
56.25
61.68
66.41
69.85
71.69
72.03
71.20
69.52
67.11
63.93
59.92
55.22
50.28
45.59
41.62
38.54
36.17
34.09
31.83
29.05
25.61
21.54
16.98
12.02
6.67
0.93
-5.07
-10.87
-15.63
-18.26
-17.79
-13.83
-6.80
2.09
11.32
19.56
26.12
31.02
34.67
37.49
39.68
41.20
41.97
42.19
42.26
42.65
43.60
45.00
46.41
47.32
47.31
46.16
43.84
40.43
36.06
30.90
25.08
18.64
11.64
4.11
-3.68
-11.26
-17.95
-23.19
-26.76
-28.98
-30.59
-32.41
-34.99
-38.36
-42.15
-45.82
-48.93
-51.24
-52.63
-52.99
-52.17
-50.00
-46.48
-41.86
-36.63
-31.36
-26.57
-22.59
-19.55
-17.42
-16.05
-15.19
-14.51
-13.76
-12.72
-11.32
-9.60
-7.68
-5.69
-3.76
-2.02
-0.61
0.33
0.67
0.25
-0.96
-2.96
-5.61
-8.73
-12.03
-15.24
-18.08
-20.35
-22.03
-23.37
-24.87
-27.22
-31.13
-37.06
-44.95
-54.13
-63.37
-71.27
-76.69
-79.13
-78.95
-77.14
-74.97
-73.52
-73.40
-74.81
-77.61
-81.67
-86.87
-93.12
-100.18
-107.62
-114.84
-121.31
-126.85
-131.79
-136.88
-143.06
-150.99
-160.62
-171.09
-180.97
-188.80
-193.67
-195.45
-194.66
-191.96
-187.65
-181.32
-171.94
-158.25
-139.28
-114.67
-84.70
-50.14
-12.17
27.75
67.75
105.76
139.72
168.15
190.57
207.70
221.09
232.27
241.82
248.95
252.00
249.55
241.62
230.10
218.06
208.34
202.27
199.24
197.27
194.23
188.95
181.50
172.74
163.48
153.96
143.82
132.53
119.99
106.76
93.92
82.62
73.62
66.91
61.69
56.63
50.44
42.32
32.36
21.32
10.32
0.19
-8.77
-16.76
-24.21
-31.37
-38.15
-44.18
-48.87
-51.49
-51.20
-47.03
-38.22
-24.43
-6.07
15.68
39.22
62.92
85.53
106.30
124.85
140.92
154.23
164.54
171.80
176.30
178.55
179.17
178.66
177.20
174.74
171.12
166.30
160.45
153.88
146.93
139.80
132.53
125.05
117.34
109.57
102.01
94.98
88.71
83.29
78.82
75.41
73.30
72.72
73.64
75.55
77.41
77.90
75.85
70.71
62.85
53.48
44.21
36.45
30.94
27.37
24.67
21.33
16.03
8.03
-2.73
-15.65
-29.91
-44.69
-59.45
-73.93
-88.03
-101.65
-114.50
-126.14
-136.15
-144.33
-150.86
-156.30
-161.36
-166.60
-172.18
-177.76
-182.64
-186.05
-187.43
-186.58
-183.71
-179.31
-174.04
-168.50
-163.22
-158.52
-154.48
-151.01
-147.78
-144.27
-139.88
-134.01
-126.26
-116.53
-105.21
-93.02
-80.86
-69.54
-59.46
-50.65
-42.95
-36.27
-30.80
-26.92
-24.93
-24.78
-26.05
-28.15
-30.55
-32.97
-35.43
-37.96
-40.50
-42.75
-44.32
-44.98
-44.80
-44.20
-43.66
-43.57
-44.02
-44.83
-45.65
-46.09
-45.96
-45.32
-44.51
-44.01
-44.28
-45.47
-47.31
-49.06
-49.80
-48.63
-45.06
-39.12
-31.37
-22.62
-13.76
-5.51
1.70
7.68
12.37
15.87
18.31
19.82
20.59
20.83
20.74
20.52
20.24
19.93
19.56
19.06
18.41
17.65
16.82
15.92
14.88
13.56
11.84
9.73
7.32
4.76
2.19
-0.45
-3.27
-6.47
-10.28
-14.76
-19.88
-25.43
-31.05
-36.12
-39.95
-41.74
-40.91
-37.28
-31.14
-23.33
-14.89
-6.84
0.13
5.73
10.07
13.37
15.86
17.69
18.95
19.75
20.32
20.90
21.69
22.73
23.87
24.89
25.55
25.68
25.21
24.12
22.44
20.25
17.71
15.03
12.37
9.81
7.28
4.64
1.77
-1.41
-4.98
-8.98
-13.44
-18.28
-23.11
-27.25
-29.80
-29.91
-27.12
-21.60
-14.09
-5.69
2.53
9.79
15.80
20.58
24.30
27.07
28.83
29.42
28.67
26.67
23.74
20.43
17.36
14.98
13.51
12.96
13.17
13.93
15.00
16.07
16.76
16.66
15.44
12.91
9.19
4.59
-0.39
-5.23
-9.62
-13.51
-17.21
-21.20
-25.92
-31.48
-37.47
-43.00
-46.93
-48.25
-46.46
-41.77
-35.01
-27.28
-19.63
-12.79
-7.11
-2.59
0.86
3.33
4.83
5.37
5.03
4.14
3.05
2.12
1.55
1.27
1.04
0.56
-0.35
-1.66
-3.22
-4.79
-6.25
-7.57
-9.00
-10.88
-13.62
-17.44
-22.25
-27.63
-32.96
-37.88
-42.45
-47.37
-53.56
-61.64
-71.42
-81.72
-90.67
-96.44
-97.98
-95.45
-90.25
-84.56
-80.76
-80.75
-85.41
-94.42
-106.02
-117.34
-124.99
-125.97
-118.63
-103.18
-81.69
-57.18
-32.47
-9.08
13.39
36.89
63.79
95.28
130.13
164.38
192.25
207.84
207.17
189.65
158.33
119.11
78.93
43.89
17.77
1.54
-6.20
-8.20
-7.41
-6.19
-6.03
-7.62
-11.10
-16.27
-22.55
-28.94
-34.05
-36.39
-34.80
-28.80
-18.87
-6.21
7.62
21.13
33.24
43.42
51.71
58.50
64.52
70.40
76.60
83.23
90.03
96.50
102.10
106.43
109.31
110.92
111.74
112.43
113.73
116.25
120.32
125.88
132.47
139.24
145.22
149.49
151.49
151.20
149.16
146.37
144.04
143.27
144.71
148.45
153.84
159.70
164.48
166.48
164.11
156.17
142.17
122.54
98.69
72.72
46.92
23.05
2.02
-16.09
-31.63
-44.90
-55.78
-63.70
-68.01
-68.40
-65.23
-59.59
-52.98
-46.98
-42.93
-41.86
-44.37
-50.65
-60.30
-72.21
-84.68
-95.71
-103.50
-106.99
-106.14
-102.03
-96.48
-91.37
-88.09
-87.00
-87.38
-87.75
-86.54
-82.80
-76.57
-68.98
-61.54
-55.53
-51.34
-48.38
-45.40
-41.24
-35.42
-28.35
-21.23
-15.43
-11.99
-11.19
-12.47
-14.77
-16.95
-18.34
-18.96
-19.56
-21.13
-24.45
-29.71
-36.55
-44.38
-52.74
-61.50
-70.65
-79.95
-88.57
-95.19
-98.32
-96.96
-91.00
-81.30
-69.36
-56.76
-44.75
-33.95
-24.47
-16.09
-8.60
-1.89
3.97
8.83
12.57
15.20
16.85
17.87
18.60
19.35
20.26
21.25
22.02
22.18
21.45
19.81
17.56
15.16
13.05
11.33
9.64
7.23
3.22
-2.90
-10.96
-20.03
-28.60
-35.06
-38.20
-37.56
-33.52
-27.03
-19.27
-11.27
-3.75
2.87
8.41
12.82
16.15
18.54
20.19
21.35
22.28
23.18
24.20
25.34
26.50
27.55
28.23
28.36
27.78
26.37
24.10
20.99
17.17
12.88
8.39
4.00
-0.10
-3.86
-7.38
-10.86
-14.51
-18.51
-22.93
-27.75
-32.72
-37.31
-40.76
-42.22
-41.00
-36.87
-30.15
-21.75
-12.81
-4.39
2.83
8.67
13.31
17.11
20.31
23.00
25.08
26.51
27.36
27.86
28.25
28.70
29.15
29.41
29.26
28.63
27.58
26.24
24.70
22.89
20.63
17.76
14.34
10.62
6.97
3.73
0.96
-1.58
-4.36
-7.84
-12.33
-17.72
-23.52
-28.93
-32.97
-34.79
-33.87
-30.15
-24.07
-16.47
-8.36
-0.60
6.12
11.49
15.48
18.23
20.04
21.25
22.21
23.18
24.35
25.70
27.09
28.22
28.78
28.62
27.77
26.52
25.24
24.20
23.40
22.59
21.35
19.35
16.55
13.19
9.75
6.66
4.10
1.96
-0.10
-2.47
-5.47
-9.21
-13.61
-18.38
-23.06
-27.07
-29.78
-30.64
-29.36
-26.00
-21.04
-15.22
-9.29
-3.86
0.83
4.85
8.46
11.86
15.00
17.57
19.19
19.67
19.15
18.18
17.46
17.52
18.48
19.96
21.36
22.12
22.07
21.39
20.43
19.45
18.36
16.77
14.21
10.49
5.83
0.86
-3.70
-7.31
-9.95
-12.03
-14.25
-17.28
-21.46
-26.68
-32.45
-38.03
-42.54
-45.11
-44.95
-41.57
-34.90
-25.53
-14.61
-3.56
6.32
14.23
19.98
23.82
26.23
27.55
28.01
27.82
27.33
27.03
27.38
28.58
30.34
32.03
32.96
32.69
31.29
29.22
27.10
25.35
24.01
22.78
21.20
18.94
15.93
12.37
8.60
4.97
1.73
-1.00
-3.22
-5.10
-6.93
-9.12
-12.04
-15.86
-20.46
-25.31
-29.62
-32.56
-33.49
-32.21
-28.94
-24.23
-18.72
-12.95
-7.27
-1.81
3.39
8.26
12.56
15.96
18.16
19.08
18.94
18.29
17.77
17.86
18.71
20.15
21.75
23.08
23.87
24.06
23.79
23.20
22.40
21.36
19.98
18.15
15.84
13.17
10.32
7.53
5.00
2.78
0.83
-1.02
-3.00
-5.32
-8.14
-11.51
-15.40
-19.57
-23.62
-26.98
-29.04
-29.36
-27.74
-24.36
-19.67
-14.20
-8.48
-2.86
2.38
7.01
10.83
13.64
15.32
15.86
15.48
14.54
13.51
12.83
12.77
13.35
14.34
15.36
16.07
16.30
16.08
15.58
14.99
14.30
13.37
11.96
9.90
7.18
4.04
0.78
-2.27
-4.92
-7.14
-9.04
-10.78
-12.54
-14.49
-16.71
-19.26
-22.08
-24.88
-27.23
-28.55
-28.33
-26.34
-22.72
-18.00
-12.90
-8.07
-3.94
-0.63
1.96
4.04
5.71
7.04
8.03
8.73
9.29
9.90
10.68
11.63
12.55
13.21
13.44
13.22
12.69
12.02
11.33
10.56
9.59
8.26
6.49
4.38
2.07
-0.26
-2.48
-4.54
-6.47
-8.41
-10.54
-12.98
-15.65
-18.30
-20.44
-21.49
-21.06
-19.01
-15.56
-11.24
-6.63
-2.29
1.47
4.55
6.99
8.84
10.15
10.92
11.18
11.08
10.84
10.69
10.83
11.26
11.85
12.40
12.80
13.05
13.29
13.66
14.21
14.87
15.40
15.60
15.32
14.59
13.52
12.28
10.98
9.62
8.13
6.33
4.01
0.94
-3.02
-7.81
-13.09
-18.17
-22.21
-24.43
-24.44
-22.35
-18.72
-14.36
-9.97
-5.98
-2.52
0.44
2.97
5.02
6.54
7.49
7.99
8.29
8.64
9.21
9.93
10.59
10.87
10.59
9.73
8.44
6.98
5.59
4.39
3.39
2.48
1.49
0.21
-1.48
-3.58
-5.89
-8.17
-10.17
-11.77
-13.09
-14.37
-15.89
-17.87
-20.37
-23.30
-26.38
-29.15
-31.06
-31.53
-30.23
-27.13
-22.64
-17.50
-12.45
-8.04
-4.46
-1.62
0.74
2.76
4.51
5.96
7.10
7.99
8.75
9.50
10.25
10.92
11.37
11.49
11.31
10.92
10.47
10.02
9.55
8.97
8.22
7.24
5.97
4.45
2.70
0.78
-1.22
-3.18
-4.98
-6.60
-8.09
-9.68
-11.64
-14.22
-17.56
-21.46
-25.46
-28.80
-30.70
-30.59
-28.34
-24.34
-19.35
-14.20
-9.51
-5.55
-2.29
0.44
2.80
4.88
6.63
7.97
8.83
9.27
9.43
9.53
9.79
10.30
11.01
11.74
12.27
12.49
12.40
12.14
11.81
11.43
10.88
10.04
8.79
7.15
5.25
3.28
1.38
-0.32
-1.80
-3.13
-4.47
-6.06
-8.15
-10.95
-14.42
-18.33
-22.19
-25.41
-27.46
-27.93
-26.67
-23.80
-19.70
-14.92
-10.07
-5.67
-1.99
0.94
3.26
5.20
6.85
8.23
9.25
9.94
10.41
10.90
11.59
12.56
13.66
14.57
14.99
14.76
13.98
12.92
11.87
10.98
10.19
9.28
8.07
6.52
4.77
3.08
1.64
0.48
-0.57
-1.81
-3.49
-5.84
-8.87
-12.47
-16.41
-20.33
-23.77
-26.19
-27.11
-26.29
-23.80
-20.00
-15.52
-10.98
-6.88
-3.47
-0.78
1.33
3.01
4.35
5.42
6.21
6.76
7.18
7.67
8.36
9.31
10.38
11.37
12.10
12.58
12.96
13.42
14.06
14.77
15.31
15.43
15.02
14.08
12.72
11.05
9.13
6.97
4.65
2.23
-0.18
-2.60
-5.18
-8.09
-11.52
-15.43
-19.61
-23.66
-27.04
-29.30
-30.10
-29.33
-27.17
-23.97
-20.19
-16.28
-12.58
-9.32
-6.60
-4.40
-2.68
-1.32
-0.21
0.78
1.79
2.96
4.29
5.72
7.05
8.08
8.68
8.90
8.97
9.12
9.46
9.89
10.07
9.68
8.59
6.92
5.02
3.23
1.72
0.41
-0.94
-2.58
-4.76
-7.59
-11.09
-15.08
-19.22
-22.97
-25.68
-26.73
-25.74
-22.71
-18.00
-12.29
-6.39
-1.02
3.32
6.44
8.40
9.42
9.80
9.77
9.51
9.18
8.90
8.85
9.12
9.73
10.56
11.43
12.16
12.60
12.64
12.21
11.28
9.87
8.06
5.98
3.79
1.59
-0.58
-2.75
-4.96
-7.29
-9.87
-12.82
-16.12
-19.58
-22.70
-24.81
-25.30
-23.83
-20.48
-15.73
-10.28
-4.80
0.19
4.42
7.76
10.21
11.85
12.83
13.33
13.57
13.72
13.89
14.09
14.36
14.68
15.06
15.46
15.79
15.92
15.73
15.11
14.03
12.47
10.49
8.16
5.62
3.04
0.60
-1.60
-3.58
-5.55
-7.78
-10.54
-13.97
-17.97
-22.14
-25.89
-28.59
-29.69
-28.94
-26.46
-22.66
-18.13
-13.45
-8.98
-4.90
-1.22
2.05
4.86
7.09
8.67
9.73
10.50
11.28
12.27
13.48
14.76
15.92
16.83
17.50
18.02
18.42
18.64
18.52
17.88
16.60
14.64
12.16
9.34
6.41
3.54
0.84
-1.63
-3.91
-6.14
-8.59
-11.56
-15.31
-19.81
-24.68
-29.19
-32.45
-33.72
-32.66
-29.42
-24.60
-18.98
-13.29
-8.01
-3.36
0.64
4.03
6.85
9.10
10.78
11.96
12.75
13.38
14.01
14.78
15.72
16.72
17.64
18.33
18.74
18.89
18.82
18.56
18.07
17.19
15.74
13.63
10.89
7.80
4.68
1.88
-0.44
-2.36
-4.13
-6.13
-8.74
-12.18
-16.39
-21.05
-25.53
-29.08
-31.01
-30.91
-28.78
-24.94
-19.99
-14.48
-8.84
-3.37
1.73
6.23
9.87
12.44
13.89
14.45
14.54
14.66
15.23
16.41
18.06
19.88
21.44
22.43
22.72
22.35
21.54
20.51
19.39
18.16
16.65
14.64
12.04
8.94
5.59
2.34
-0.56
-3.00
-5.10
-7.15
-9.49
-12.43
-16.05
-20.18
-24.29
-27.63
-29.40
-29.02
-26.34
-21.69
-15.83
-9.62
-3.83
1.11
5.08
8.19
10.61
12.45
13.76
14.57
14.97
15.15
15.33
15.61
16.02
16.41
16.61
16.50
16.13
15.67
15.27
15.01
14.86
14.63
14.08
13.04
11.50
9.54
7.37
5.20
3.15
1.18
-0.92
-3.46
-6.68
-10.63
-15.09
-19.52
-23.17
-25.27
-25.20
-22.69
-17.94
-11.61
-4.65
1.95
7.41
11.39
13.98
15.56
16.54
17.14
17.40
17.25
16.71
15.99
15.31
14.84
14.45
13.91
13.01
11.79
10.62
10.03
10.40
11.82
14.03
16.58
19.08
21.23
22.83
23.64
23.40
21.95
19.47
16.46
13.65
11.62
10.52
9.95
9.21
7.65
5.03
1.73
-1.48
-3.71
-4.30
-3.07
-0.36
3.15
6.53
8.88
9.50
7.96
4.24
-1.33
-8.12
-15.38
-22.44
-28.87
-34.46
-39.20
-43.12
-46.13
-48.05
-48.68
-47.91
-45.85
-42.79
-39.25
-35.76
-32.85
-30.88
-29.98
-30.03
-30.64
-31.31
-31.61
-31.37
-30.75
-30.20
-30.15
-30.81
-32.03
-33.28
-33.83
-33.02
-30.41
-25.91
-19.71
-12.29
-4.24
3.80
11.22
17.54
22.44
25.77
27.60
28.17
27.88
27.23
26.71
26.75
27.52
28.92
30.60
32.11
33.06
33.25
32.69
31.48
29.81
27.80
25.55
23.13
20.65
18.19
15.78
13.38
10.81
7.88
4.43
0.46
-3.75
-7.69
-10.76
-12.41
-12.34
-10.67
-7.79
-4.32
-0.83
2.31
4.86
6.80
8.10
8.71
8.65
8.00
6.96
5.76
4.62
3.58
2.53
1.29
-0.23
-2.03
-3.98
-5.86
-7.55
-8.88
-9.74
-9.95
-9.39
-8.10
-6.35
-4.66
-3.62
-3.64
-4.89
-7.25
-10.40
-13.90
-17.28
-19.95
-21.34
-20.95
-18.59
-14.49
-9.28
-3.83
1.08
4.93
7.59
9.25
10.27
10.99
11.65
12.28
12.76
12.94
12.70
12.05
11.16
10.28
9.60
9.24
9.16
9.25
9.37
9.41
9.24
8.74
7.73
6.11
3.87
1.14
-1.81
-4.69
-7.32
-9.73
-12.11
-14.76
-17.87
-21.35
-24.81
-27.54
-28.77
-27.94
-24.92
-20.07
-14.14
-8.02
-2.49
1.99
5.35
7.77
9.55
10.97
12.17
13.13
13.71
13.87
13.61
13.16
12.84
12.90
13.38
14.08
14.68
14.87
14.53
13.72
12.63
11.37
9.96
8.36
6.54
4.50
2.36
0.17
-2.09
-4.54
-7.36
-10.65
-14.36
-18.19
-21.59
-23.96
-24.72
-23.58
-20.59
-16.16
-10.92
-5.53
-0.49
3.89
7.45
10.20
12.18
13.43
14.08
14.31
14.35
14.44
14.76
15.32
15.95
16.39
16.41
15.95
15.17
14.34
13.63
13.11
12.56
11.70
10.32
8.40
6.11
3.68
1.32
-0.91
-3.02
-5.13
-7.40
-9.98
-13.03
-16.53
-20.30
-23.86
-26.59
-27.82
-27.14
-24.45
-20.14
-14.91
-9.56
-4.78
-0.98
1.71
3.49
4.61
5.36
5.89
6.26
6.55
6.82
7.19
7.79
8.63
9.57
10.35
10.76
10.65
10.05
9.11
7.98
6.72
5.29
3.61
1.64
-0.51
-2.67
-4.65
-6.40
-8.04
-9.82
-11.98
-14.63
-17.53
-20.20
-22.00
-22.37
-20.99
-17.94
-13.68
-8.89
-4.23
-0.11
3.32
6.14
8.53
10.53
12.06
12.90
12.97
12.35
11.35
10.38
9.79
9.69
9.97
10.38
10.65
10.62
10.29
9.77
9.20
8.64
8.01
7.15
5.87
4.08
1.87
-0.53
-2.90
-5.06
-7.02
-8.81
-10.38
-11.49
-11.73
-10.70
-8.23
-4.57
-0.29
3.88
7.44
10.17
12.20
13.73
14.91
15.69
15.92
15.50
14.53
13.29
12.19
11.56
11.59
12.21
13.16
14.10
14.67
14.61
13.82
12.39
10.57
8.64
6.77
5.07
3.42
1.72
-0.21
-2.44
-5.01
-7.81
-10.66
-13.24
-15.14
-15.98
-15.51
-13.67
-10.69
-7.01
-3.10
0.61
3.86
6.54
8.65
10.19
11.12
11.47
11.31
10.83
10.35
10.13
10.30
10.83
11.51
12.11
12.43
12.41
12.07
11.44
10.53
9.30
7.75
5.88
3.77
1.55
-0.65
-2.74
-4.70
-6.67
-8.79
-11.24
-14.05
-17.06
-19.90
-22.09
-23.17
-22.88
-21.18
-18.29
-14.60
-10.55
-6.59
-3.06
-0.16
2.07
3.75
5.00
5.95
6.65
7.11
7.33
7.41
7.49
7.72
8.16
8.74
9.31
9.72
9.86
9.67
9.17
8.34
7.14
5.61
3.82
1.91
0.08
-1.54
-2.96
-4.37
-6.13
-8.55
-11.75
-15.51
-19.26
-22.33
-24.06
-24.09
-22.38
-19.24
-15.16
-10.71
-6.44
-2.72
0.21
2.30
3.64
4.39
4.71
4.77
4.71
4.73
4.96
5.47
6.18
6.88
7.37
7.55
7.53
7.50
7.64
7.93
8.18
8.11
7.48
6.26
4.57
2.64
0.72
-1.02
-2.52
-3.80
-4.99
-6.29
-7.94
-10.13
-12.92
-16.14
-19.39
-22.11
-23.73
-23.84
-22.37
-19.59
-15.98
-12.13
-8.54
-5.49
-3.08
-1.24
0.18
1.27
2.10
2.67
3.06
3.32
3.56
3.82
4.06
4.21
4.22
4.09
3.94
3.92
4.10
4.42
4.69
4.63
4.05
2.87
1.19
-0.75
-2.71
-4.47
-5.91
-7.00
-7.77
-8.35
-8.93
-9.77
-11.09
-12.93
-15.11
-17.15
-18.44
-18.52
-17.17
-14.61
-11.35
-8.01
-5.07
-2.70
-0.87
0.60
1.83
2.82
3.48
3.74
3.60
3.23
2.81
2.51
2.42
2.51
2.76
3.13
3.58
4.06
4.40
4.43
3.97
3.01
1.73
0.44
-0.62
-1.28
-1.64
-1.97
-2.58
-3.74
-5.61
-8.15
-11.16
-14.25
-16.84
-18.43
-18.58
-17.09
-14.14
-10.16
-5.73
-1.46
2.19
4.97
6.81
7.79
8.11
7.97
7.64
7.32
7.22
7.45
8.02
8.84
9.69
10.30
10.45
10.08
9.32
8.40
7.60
7.04
6.62
6.15
5.40
4.26
2.78
1.12
-0.57
-2.18
-3.72
-5.23
-6.78
-8.46
-10.34
-12.48
-14.87
-17.27
-19.32
-20.53
-20.52
-19.11
-16.43
-12.91
-9.06
-5.36
-2.13
0.54
2.73
4.52
6.02
7.22
8.14
8.75
9.09
9.28
9.48
9.80
10.24
10.66
10.88
10.72
10.24
9.65
9.20
9.07
9.19
9.24
8.77
7.48
5.38
2.82
0.26
-1.90
-3.56
-4.87
-6.13
-7.61
-9.49
-11.88
-14.84
-18.38
-22.33
-26.23
-29.35
-30.88
-30.30
-27.61
-23.38
-18.49
-13.75
-9.60
-6.09
-2.98
-0.08
2.64
5.01
6.78
7.86
8.28
8.29
8.24
8.42
8.98
9.89
10.91
11.76
12.28
12.44
12.41
12.37
12.38
12.26
11.76
10.62
8.78
6.42
3.91
1.60
-0.21
-1.43
-2.21
-2.84
-3.81
-5.55
-8.35
-12.16
-16.58
-20.87
-24.27
-26.20
-26.37
-24.86
-22.03
-18.38
-14.50
-10.84
-7.71
-5.10
-2.83
-0.60
1.75
4.16
6.39
8.19
9.48
10.44
11.32
12.32
13.44
14.52
15.34
15.79
15.92
15.84
15.68
15.49
15.24
14.86
14.22
13.16
11.52
9.24
6.46
3.51
0.77
-1.53
-3.38
-5.04
-6.83
-9.02
-11.73
-14.95
-18.62
-22.59
-26.54
-29.95
-32.12
-32.46
-30.73
-27.22
-22.57
-17.54
-12.75
-8.49
-4.81
-1.70
0.84
2.77
4.08
4.89
5.47
6.07
6.80
7.57
8.14
8.33
8.19
7.97
7.99
8.42
9.14
9.78
9.90
9.27
7.91
6.14
4.29
2.60
1.11
-0.23
-1.53
-2.85
-4.28
-5.98
-8.21
-11.13
-14.71
-18.49
-21.71
-23.50
-23.22
-20.76
-16.54
-11.36
-6.06
-1.23
2.84
6.15
8.80
10.87
12.33
13.14
13.31
13.00
12.44
11.94
11.72
11.86
12.25
12.70
13.02
13.09
12.88
12.44
11.80
10.94
9.83
8.43
6.79
5.02
3.21
1.41
-0.51
-2.76
-5.58
-9.10
-13.23
-17.57
-21.42
-24.00
-24.62
-22.96
-19.19
-13.91
-8.02
-2.34
2.56
6.50
9.60
12.06
14.00
15.44
16.28
16.55
16.39
16.12
15.98
16.13
16.49
16.86
17.00
16.80
16.25
15.41
14.34
13.04
11.51
9.75
7.85
5.90
3.94
2.00
-0.03
-2.27
-4.94
-8.16
-11.98
-16.24
-20.55
-24.26
-26.63
-27.02
-25.08
-21.01
-15.41
-9.18
-3.18
2.05
6.32
9.68
12.24
14.03
15.04
15.31
15.05
14.63
14.49
14.93
15.96
17.34
18.62
19.41
19.50
18.90
17.81
16.46
15.03
13.50
11.77
9.66
7.14
4.33
1.48
-1.17
-3.59
-5.96
-8.62
-11.89
-15.86
-20.33
-24.79
-28.59
-31.09
-31.81
-30.45
-27.09
-22.06
-15.97
-9.52
-3.33
2.16
6.78
10.54
13.49
15.69
17.22
18.12
18.55
18.72
18.84
19.03
19.29
19.53
19.64
19.59
19.42
19.22
19.03
18.79
18.33
17.44
15.95
13.79
11.07
8.02
4.92
2.06
-0.40
-2.45
-4.27
-6.18
-8.52
-11.63
-15.60
-20.25
-25.00
-29.11
-31.76
-32.33
-30.64
-26.90
-21.71
-15.81
-9.85
-4.28
0.71
5.05
8.79
11.89
14.27
15.85
16.64
16.79
16.64
16.51
16.69
17.19
17.84
18.38
18.60
18.49
18.19
17.87
17.55
17.07
16.11
14.44
11.96
8.85
5.43
2.05
-1.08
-3.86
-6.36
-8.70
-11.04
-13.57
-16.45
-19.76
-23.46
-27.26
-30.63
-32.82
-33.13
-31.15
-26.95
-21.14
-14.64
-8.43
-3.26
0.56
3.10
4.70
5.78
6.69
7.63
8.58
9.41
9.92
9.95
9.57
8.99
8.67
8.98
10.01
11.44
12.53
12.52
10.97
8.07
4.67
1.86
0.52
0.74
1.75
2.09
0.32
-4.31
-11.37
-19.22
-25.65
-28.79
-28.06
-24.53
-20.55
-18.65
-20.20
-24.48
-28.88
-30.01
-25.42
-14.95
-1.02
12.33
21.03
22.36
15.42
1.26
-17.62
-37.20
-52.00
-55.93
-44.65
-18.37
16.59
49.30
68.96
70.56
58.15
43.57
40.56
57.87
94.75
141.59
184.92
213.56
222.60
213.64
191.96
163.20
131.27
98.06
64.71
32.84
5.25
-14.12
-21.08
-12.73
10.74
45.32
83.69
117.48
140.41
150.71
151.51
148.79
147.77
150.03
152.89
151.40
141.51
122.48
97.15
70.27
45.83
25.25
7.35
-10.00
-27.99
-45.81
-61.03
-71.31
-75.98
-76.68
-76.94
-80.86
-91.49
-109.58
-132.91
-156.90
-175.94
-185.29
-182.72
-169.12
-147.95
-123.77
-100.76
-81.52
-67.01
-56.99
-50.59
-46.80
-44.46
-42.31
-39.25
-34.63
-28.56
-21.73
-15.02
-8.97
-3.89
-0.10
1.85
1.16
-2.94
-10.48
-20.52
-31.19
-40.44
-46.92
-50.57
-52.61
-54.91
-58.94
-65.11
-72.82
-81.04
-89.11
-96.98
-104.95
-112.91
-119.94
-124.49
-125.12
-121.46
-114.52
-106.23
-98.51
-92.34
-87.62
-83.82
-80.66
-78.38
-77.19
-76.41
-74.01
-67.22
-53.86
-33.78
-9.32
15.47
36.34
50.39
56.83
56.73
52.41
46.79
42.94
43.61
50.41
63.15
79.31
94.66
104.71
106.54
100.14
88.45
76.11
67.38
64.35
66.16
69.68
71.13
67.77
58.91
45.85
30.93
16.61
4.72
-3.72
-8.33
-9.27
-7.15
-3.09
1.48
5.07
6.74
6.31
4.32
1.65
-0.94
-2.98
-4.31
-4.99
-5.21
-5.40
-6.27
-8.66
-13.22
-20.01
-28.40
-37.26
-45.27
-51.56
-55.84
-58.51
-60.22
-61.54
-62.64
-63.39
-63.59
-63.28
-62.83
-62.69
-63.14
-64.02
-64.93
-65.55
-66.02
-67.02
-69.48
-73.98
-80.40
-87.83
-94.93
-100.27
-102.44
-100.08
-91.78
-76.38
-53.67
-24.98
6.72
37.47
63.58
82.79
94.75
100.57
102.00
100.60
97.41
93.15
88.47
84.08
80.45
77.67
75.46
73.52
71.81
70.65
70.45
71.28
72.78
74.27
75.23
75.56
75.54
75.47
75.28
74.43
72.13
67.83
61.51
53.74
45.34
37.02
29.08
21.36
13.39
4.57
-5.58
-17.26
-30.29
-44.06
-57.71
-70.32
-81.27
-90.32
-97.67
-103.67
-108.62
-112.64
-115.69
-117.74
-118.76
-118.78
-117.58
-114.71
-109.51
-101.37
-90.05
-75.81
-59.35
-41.53
-23.25
-5.25
11.76
27.09
40.14
50.59
58.52
64.42
68.90
72.37
74.76
75.67
74.59
71.30
66.07
59.52
52.45
45.54
39.18
33.49
28.39
23.57
18.66
13.24
7.01
-0.08
-7.91
-16.22
-24.76
-33.32
-41.69
-49.61
-56.74
-62.81
-67.75
-71.78
-75.29
-78.53
-81.33
-82.90
-81.98
-77.24
-67.79
-53.61
-35.69
-15.84
3.81
21.39
35.77
46.80
55.02
61.25
66.22
70.21
73.21
75.12
76.01
76.12
75.78
75.12
73.93
71.87
68.54
63.86
58.10
51.79
45.50
39.64
34.46
29.97
26.18
23.00
20.28
17.80
15.32
12.62
9.68
6.60
3.56
0.62
-2.42
-5.89
-10.18
-15.45
-21.52
-27.79
-33.40
-37.43
-39.19
-38.37
-35.13
-30.05
-23.93
-17.56
-11.53
-6.13
-1.38
2.77
6.28
8.95
10.52
10.84
10.13
8.93
7.94
7.68
8.37
9.74
11.31
12.60
13.29
13.32
12.77
11.76
10.42
8.93
7.48
6.21
5.07
3.79
2.04
-0.32
-3.05
-5.47
-6.68
-6.01
-3.23
1.32
6.90
12.72
18.14
22.83
26.64
29.52
31.41
32.13
31.61
29.83
27.05
23.75
20.54
17.90
16.05
14.85
13.86
12.75
11.33
9.75
8.24
6.99
5.90
4.67
3.05
0.89
-1.65
-4.40
-7.27
-10.32
-13.59
-16.89
-19.71
-21.32
-21.10
-18.80
-14.65
-9.32
-3.53
2.10
7.23
11.75
15.61
18.70
20.87
21.89
21.64
20.25
18.13
15.79
13.73
12.23
11.22
10.35
9.24
7.64
5.56
3.13
0.55
-2.11
-4.85
-7.62
-10.28
-12.62
-14.52
-16.04
-17.49
-19.18
-21.24
-23.51
-25.43
-26.32
-25.59
-22.98
-18.69
-13.26
-7.40
-1.76
3.19
7.27
10.42
12.69
14.12
14.79
14.84
14.55
14.31
14.44
15.09
16.00
16.72
16.66
15.50
13.23
10.20
6.92
3.82
1.17
-1.04
-2.91
-4.72
-6.69
-9.08
-12.06
-15.56
-19.18
-22.19
-23.73
-23.03
-19.80
-14.25
-7.06
0.92
9.01
16.82
24.18
31.00
36.99
41.70
44.65
45.61
44.76
42.67
40.04
37.44
35.07
32.72
29.99
26.49
22.05
16.78
11.03
5.26
-0.15
-4.94
-8.99
-12.27
-14.81
-16.76
-18.28
-19.63
-21.10
-22.86
-24.77
-26.40
-27.04
-26.01
-22.96
-18.09
-12.06
-5.83
-0.24
4.15
7.18
8.90
9.48
9.12
8.03
6.51
4.95
3.81
3.45
3.93
4.95
5.91
6.09
5.02
2.72
-0.19
-2.78
-4.12
-3.68
-1.51
1.85
5.66
9.24
12.15
14.11
15.03
14.87
13.89
12.63
11.97
12.88
16.04
21.60
28.97
37.11
44.94
51.61
56.84
60.70
63.49
65.43
66.62
67.06
66.69
65.46
63.19
59.57
54.26
47.03
37.98
27.64
16.80
6.23
-3.52
-12.24
-19.93
-26.55
-31.84
-35.31
-36.47
-35.21
-32.00
-27.80
-23.91
-21.47
-21.11
-22.84
-26.04
-29.75
-32.85
-34.25
-32.92
-28.10
-19.53
-7.93
4.76
15.63
21.66
20.96
13.53
1.36
-12.44
-24.82
-33.86
-39.13
-41.32
-41.50
-40.58
-39.14
-37.57
-36.35
-36.03
-37.01
-39.39
-42.82
-46.64
-50.21
-52.99
-54.77
-55.55
-55.56
-55.01
-54.08
-52.89
-51.60
-50.56
-50.40
-51.84
-55.47
-61.39
-68.88
-76.63
-82.96
-86.32
-85.79
-81.27
-73.50
-63.79
-53.62
-44.27
-36.52
-30.56
-26.06
-22.46
-19.17
-15.81
-12.23
-8.43
-4.49
-0.47
3.46
7.06
9.95
11.84
12.64
12.61
12.25
12.06
12.28
12.69
12.79
11.96
9.82
6.35
1.93
-2.89
-7.57
-11.73
-15.23
-18.04
-20.33
-22.37
-24.60
-27.57
-31.78
-37.26
-43.50
-49.33
-53.29
-54.18
-51.46
-45.43
-37.08
-27.69
-18.37
-9.81
-2.23
4.42
10.28
15.45
19.91
23.60
26.43
28.40
29.60
30.32
30.93
31.78
33.02
34.56
36.07
37.14
37.54
37.24
36.44
35.39
34.25
32.89
31.04
28.44
25.01
21.03
17.01
13.47
10.69
8.61
6.90
5.09
2.83
-0.12
-3.86
-8.54
-14.23
-20.80
-27.69
-33.91
-38.16
-39.33
-36.89
-31.12
-22.99
-13.89
-5.18
2.28
8.15
12.63
16.20
19.28
22.10
24.54
26.34
27.33
27.61
27.57
27.71
28.43
29.73
31.32
32.76
33.70
34.10
34.15
34.19
34.38
34.69
34.83
34.38
33.02
30.61
27.28
23.41
19.51
16.07
13.38
11.41
9.90
8.36
6.34
3.39
-0.77
-6.10
-12.20
-18.24
-23.11
-25.66
-25.19
-21.61
-15.54
-8.01
-0.09
7.46
14.28
20.33
25.62
30.09
33.52
35.53
35.74
33.91
30.06
24.49
17.81
10.70
3.77
-2.60
-8.23
-12.98
-16.65
-18.90
-19.46
-18.32
-15.91
-13.01
-10.55
-9.23
-9.33
-10.62
-12.57
-14.56
-16.15
-17.11
-17.53
-17.72
-18.13
-19.26
-21.55
-25.11
-29.68
-34.51
-38.59
-40.91
-40.78
-38.06
-33.16
-26.83
-19.90
-13.02
-6.70
-1.21
3.28
6.64
8.87
10.09
10.53
10.55
10.51
10.76
11.46
12.57
13.82
14.87
15.46
15.55
15.31
15.13
15.24
15.59
15.77
15.20
13.43
10.43
6.67
2.88
-0.25
-2.42
-3.89
-5.33
-7.55
-11.03
-15.67
-20.70
-24.91
-27.07
-26.40
-22.82
-16.90
-9.64
-2.08
5.01
11.19
16.35
20.45
23.45
25.29
26.01
25.76
24.95
24.03
23.47
23.49
24.02
24.80
25.46
25.80
25.80
25.60
25.29
24.81
23.92
22.31
19.75
16.28
12.20
7.92
3.79
-0.00
-3.49
-6.86
-10.42
-14.47
-19.26
-24.75
-30.60
-36.07
-40.17
-41.98
-40.96
-37.15
-31.19
-24.04
-16.67
-9.77
-3.69
1.50
5.81
9.26
11.83
13.52
14.46
14.87
15.01
15.15
15.42
15.87
16.43
16.99
17.40
17.59
17.59
17.54
17.57
17.76
18.03
18.23
18.16
17.65
16.56
14.80
12.29
9.05
5.19
0.97
-3.36
-7.72
-12.36
-17.73
-24.25
-31.96
-40.25
-47.95
-53.53
-55.69
-53.67
-47.57
-38.27
-27.19
-15.84
-5.44
3.38
10.54
16.35
21.19
25.24
28.49
30.82
32.23
32.88
33.02
32.95
32.85
32.77
32.76
32.87
33.20
33.70
34.27
34.63
34.55
33.87
32.66
31.12
29.49
27.91
26.32
24.45
21.95
18.56
14.23
9.27
4.23
-0.28
-3.95
-6.80
-9.22
-11.76
-15.03
-19.62
-25.86
-33.70
-42.37
-50.29
-55.27
-55.26
-49.19
-37.70
-23.05
-8.41
3.46
11.08
14.67
15.58
15.45
15.39
15.68
16.05
16.17
16.04
15.98
16.45
17.63
19.31
20.97
22.13
22.56
22.52
22.51
23.02
24.20
25.74
27.06
27.52
26.75
24.74
21.81
18.40
14.91
11.63
8.63
5.87
3.11
0.14
-3.19
-6.92
-10.83
-14.62
-18.08
-21.30
-24.69
-28.82
-34.01
-40.06
-46.02
-50.50
-52.12
-50.07
-44.42
-36.15
-26.71
-17.43
-9.20
-2.25
3.55
8.44
12.48
15.60
17.68
18.86
19.47
19.95
20.62
21.56
22.63
23.64
24.58
25.58
26.82
28.34
29.89
31.05
31.37
30.70
29.20
27.29
25.40
23.62
21.74
19.35
16.14
12.09
7.55
3.04
-1.02
-4.42
-7.20
-9.58
-11.81
-14.14
-16.89
-20.36
-24.83
-30.34
-36.60
-42.85
-48.02
-50.96
-50.77
-47.12
-40.34
-31.38
-21.49
-11.87
-3.38
3.56
8.93
12.97
15.88
17.90
19.14
19.76
19.89
19.76
19.61
19.63
19.86
20.20
20.40
20.24
19.59
18.54
17.26
15.92
14.59
13.21
11.70
10.01
8.21
6.40
4.63
2.90
1.07
-0.95
-3.28
-5.87
-8.59
-11.19
-13.46
-15.28
-16.90
-18.85
-21.76
-26.01
-31.40
-37.07
-41.78
-44.36
-44.17
-41.27
-36.30
-30.11
-23.41
-16.68
-10.21
-4.25
0.93
5.03
7.90
9.55
10.22
10.30
10.19
10.19
10.50
11.26
12.50
14.20
16.20
18.19
19.85
20.86
21.19
21.03
20.65
20.27
19.83
19.10
17.78
15.73
13.09
10.14
7.15
4.26
1.41
-1.50
-4.58
-8.00
-12.01
-17.05
-23.49
-31.44
-40.38
-49.07
-55.81
-58.88
-57.28
-51.02
-41.19
-29.51
-17.73
-7.05
2.05
9.68
16.11
21.51
25.73
28.60
30.08
30.43
30.21
29.96
30.08
30.60
31.30
31.86
32.08
31.93
31.57
31.25
31.15
31.28
31.41
31.17
30.10
27.87
24.41
19.91
14.76
9.46
4.45
0.05
-3.61
-6.67
-9.51
-12.70
-16.85
-22.37
-29.20
-36.75
-43.96
-49.59
-52.58
-52.27
-48.60
-42.02
-33.40
-23.82
-14.33
-5.75
1.46
7.24
11.79
15.44
18.50
21.13
23.41
25.35
26.95
28.24
29.29
30.20
31.10
32.08
33.11
34.03
34.63
34.64
33.92
32.48
30.47
28.07
25.41
22.48
19.31
15.90
12.27
8.46
4.44
0.12
-4.52
-9.38
-14.25
-18.92
-23.34
-27.76
-32.64
-38.43
-45.25
-52.62
-59.48
-64.41
-66.17
-64.08
-58.31
-49.76
-39.74
-29.51
-19.93
-11.34
-3.68
3.24
9.52
15.07
19.75
23.43
26.15
28.12
29.62
30.92
32.17
33.39
34.54
35.56
36.44
37.22
37.90
38.44
38.62
38.15
36.76
34.34
31.03
27.27
23.51
20.19
17.40
14.90
12.24
8.98
4.91
0.15
-4.88
-9.70
-13.95
-17.63
-21.02
-24.64
-28.98
-34.41
-40.93
-48.14
-55.21
-60.95
-64.14
-63.75
-59.37
-51.31
-40.54
-28.55
-16.76
-6.27
2.42
9.37
14.97
19.61
23.49
26.59
28.78
30.11
30.84
31.45
32.37
33.76
35.48
37.17
38.46
39.24
39.61
39.76
39.79
39.58
38.86
37.31
34.79
31.43
27.58
23.73
20.29
17.38
14.83
12.25
9.18
5.35
0.83
-4.01
-8.64
-12.65
-15.92
-18.77
-21.75
-25.50
-30.42
-36.54
-43.46
-50.41
-56.41
-60.46
-61.66
-59.51
-53.96
-45.51
-35.12
-23.98
-13.28
-3.89
3.78
9.69
14.13
17.50
20.14
22.28
24.09
25.65
27.07
28.44
29.79
31.07
32.14
32.86
33.15
33.05
32.77
32.50
32.35
32.17
31.66
30.39
28.06
24.69
20.64
16.45
12.63
9.36
6.41
3.27
-0.57
-5.23
-10.40
-15.44
-19.73
-22.97
-25.36
-27.48
-30.10
-33.92
-39.28
-46.09
-53.74
-61.18
-67.10
-70.29
-69.90
-65.79
-58.46
-48.90
-38.34
-27.85
-18.23
-9.92
-3.10
2.17
6.00
8.53
10.03
10.86
11.47
12.28
13.51
15.08
16.70
17.93
18.54
18.59
18.42
18.49
19.05
20.04
21.07
21.58
21.03
19.08
15.71
11.18
5.98
0.65
-4.34
-8.67
-12.33
-15.55
-18.82
-22.73
-27.72
-33.83
-40.57
-46.93
-51.57
-53.30
-51.45
-46.08
-37.97
-28.30
-18.26
-8.75
-0.22
7.20
13.52
18.75
22.78
25.49
26.84
27.06
26.57
25.91
25.58
25.81
26.50
27.30
27.80
27.73
27.12
26.17
25.21
24.46
23.84
23.03
21.65
19.37
16.12
12.10
7.66
3.18
-1.05
-4.92
-8.49
-11.95
-15.61
-19.80
-24.89
-31.11
-38.39
-46.14
-53.30
-58.49
-60.46
-58.52
-52.79
-44.18
-34.06
-23.81
-14.42
-6.38
0.33
5.94
10.67
14.67
17.94
20.45
22.26
23.52
24.44
25.23
25.97
26.59
26.96
26.96
26.62
26.11
25.64
25.37
25.22
24.96
24.17
22.53
19.95
16.58
12.75
8.83
5.06
1.50
-1.91
-5.32
-8.83
-12.58
-16.77
-21.64
-27.44
-34.15
-41.38
-48.27
-53.66
-56.48
-56.05
-52.34
-45.88
-37.61
-28.57
-19.64
-11.43
-4.25
1.86
7.06
11.55
15.56
19.18
22.39
25.08
27.13
28.53
29.40
29.90
30.25
30.57
30.89
31.23
31.53
31.75
31.82
31.58
30.88
29.60
27.74
25.40
22.73
19.82
16.65
13.20
9.41
5.39
1.31
-2.60
-6.20
-9.49
-12.63
-15.87
-19.50
-23.80
-28.97
-35.03
-41.67
-48.22
-53.71
-57.15
-57.83
-55.52
-50.56
-43.55
-35.19
-26.18
-17.12
-8.68
-1.50
3.95
7.55
9.61
10.85
12.00
13.61
15.88
18.68
21.61
24.07
25.17
24.02
20.20
14.21
7.77
3.39
3.46
9.23
20.27
34.57
49.41
62.30
71.72
77.17
78.85
77.16
72.43
65.01
55.40
44.34
32.79
21.59
11.27
1.99
-6.50
-14.66
-22.96
-31.80
-41.28
-51.29
-61.32
-70.59
-78.09
-82.80
-83.95
-81.27
-75.07
-66.15
-55.54
-44.18
-32.79
-21.83
-11.56
-2.29
5.67
12.00
16.55
19.43
21.08
22.03
22.78
23.54
24.29
24.87
25.21
25.42
25.69
26.16
26.71
27.05
26.90
26.06
24.69
23.03
21.30
19.52
17.51
15.08
12.15
8.87
5.51
2.37
-0.42
-2.91
-5.39
-8.27
-12.06
-17.15
-23.65
-31.25
-39.15
-46.19
-51.17
-53.09
-51.48
-46.50
-38.90
-29.78
-20.30
-11.29
-3.24
3.73
9.73
14.79
18.79
21.59
23.17
23.79
23.99
24.36
25.35
27.00
29.08
31.13
32.79
33.83
34.19
33.92
33.05
31.55
29.40
26.63
23.31
19.62
15.73
11.76
7.77
3.71
-0.36
-4.41
-8.34
-12.06
-15.62
-19.25
-23.33
-28.13
-33.68
-39.57
-44.96
-48.92
-50.54
-49.36
-45.38
-39.12
-31.40
-23.16
-15.15
-7.89
-1.58
3.82
8.38
12.15
15.14
17.44
19.21
20.73
22.26
23.92
25.64
27.22
28.44
29.23
29.58
29.50
28.96
27.96
26.55
24.89
23.18
21.53
19.86
17.92
15.45
12.37
8.76
4.90
1.08
-2.48
-5.77
-8.80
-11.75
-14.89
-18.54
-23.02
-28.53
-34.94
-41.82
-48.38
-53.66
-56.73
-56.92
-53.97
-48.16
-40.22
-31.17
-22.02
-13.57
-6.28
-0.28
4.53
8.31
11.30
13.70
15.74
17.55
19.17
20.55
21.56
22.12
22.34
22.35
22.35
22.45
22.68
23.00
23.35
23.61
23.67
23.31
22.31
20.59
18.20
15.36
12.34
9.34
6.43
3.59
0.81
-1.95
-4.64
-7.27
-9.96
-12.88
-16.23
-20.23
-25.00
-30.46
-36.35
-42.01
-46.56
-49.05
-48.77
-45.50
-39.61
-31.94
-23.46
-15.11
-7.53
-1.06
4.24
8.53
12.10
15.25
18.15
20.85
23.18
25.00
26.23
26.97
27.46
27.97
28.60
29.34
30.06
30.63
30.97
31.03
30.66
29.79
28.34
26.37
24.06
21.64
19.28
17.05
14.83
12.52
9.99
7.21
4.22
1.07
-2.24
-5.76
-9.60
-13.83
-18.50
-23.69
-29.34
-35.32
-41.27
-46.56
-50.37
-51.86
-50.48
-46.25
-39.77
-32.12
-24.42
-17.52
-11.73
-6.85
-2.56
1.39
4.96
7.91
10.05
11.38
12.15
12.73
13.40
14.24
15.15
15.94
16.54
16.98
17.42
18.00
18.71
19.31
19.41
18.68
16.96
14.38
11.30
8.14
5.22
2.60
0.18
-2.19
-4.57
-6.92
-9.17
-11.33
-13.59
-16.31
-19.73
-23.93
-28.67
-33.39
-37.35
-39.81
-40.18
-38.29
-34.33
-28.89
-22.65
-16.32
-10.37
-5.08
-0.53
3.27
6.36
8.80
10.67
12.08
13.16
14.08
14.97
16.03
17.33
18.82
20.23
21.21
21.47
20.98
20.07
19.17
18.59
18.31
17.97
17.06
15.28
12.63
9.46
6.18
3.11
0.40
-2.00
-4.24
-6.48
-8.92
-11.69
-14.96
-18.85
-23.39
-28.47
-33.72
-38.52
-42.00
-43.31
-41.91
-37.80
-31.63
-24.44
-17.34
-11.03
-5.75
-1.26
2.77
6.50
9.83
12.48
14.25
15.19
15.60
15.98
16.68
17.85
19.33
20.88
22.30
23.58
24.84
26.19
27.51
28.49
28.71
27.92
26.14
23.71
21.09
18.71
16.75
15.14
13.66
11.99
9.88
7.09
3.52
-0.69
-5.20
-9.52
-13.17
-15.94
-17.98
-19.74
-21.87
-24.96
-29.33
-34.89
-41.06
-46.80
-50.86
-52.11
-49.98
-44.66
-37.13
-28.72
-20.68
-13.74
-8.14
-3.74
-0.36
2.18
4.07
5.61
7.26
9.40
12.19
15.35
18.39
20.75
22.13
22.56
22.40
22.14
22.26
22.99
24.28
25.85
27.24
28.04
28.00
27.12
25.53
23.49
21.18
18.78
16.42
14.28
12.46
10.85
9.17
7.04
4.17
0.61
-3.24
-6.83
-9.78
-12.06
-13.99
-16.05
-18.58
-21.74
-25.57
-30.02
-35.05
-40.35
-45.33
-49.03
-50.47
-49.06
-44.87
-38.65
-31.46
-24.28
-17.74
-12.02
-7.07
-2.75
0.99
4.13
6.64
8.55
9.97
11.10
12.15
13.34
14.77
16.44
18.18
19.78
21.10
22.08
22.84
23.51
24.15
24.63
24.70
24.17
22.99
21.35
19.56
17.79
16.08
14.25
12.20
9.98
7.85
6.12
4.84
3.82
2.59
0.73
-1.88
-5.05
-8.35
-11.39
-14.04
-16.41
-18.78
-21.46
-24.64
-28.43
-32.72
-37.21
-41.37
-44.49
-45.90
-45.10
-41.99
-36.88
-30.41
-23.39
-16.61
-10.60
-5.64
-1.70
1.40
3.85
5.73
7.05
7.84
8.24
8.63
9.38
10.75
12.65
14.76
16.64
17.96
18.68
19.00
19.17
19.36
19.60
19.81
19.89
19.72
19.17
18.15
16.63
14.74
12.79
11.04
9.61
8.30
6.74
4.56
1.71
-1.50
-4.53
-6.94
-8.67
-10.04
-11.56
-13.69
-16.69
-20.59
-25.19
-30.17
-34.99
-39.07
-41.85
-43.07
-42.85
-41.57
-39.54
-36.72
-32.66
-26.86
-19.27
-10.64
-2.45
3.65
6.60
6.47
4.43
2.24
1.54
3.17
7.09
12.49
18.13
22.34
23.20
18.97
9.20
-4.10
-16.20
-20.84
-12.95
8.54
39.38
71.21
95.06
105.09
100.88
86.66
68.74
52.07
38.56
27.34
16.72
5.99
-3.88
-11.06
-14.52
-14.87
-14.47
-16.42
-22.83
-33.70
-47.03
-59.88
-69.81
-75.99
-79.04
-80.21
-80.14
-78.21
-73.02
-63.72
-51.11
-37.85
-27.37
-22.15
-22.54
-26.93
-32.92
-38.55
-42.84
-45.41
-45.80
-43.17
-36.80
-27.07
-15.77
-5.56
1.24
3.76
2.67
-0.79
-5.78
-11.86
-18.32
-23.38
-24.36
-19.05
-7.46
7.41
20.55
27.33
25.80
17.32
5.38
-6.72
-17.41
-26.58
-34.04
-38.14
-36.12
-26.12
-9.23
9.98
25.34
32.29
30.24
22.69
14.84
10.36
9.82
11.60
14.32
18.52
26.28
38.95
54.93
69.50
76.99
74.13
62.06
45.88
31.63
23.23
21.12
23.33
27.76
33.75
41.69
51.54
61.43
68.03
68.31
61.47
49.43
35.53
22.40
10.70
-0.50
-11.92
-22.65
-30.33
-33.02
-31.03
-27.31
-25.75
-28.69
-35.15
-41.26
-42.81
-37.92
-28.20
-17.58
-9.70
-5.79
-4.26
-2.13
2.68
10.10
18.30
25.25
30.24
34.42
39.85
47.72
57.31
66.04
70.82
69.71
62.88
52.18
40.03
28.27
17.77
8.78
1.29
-4.64
-9.25
-13.52
-19.03
-26.96
-37.17
-47.94
-56.63
-61.20
-61.23
-57.91
-53.06
-47.82
-42.10
-35.15
-26.61
-17.20
-8.67
-2.68
0.15
0.48
-0.42
-1.56
-2.73
-4.27
-6.23
-8.02
-8.49
-6.58
-2.23
3.50
8.76
11.85
11.89
9.11
4.45
-1.03
-6.66
-12.43
-18.80
-26.48
-35.90
-46.90
-58.52
-69.02
-76.24
-78.24
-73.93
-63.48
-48.26
-30.44
-12.33
4.02
17.19
26.47
31.96
34.44
35.10
35.15
35.31
35.66
35.72
34.80
32.41
28.58
23.71
18.50
13.57
9.39
6.22
4.14
3.10
2.94
3.34
3.96
4.36
4.12
2.82
0.07
-4.39
-10.53
-18.06
-26.27
-34.15
-40.53
-44.29
-44.68
-41.55
-35.44
-27.43
-18.79
-10.65
-3.69
1.84
6.07
9.33
12.02
14.46
16.97
19.66
22.47
25.11
27.11
28.11
27.99
27.03
25.71
24.54
23.71
23.11
22.44
21.43
20.03
18.33
16.50
14.52
12.23
9.36
5.69
1.26
-3.68
-8.66
-13.20
-16.85
-19.23
-20.04
-19.04
-16.19
-11.65
-5.87
0.56
6.97
12.82
17.81
21.91
25.30
28.23
30.94
33.41
35.42
36.65
36.92
36.32
35.24
34.21
33.51
33.17
32.86
32.24
31.11
29.61
28.02
26.62
25.38
24.01
22.06
19.20
15.28
10.46
5.00
-0.86
-6.92
-13.03
-18.82
-23.76
-27.14
-28.32
-26.96
-23.28
-18.02
-12.15
-6.56
-1.70
2.50
6.34
10.14
13.90
17.32
20.06
21.91
22.97
23.59
24.11
24.75
25.39
25.84
25.93
25.67
25.28
25.03
25.00
25.03
24.75
23.77
21.86
19.07
15.70
12.24
9.12
6.56
4.50
2.58
0.30
-2.70
-6.63
-11.30
-16.36
-21.31
-25.62
-28.86
-30.60
-30.47
-28.28
-24.11
-18.37
-11.78
-5.18
0.73
5.60
9.40
12.38
14.83
16.97
18.86
20.49
21.82
22.86
23.68
24.34
24.89
25.28
25.44
25.31
24.89
24.21
23.37
22.41
21.33
20.07
18.53
16.65
14.43
11.89
9.15
6.36
3.65
1.22
-0.84
-2.57
-4.18
-6.02
-8.47
-11.85
-16.28
-21.64
-27.40
-32.76
-36.75
-38.43
-37.31
-33.46
-27.58
-20.76
-14.12
-8.47
-4.13
-0.96
1.41
3.35
5.13
6.87
8.62
10.42
12.30
14.22
16.03
17.55
18.62
19.22
19.43
19.45
19.46
19.54
19.61
19.50
19.01
17.99
16.52
14.78
13.03
11.50
10.25
9.10
7.79
6.04
3.70
0.85
-2.21
-5.14
-7.66
-9.75
-11.61
-13.67
-16.39
-20.13
-24.89
-30.17
-35.10
-38.60
-39.82
-38.38
-34.56
-29.09
-22.87
-16.67
-10.98
-6.08
-2.04
1.08
3.34
4.88
5.94
6.86
7.91
9.22
10.81
12.53
14.11
15.33
15.99
16.03
15.62
15.06
14.68
14.64
14.89
15.10
14.93
14.12
12.67
10.80
8.74
6.71
4.73
2.68
0.38
-2.29
-5.28
-8.36
-11.14
-13.32
-14.80
-15.81
-16.83
-18.37
-20.78
-24.03
-27.81
-31.55
-34.61
-36.49
-36.85
-35.53
-32.56
-28.13
-22.60
-16.55
-10.64
-5.49
-1.48
1.31
3.09
4.29
5.23
6.19
7.24
8.40
9.69
11.12
12.65
14.12
15.28
15.85
15.76
15.12
14.26
13.44
12.75
12.08
11.24
10.15
8.87
7.64
6.63
5.72
4.57
2.87
0.50
-2.44
-5.61
-8.63
-11.19
-13.15
-14.72
-16.12
-17.47
-18.74
-20.07
-21.73
-24.08
-27.27
-31.00
-34.84
-37.98
-39.47
-38.60
-35.35
-30.25
-24.16
-17.85
-11.85
-7.40
-5.26
-5.20
-6.19
-7.18
-7.50
-6.92
-5.48
-3.38
-2.71
-4.81
-9.26
-14.19
-17.96
-19.89
-20.15
-19.20
-17.51
-18.48
-24.26
-34.09
-44.92
-53.89
-59.85
-63.02
-64.51
-65.85
-72.68
-89.23
-115.66
-148.53
-183.45
-216.96
-246.67
-271.43
-267.29
-224.68
-155.83
-85.84
-32.89
-0.70
15.74
23.57
28.36
33.11
34.92
31.25
22.96
13.62
6.68
3.29
2.98
4.53
7.10
7.61
3.80
-2.23
-7.22
-8.81
-7.23
-3.85
-0.12
3.11
3.87
1.21
-4.06
-10.68
-18.05
-27.34
-40.09
-56.88
-76.38
-96.30
-113.22
-123.27
-125.84
-121.31
-112.12
-101.25
-90.76
-81.07
-71.83
-62.68
-53.70
-45.74
-39.45
-34.95
-31.38
-27.27
-21.41
-13.31
-3.68
6.13
14.75
21.67
27.16
32.21
38.08
45.82
55.93
68.21
82.05
96.65
111.57
126.77
142.54
159.49
178.32
199.65
223.79
250.31
277.67
303.09
322.90
333.51
332.82
321.02
300.63
275.52
249.40
224.74
202.39
182.02
163.08
145.37
129.17
114.83
102.36
91.23
80.63
69.88
58.75
47.54
36.91
27.54
19.74
13.38
7.90
2.62
-2.94
-8.96
-15.28
-21.58
-27.63
-33.32
-38.73
-43.92
-48.94
-53.70
-57.98
-61.42
-63.66
-64.41
-63.62
-61.62
-58.95
-56.22
-53.75
-51.55
-49.33
-46.71
-43.58
-40.13
-36.80
-34.10
-32.36
-31.55
-31.37
-31.27
-30.71
-29.38
-27.28
-24.78
-22.40
-20.59
-19.54
-19.08
-18.92
-18.78
-18.61
-18.58
-18.90
-19.63
-20.57
-21.43
-21.98
-22.25
-22.47
-22.93
-23.69
-24.46
-24.78
-24.25
-22.93
-21.47
-20.91
-22.11
-25.23
-29.36
-32.74
-33.47
-30.38
-23.65
-14.77
-5.96
0.93
5.09
7.09
8.39
10.46
13.99
18.47
22.51
24.54
23.72
20.43
16.18
12.96
12.41
15.10
20.40
26.82
32.59
36.06
35.86
31.00
21.34
8.39
-4.26
-11.45
-8.31
7.28
32.93
61.92
85.49
96.34
91.38
72.44
44.77
14.44
-13.82
-37.35
-55.00
-66.13
-70.27
-67.41
-58.64
-46.24
-33.16
-22.29
-15.91
-15.50
-21.46
-32.74
-46.38
-57.68
-61.44
-54.09
-35.78
-10.75
14.11
32.34
40.87
40.90
36.31
30.51
23.85
13.73
-2.70
-24.93
-47.35
-60.82
-57.08
-33.51
4.80
46.98
81.24
100.16
103.23
95.24
81.96
65.92
45.34
16.81
-20.19
-60.10
-92.04
-104.48
-91.23
-55.43
-8.78
33.53
59.45
64.71
53.16
32.71
10.14
-12.14
-35.52
-61.72
-89.04
-111.22
-119.99
-109.39
-79.63
-37.97
4.11
35.68
50.52
48.63
34.85
15.78
-2.96
-18.01
-27.83
-31.67
-28.88
-19.15
-3.25
16.35
35.71
50.34
56.85
54.09
43.54
28.63
13.41
1.14
-6.60
-10.02
-10.45
-9.41
-7.96
-6.43
-4.69
-2.74
-0.96
-0.14
-1.34
-5.61
-13.57
-25.01
-38.63
-51.86
-61.46
-64.33
-58.73
-45.04
-25.92
-5.45
12.13
23.77
28.39
26.84
21.23
14.02
7.16
1.85
-1.47
-2.63
-1.60
1.67
6.94
13.38
19.45
23.30
23.57
20.22
14.76
9.72
7.54
9.44
14.84
21.58
26.79
27.93
23.48
13.33
-1.07
-16.96
-30.68
-38.65
-38.46
-30.00
-15.73
-0.09
12.10
17.33
14.54
5.19
-7.52
-19.95
-29.23
-33.83
-33.69
-29.78
-23.65
-16.82
-10.45
-5.10
-0.73
3.06
6.79
10.84
15.27
19.85
24.06
27.27
28.89
28.53
26.12
21.96
16.64
10.88
5.36
0.66
-2.75
-4.57
-4.75
-3.61
-1.99
-1.00
-1.79
-5.04
-10.64
-17.69
-24.79
-30.60
-34.26
-35.55
-34.74
-32.31
-28.72
-24.26
-19.14
-13.64
-8.16
-3.13
1.10
4.44
7.03
9.19
11.28
13.47
15.71
17.75
19.27
20.10
20.35
20.36
20.52
21.08
21.91
22.59
22.63
21.67
19.69
16.97
13.95
11.01
8.33
5.83
3.26
0.34
-3.18
-7.43
-12.42
-17.94
-23.60
-28.81
-32.80
-34.86
-34.54
-31.78
-27.04
-21.09
-14.79
-8.82
-3.47
1.28
5.60
9.63
13.36
16.63
19.31
21.37
22.87
23.99
24.81
25.36
25.58
25.44
24.98
24.38
23.85
23.54
23.42
23.23
22.58
21.11
18.66
15.36
11.55
7.68
4.06
0.88
-1.87
-4.31
-6.70
-9.41
-12.90
-17.48
-23.17
-29.43
-35.26
-39.44
-41.02
-39.59
-35.50
-29.57
-22.85
-16.23
-10.24
-5.03
-0.55
3.33
6.69
9.48
11.60
12.97
13.67
13.96
14.21
14.76
15.69
16.81
17.74
18.12
17.82
17.02
16.09
15.37
15.00
14.86
14.69
14.26
13.50
12.51
11.40
10.17
8.73
6.89
4.59
1.91
-0.93
-3.68
-6.16
-8.31
-10.12
-11.61
-12.79
-13.69
-14.32
-14.73
-14.88
-14.53
-13.28
-10.72
-6.68
-1.38
4.58
10.42
15.49
19.51
22.69
25.46
28.24
31.16
33.96
36.13
37.22
37.08
35.96
34.35
32.72
31.34
30.24
29.31
28.50
27.81
27.26
26.77
26.03
24.65
22.35
19.16
15.48
11.86
8.84
6.61
5.05
3.85
2.67
1.30
-0.31
-2.10
-3.99
-5.89
-7.77
-9.63
-11.55
-13.67
-16.22
-19.38
-23.12
-27.10
-30.70
-33.19
-34.04
-33.15
-30.79
-27.54
-23.93
-20.35
-16.97
-13.75
-10.63
-7.61
-4.76
-2.17
0.14
2.27
4.43
6.84
9.63
12.70
15.70
18.15
19.55
19.70
18.74
17.19
15.71
14.81
14.68
15.10
15.63
15.79
15.27
14.02
12.21
10.13
8.07
6.18
4.46
2.76
0.91
-1.24
-3.66
-6.18
-8.50
-10.36
-11.67
-12.51
-13.15
-13.87
-14.91
-16.35
-18.04
-19.64
-20.72
-20.84
-19.72
-17.36
-14.11
-10.54
-7.28
-4.84
-3.35
-2.64
-2.31
-1.96
-1.42
-0.73
-0.14
0.11
-0.03
-0.46
-0.91
-1.15
-1.08
-0.75
-0.31
0.14
0.57
1.06
1.66
2.33
2.93
3.30
3.27
2.78
1.90
0.71
-0.69
-2.19
-3.77
-5.41
-7.07
-8.70
-10.17
-11.41
-12.41
-13.31
-14.33
-15.76
-17.76
-20.32
-23.17
-25.86
-27.81
-28.52
-27.66
-25.22
-21.50
-17.08
-12.58
-8.46
-4.86
-1.56
1.74
5.27
8.87
12.16
14.66
16.11
16.62
16.57
16.39
16.31
16.29
16.14
15.70
15.05
14.43
14.09
14.13
14.33
14.31
13.76
12.57
10.95
9.24
7.72
6.49
5.41
4.25
2.89
1.33
-0.34
-1.99
-3.61
-5.25
-6.94
-8.69
-10.47
-12.33
-14.42
-16.95
-19.99
-23.31
-26.39
-28.51
-29.05
-27.72
-24.73
-20.63
-16.14
-11.88
-8.24
-5.33
-3.08
-1.31
0.18
1.55
2.95
4.41
5.90
7.29
8.46
9.31
9.84
10.11
10.23
10.30
10.30
10.20
9.95
9.61
9.32
9.25
9.46
9.81
10.06
9.89
9.17
7.97
6.56
5.24
4.17
3.33
2.55
1.67
0.63
-0.49
-1.61
-2.71
-3.84
-5.10
-6.45
-7.80
-8.97
-9.90
-10.71
-11.73
-13.28
-15.50
-18.22
-20.92
-22.93
-23.71
-23.08
-21.27
-18.78
-16.18
-13.85
-11.94
-10.41
-9.19
-8.23
-7.56
-7.13
-6.80
-6.33
-5.57
-4.48
-3.20
-1.90
-0.70
0.43
1.60
2.90
4.29
5.64
6.81
7.68
8.24
8.57
8.71
8.70
8.54
8.18
7.62
6.88
6.09
5.35
4.78
4.33
3.89
3.30
2.46
1.38
0.21
-0.89
-1.87
-2.79
-3.78
-4.94
-6.28
-7.67
-9.05
-10.40
-11.90
-13.76
-16.15
-19.05
-22.12
-24.85
-26.66
-27.09
-26.02
-23.77
-20.95
-18.23
-16.04
-14.44
-13.15
-11.73
-9.92
-7.73
-5.44
-3.42
-1.93
-1.10
-0.83
-0.98
-1.32
-1.62
-1.63
-1.15
-0.12
1.31
2.79
3.91
4.35
4.00
3.04
1.76
0.42
-0.88
-2.25
-3.96
-6.24
-9.13
-12.32
-15.19
-16.97
-16.97
-14.93
-11.11
-6.28
-1.45
2.43
4.76
5.42
4.68
3.02
0.90
-1.32
-3.52
-5.74
-8.18
-11.11
-14.70
-19.01
-23.74
-28.33
-32.05
-34.17
-34.19
-31.97
-27.81
-22.25
-16.03
-9.82
-4.13
0.83
5.08
8.82
12.37
16.03
20.13
25.00
30.90
37.80
45.24
52.26
57.68
60.53
60.53
58.21
54.75
51.34
48.67
46.68
44.82
42.42
39.22
35.35
31.28
27.46
24.13
21.29
18.77
16.37
13.91
11.36
8.75
6.15
3.64
1.25
-1.12
-3.59
-6.29
-9.19
-12.18
-15.07
-17.78
-20.30
-22.68
-24.91
-26.83
-28.22
-28.84
-28.53
-27.25
-24.99
-21.79
-17.64
-12.70
-7.32
-2.06
2.45
5.67
7.41
7.84
7.35
6.35
5.12
3.74
2.24
0.72
-0.59
-1.42
-1.57
-1.09
-0.19
0.80
1.70
2.49
3.26
4.11
4.96
5.65
5.95
5.79
5.25
4.56
3.88
3.28
2.67
1.84
0.65
-1.03
-3.19
-5.78
-8.73
-11.92
-15.18
-18.27
-20.92
-22.91
-24.22
-25.02
-25.69
-26.58
-27.94
-29.73
-31.61
-33.07
-33.59
-32.75
-30.34
-26.37
-21.17
-15.31
-9.54
-4.65
-1.13
1.00
2.10
2.77
3.43
4.16
4.76
4.96
4.67
4.10
3.59
3.38
3.40
3.44
3.26
2.86
2.40
2.08
2.00
2.01
1.91
1.53
0.83
-0.16
-1.41
-2.92
-4.64
-6.37
-7.79
-8.68
-9.06
-9.25
-9.67
-10.60
-11.98
-13.50
-14.86
-16.06
-17.37
-19.11
-21.30
-23.55
-25.08
-25.12
-23.25
-19.61
-14.73
-9.43
-4.42
-0.13
3.35
6.23
8.76
11.10
13.20
14.87
15.89
16.20
15.93
15.36
14.76
14.26
13.80
13.33
12.83
12.39
12.16
12.10
12.04
11.67
10.78
9.33
7.48
5.48
3.54
1.76
0.13
-1.51
-3.35
-5.66
-8.69
-12.49
-16.84
-21.10
-24.43
-26.06
-25.59
-23.14
-19.28
-14.75
-10.21
-6.06
-2.46
0.55
2.99
4.90
6.34
7.37
8.08
8.50
8.68
8.68
8.57
8.46
8.39
8.37
8.38
8.50
8.83
9.43
10.19
10.74
10.59
9.39
7.18
4.34
1.46
-1.00
-3.00
-4.91
-7.20
-10.22
-13.92
-17.93
-21.78
-25.06
-27.56
-29.13
-29.63
-28.87
-26.72
-23.30
-18.99
-14.37
-9.99
-6.22
-3.13
-0.60
1.65
3.88
6.28
8.96
11.88
14.86
17.55
19.50
20.36
20.07
18.94
17.57
16.52
16.04
15.88
15.49
14.30
12.13
9.27
6.30
3.82
2.10
1.03
0.25
-0.60
-1.69
-3.01
-4.51
-6.33
-8.81
-12.29
-16.89
-22.23
-27.43
-31.44
-33.36
-32.81
-30.04
-25.75
-20.77
-15.78
-11.10
-6.82
-2.91
0.64
3.84
6.68
9.25
11.60
13.69
15.40
16.59
17.24
17.52
17.75
18.25
19.10
20.17
21.14
21.69
21.70
21.22
20.44
19.51
18.48
17.24
15.66
13.65
11.26
8.68
6.20
4.11
2.51
1.28
0.10
-1.43
-3.61
-6.58
-10.26
-14.43
-18.80
-23.00
-26.64
-29.19
-30.15
-29.21
-26.41
-22.18
-17.22
-12.25
-7.76
-3.88
-0.46
2.71
5.73
8.56
11.03
12.99
14.40
15.41
16.29
17.27
18.50
19.95
21.53
23.10
24.60
25.94
27.07
27.84
28.10
27.76
26.83
25.48
23.95
22.42
21.01
19.72
18.45
17.06
15.38
13.22
10.48
7.22
3.68
0.30
-2.53
-4.66
-6.33
-8.10
-10.60
-14.12
-18.49
-23.12
-27.26
-30.27
-31.81
-31.77
-30.22
-27.34
-23.43
-18.97
-14.55
-10.57
-7.15
-4.03
-0.80
2.77
6.48
9.75
11.98
12.95
13.02
12.94
13.46
14.88
16.96
19.14
20.91
22.06
22.68
23.01
23.16
23.07
22.58
21.57
20.10
18.40
16.78
15.36
14.09
12.73
11.02
8.85
6.27
3.51
0.80
-1.69
-3.94
-5.98
-7.85
-9.69
-11.63
-13.93
-16.83
-20.43
-24.47
-28.38
-31.32
-32.52
-31.57
-28.57
-24.08
-18.91
-13.84
-9.33
-5.53
-2.24
0.81
3.86
6.95
9.92
12.50
14.46
15.74
16.46
16.86
17.15
17.47
17.86
18.26
18.63
18.91
19.07
19.12
19.07
18.96
18.74
18.31
17.48
16.07
14.02
11.50
8.86
6.48
4.53
2.96
1.45
-0.33
-2.57
-5.22
-8.16
-11.27
-14.52
-17.82
-20.94
-23.44
-24.75
-24.43
-22.38
-18.95
-14.76
-10.46
-6.51
-3.06
0.01
3.00
6.19
9.69
13.40
17.02
20.15
22.43
23.72
24.13
23.93
23.49
23.08
22.88
23.02
23.55
24.50
25.76
27.05
28.00
28.26
27.67
26.38
24.76
23.14
21.71
20.45
19.22
17.94
16.63
15.33
14.03
12.57
10.72
8.34
5.52
2.56
-0.15
-2.35
-4.06
-5.51
-7.01
-8.82
-11.07
-13.83
-17.13
-20.97
-25.21
-29.44
-33.06
-35.36
-35.87
-34.46
-31.52
-27.70
-23.69
-19.93
-16.51
-13.27
-9.95
-6.39
-2.66
1.10
4.70
8.01
10.98
13.60
15.85
17.71
19.16
20.22
20.95
21.43
21.77
22.07
22.43
22.92
23.51
24.02
24.18
23.75
22.67
21.07
19.26
17.52
16.00
14.69
13.47
12.29
11.08
9.91
8.77
7.69
6.62
5.52
4.27
2.74
0.80
-1.57
-4.22
-6.84
-9.11
-10.87
-12.20
-13.45
-15.06
-17.39
-20.69
-24.89
-29.68
-34.43
-38.32
-40.51
-40.49
-38.30
-34.51
-30.03
-25.64
-21.76
-18.38
-15.26
-12.16
-8.99
-5.78
-2.60
0.50
3.50
6.31
8.77
10.77
12.30
13.49
14.57
15.71
16.95
18.18
19.25
20.10
20.72
21.17
21.48
21.59
21.44
21.01
20.38
19.69
19.08
18.58
18.01
17.11
15.65
13.60
11.14
8.60
6.34
4.56
3.22
2.12
0.98
-0.40
-2.12
-4.09
-6.12
-7.99
-9.52
-10.67
-11.58
-12.51
-13.72
-15.43
-17.77
-20.73
-24.20
-27.94
-31.45
-34.11
-35.28
-34.55
-32.01
-28.21
-23.92
-19.82
-16.21
-13.00
-9.99
-7.07
-4.41
-2.27
-0.76
0.30
1.30
2.65
4.44
6.37
7.98
8.89
9.09
8.99
9.17
10.11
11.89
14.19
16.44
18.09
18.86
18.78
18.12
17.20
16.27
15.44
14.68
13.93
13.15
12.30
11.37
10.33
9.13
7.81
6.44
5.14
3.97
2.89
1.77
0.41
-1.27
-3.23
-5.34
-7.39
-9.28
-10.95
-12.48
-14.03
-15.84
-18.17
-21.16
-24.72
-28.39
-31.49
-33.28
-33.26
-31.39
-28.05
-23.85
-19.37
-15.01
-11.03
-7.62
-4.96
-3.18
-2.21
-1.68
-1.05
0.19
2.23
4.87
7.60
9.94
11.63
12.69
13.40
14.02
14.69
15.39
16.05
16.62
17.10
17.47
17.60
17.31
16.44
15.07
13.55
12.37
11.90
12.10
12.55
12.60
11.79
10.06
7.81
5.64
4.01
3.03
2.46
1.93
1.10
-0.14
-1.70
-3.41
-5.08
-6.63
-8.05
-9.47
-11.03
-12.93
-15.28
-18.11
-21.32
-24.65
-27.72
-30.11
-31.41
-31.35
-29.87
-27.21
-23.81
-20.20
-16.79
-13.75
-11.05
-8.51
-6.05
-3.70
-1.62
-0.02
1.01
1.53
1.77
2.01
2.45
3.17
4.05
4.87
5.49
5.87
6.12
6.40
6.83
7.34
7.75
7.83
7.51
6.87
6.15
5.57
5.27
5.18
5.13
4.90
4.35
3.48
2.38
1.21
0.13
-0.77
-1.48
-2.13
-2.87
-3.81
-4.91
-6.01
-6.85
-7.30
-7.47
-7.66
-8.23
-9.46
-11.39
-13.90
-16.81
-19.84
-22.79
-25.38
-27.28
-28.17
-27.78
-26.07
-23.24
-19.71
-15.96
-12.44
-9.39
-6.86
-4.77
-2.98
-1.40
-0.01
1.15
2.02
2.58
2.94
3.29
3.76
4.41
5.21
6.00
6.70
7.30
7.84
8.41
9.01
9.51
9.72
9.54
8.99
8.25
7.62
7.30
7.36
7.66
7.94
7.95
7.60
6.85
5.83
4.61
3.24
1.71
0.03
-1.72
-3.41
-4.88
-6.03
-6.93
-7.78
-8.90
-10.56
-12.96
-16.11
-19.76
-23.44
-26.49
-28.26
-28.30
-26.55
-23.34
-19.31
-15.04
-10.97
-7.26
-3.84
-0.67
2.22
4.70
6.64
8.05
9.08
9.93
10.74
11.56
12.31
12.99
13.62
14.33
15.24
16.34
17.50
18.46
19.01
19.08
18.80
18.40
18.10
17.96
17.92
17.80
17.46
16.85
15.96
14.88
13.66
12.38
11.09
9.82
8.57
7.28
5.83
4.05
1.87
-0.71
-3.46
-6.08
-8.30
-10.02
-11.37
-12.70
-14.43
-16.90
-20.17
-24.08
-28.23
-32.18
-35.48
-37.77
-38.68
-38.00
-35.68
-31.95
-27.36
-22.62
-18.33
-14.79
-11.94
-9.47
-7.07
-4.66
-2.37
-0.43
1.09
2.29
3.46
4.84
6.47
8.16
9.65
10.80
11.65
12.42
13.32
14.40
15.50
16.38
16.90
17.12
17.28
17.57
18.07
18.54
18.66
18.17
17.04
15.48
13.85
12.39
11.21
10.21
9.29
8.33
7.26
6.02
4.55
2.80
0.79
-1.38
-3.57
-5.71
-7.77
-9.82
-11.98
-14.40
-17.21
-20.53
-24.37
-28.51
-32.47
-35.59
-37.26
-37.18
-35.42
-32.44
-28.78
-24.88
-20.97
-17.14
-13.47
-10.06
-7.02
-4.31
-1.77
0.78
3.36
5.75
7.67
8.93
9.69
10.38
11.48
13.23
15.45
17.68
19.46
20.62
21.28
21.74
22.17
22.52
22.54
22.06
21.09
19.85
18.62
17.61
16.84
16.23
15.68
15.14
14.56
13.87
12.92
11.55
9.67
7.35
4.81
2.29
-0.02
-2.11
-4.10
-6.19
-8.59
-11.43
-14.74
-18.50
-22.54
-26.55
-30.15
-32.90
-34.43
-34.57
-33.36
-30.96
-27.61
-23.56
-19.02
-14.31
-9.78
-5.87
-2.93
-1.16
-0.51
-0.69
-1.26
-1.75
-1.81
-1.30
-0.24
1.16
2.67
4.14
5.51
6.84
8.17
9.50
10.81
12.01
13.07
13.94
14.54
14.70
14.27
13.16
11.51
9.66
7.96
6.64
5.71
4.95
4.06
2.88
1.41
-0.21
-1.80
-3.26
-4.57
-5.85
-7.22
-8.85
-10.89
-13.50
-16.77
-20.62
-24.79
-28.79
-32.02
-33.96
-34.31
-33.10
-30.63
-27.28
-23.42
-19.28
-15.00
-10.72
-6.59
-2.82
0.39
2.92
4.78
6.10
7.07
7.89
8.77
9.85
11.20
12.75
14.40
16.03
17.57
18.99
20.25
21.30
22.02
22.33
22.23
21.79
21.08
20.10
18.76
16.96
14.63
11.86
8.83
5.78
2.88
0.25
-2.13
-4.37
-6.69
-9.33
-12.55
-16.32
-20.27
-23.68
-25.74
-25.86
-24.01
-20.69
-16.72
-12.75
-9.08
-5.65
-2.26
1.16
4.39
7.08
9.01
10.23
11.13
12.13
13.50
15.21
16.97
18.49
19.69
20.72
21.88
23.38
25.15
26.87
28.11
28.58
28.21
27.19
25.83
24.39
23.02
21.69
20.34
18.81
17.00
14.79
12.22
9.40
6.54
3.86
1.46
-0.70
-2.84
-5.15
-7.86
-11.09
-14.94
-19.44
-24.44
-29.52
-34.00
-37.08
-38.11
-36.88
-33.75
-29.43
-24.70
-20.15
-16.01
-12.20
-8.56
-4.98
-1.47
1.84
4.85
7.49
9.79
11.78
13.53
15.08
16.44
17.64
18.74
19.84
21.02
22.34
23.77
25.15
26.27
26.87
26.79
26.04
24.74
23.15
21.51
19.98
18.59
17.24
15.82
14.20
12.31
10.13
7.62
4.80
1.72
-1.41
-4.32
-6.77
-8.71
-10.40
-12.32
-15.00
-18.78
-23.56
-28.83
-33.81
-37.78
-40.21
-40.90
-39.90
-37.43
-33.80
-29.38
-24.58
-19.80
-15.33
-11.27
-7.52
-3.84
-0.09
3.71
7.39
10.70
13.47
15.70
17.51
19.09
20.61
22.23
23.97
25.77
27.47
28.86
29.71
29.96
29.68
29.06
28.29
27.46
26.53
25.41
24.10
22.65
21.18
19.72
18.12
16.14
13.59
10.47
7.05
3.78
1.02
-1.06
-2.62
-4.05
-5.85
-8.40
-11.94
-16.51
-21.93
-27.84
-33.69
-38.81
-42.58
-44.59
-44.78
-43.49
-41.26
-38.59
-35.71
-32.57
-28.99
-24.93
-20.76
-17.10
-14.63
-13.66
-13.93
-14.74
-15.24
-14.87
-13.70
-12.32
-11.68
-12.57
-15.28
-19.42
-24.10
-28.38
-31.78
-34.53
-37.59
-42.14
-49.16
-59.09
-71.99
-87.58
-105.34
-124.26
-142.73
-158.82
-171.15
-179.84
-186.85
-195.16
-207.09
-222.71
-239.42
-253.05
-259.99
-258.92
-251.19
-239.67
-226.90
-213.79
-199.59
-182.99
-163.43
-141.72
-119.63
-98.84
-79.85
-61.66
-42.29
-19.83
6.54
36.10
66.89
96.60
123.53
147.30
168.90
190.18
213.32
240.20
272.06
308.96
349.42
390.10
426.20
452.55
465.17
462.76
447.14
422.51
393.83
365.06
338.23
313.65
290.78
269.25
249.20
231.01
214.67
199.40
183.83
166.55
146.86
124.99
102.15
79.86
59.39
41.21
24.97
9.86
-4.93
-19.68
-33.93
-46.73
-57.11
-64.42
-68.71
-70.52
-70.69
-69.95
-68.73
-67.12
-65.00
-62.28
-59.03
-55.55
-52.34
-49.91
-48.57
-48.22
-48.32
-48.01
-46.52
-43.47
-39.18
-34.49
-30.44
-27.78
-26.65
-26.56
-26.72
-26.37
-25.19
-23.25
-20.96
-18.77
-16.96
-15.62
-14.61
-13.69
-12.58
-11.04
-8.94
-6.32
-3.39
-0.46
2.14
4.23
5.79
6.96
8.00
9.17
10.61
12.36
14.26
15.94
16.89
16.57
14.52
10.71
5.64
0.33
-3.91
-6.01
-5.72
-3.93
-2.58
-4.01
-10.01
-21.07
-36.38
-54.44
-74.10
-95.19
-118.55
-145.16
-175.15
-207.31
-239.39
-269.21
-295.87
-320.39
-345.26
-373.07
-405.07
-440.20
-475.35
-506.22
-528.65
-539.54
-537.30
-521.71
-493.67
-454.95
-407.99
-355.75
-301.35
-247.64
-196.73
-149.77
-106.97
-67.83
-31.42
3.36
37.57
72.13
107.61
144.27
182.02
220.33
258.02
293.12
323.11
345.43
358.36
361.60
356.43
345.19
330.43
314.16
297.49
280.89
264.56
248.84
234.15
220.80
208.56
196.71
184.23
170.47
155.68
141.24
129.25
121.66
119.24
121.15
125.11
128.36
128.75
125.48
118.99
110.39
100.66
90.25
79.15
67.38
55.37
43.98
34.24
26.93
22.30
20.03
19.38
19.47
19.57
19.18
18.14
16.51
14.50
12.27
9.84
7.19
4.28
1.23
-1.67
-4.11
-5.88
-6.99
-7.72
-8.38
-9.25
-10.43
-11.88
-13.55
-15.46
-17.77
-20.74
-24.52
-28.97
-33.49
-37.11
-38.72
-37.45
-33.02
-25.91
-17.05
-7.56
1.76
10.60
19.07
27.44
35.78
43.79
50.83
56.09
58.75
58.16
54.06
46.63
36.67
25.46
14.57
5.46
-0.83
-3.92
-4.03
-1.82
1.92
6.40
10.96
15.09
18.45
20.92
22.59
23.76
24.77
25.92
27.33
28.96
30.59
31.92
32.65
32.59
31.70
30.13
28.17
26.20
24.50
23.23
22.29
21.43
20.25
18.37
15.58
11.92
7.75
3.60
0.06
-2.45
-3.84
-4.26
-3.96
-3.17
-1.93
-0.21
1.99
4.50
7.02
9.27
11.09
12.53
13.80
15.14
16.71
18.53
20.49
22.42
24.09
25.27
25.71
25.17
23.45
20.48
16.35
11.29
5.67
-0.18
-5.89
-11.22
-15.96
-19.94
-23.08
-25.37
-26.89
-27.79
-28.24
-28.39
-28.34
-28.14
-27.92
-27.83
-28.08
-28.87
-30.19
-31.94
-33.87
-35.79
-37.60
-39.34
-41.03
-42.57
-43.78
-44.46
-44.52
-44.08
-43.41
-42.80
-42.36
-41.97
-41.40
-40.45
-39.10
-37.50
-35.89
-34.38
-32.94
-31.47
-29.89
-28.28
-26.86
-25.82
-25.25
-25.03
-24.89
-24.52
-23.71
-22.34
-20.40
-17.98
-15.17
-12.12
-8.96
-5.80
-2.65
0.46
3.52
6.43
8.99
10.95
12.13
12.46
12.03
10.99
9.49
7.68
5.69
3.70
1.93
0.52
-0.49
-1.28
-2.15
-3.40
-5.19
-7.47
-10.03
-12.53
-14.64
-16.03
-16.39
-15.54
-13.41
-10.13
-6.04
-1.50
3.14
7.69
12.12
16.44
20.63
24.53
27.93
30.66
32.69
34.17
35.38
36.60
37.96
39.40
40.64
41.33
41.10
39.77
37.41
34.26
30.72
27.23
24.20
21.99
20.90
21.07
22.41
24.50
26.70
28.32
28.80
27.99
26.11
23.62
20.97
18.46
16.17
14.04
12.02
10.10
8.37
6.84
5.45
4.05
2.41
0.34
-2.21
-5.11
-8.12
-10.91
-13.18
-14.71
-15.36
-15.05
-13.69
-11.16
-7.35
-2.16
4.40
12.15
20.71
29.53
37.96
45.35
51.29
55.66
58.64
60.58
61.81
62.44
62.28
60.95
58.00
53.07
46.00
36.86
25.86
13.43
0.17
-13.13
-25.63
-36.65
-45.86
-53.41
-59.75
-65.41
-70.60
-75.05
-77.93
-78.15
-74.67
-66.94
-55.16
-40.33
-24.10
-8.43
4.80
14.21
19.05
19.30
15.59
8.90
0.44
-8.61
-17.23
-24.70
-30.70
-35.24
-38.63
-41.22
-43.26
-44.82
-45.81
-46.09
-45.52
-43.99
-41.49
-38.05
-33.82
-29.08
-24.24
-19.76
-15.98
-13.00
-10.67
-8.64
-6.50
-4.00
-1.10
2.03
5.09
7.76
9.76
10.96
11.25
10.59
8.97
6.42
3.09
-0.61
-4.08
-6.60
-7.62
-6.96
-4.95
-2.34
-0.03
1.27
1.26
0.04
-2.00
-4.45
-7.03
-9.53
-11.77
-13.46
-14.22
-13.77
-12.00
-9.12
-5.54
-1.73
1.91
5.15
7.91
10.16
11.86
12.90
13.19
12.61
11.15
8.87
5.94
2.67
-0.62
-3.58
-5.94
-7.58
-8.46
-8.67
-8.33
-7.55
-6.35
-4.62
-2.07
1.63
6.70
13.05
20.14
27.12
33.04
37.11
39.00
38.76
36.66
33.00
28.01
21.90
15.08
8.10
1.68
-3.56
-7.27
-9.45
-10.31
-10.12
-8.99
-6.88
-3.70
0.61
5.87
11.65
17.37
22.44
26.36
28.73
29.34
28.13
25.26
21.09
16.16
11.00
5.93
0.79
-5.08
-12.55
-22.38
-34.68
-48.75
-63.25
-76.70
-88.09
-97.13
-104.21
-109.90
-114.44
-117.46
-118.16
-115.65
-109.45
-99.67
-86.80
-71.29
-53.23
-32.35
-8.40
18.49
47.43
76.93
105.07
130.00
150.11
164.35
172.30
174.33
171.67
166.18
159.99
154.92
151.85
150.59
149.87
147.83
142.65
132.98
118.23
98.49
74.44
47.28
18.69
-9.24
-34.32
-54.72
-69.60
-79.32
-85.24
-88.93
-91.39
-92.58
-91.86
-88.71
-83.48
-77.37
-71.74
-67.18
-63.08
-57.99
-50.51
-40.30
-28.36
-16.54
-6.68
0.17
3.97
5.39
5.15
3.67
0.93
-3.24
-8.84
-15.49
-22.39
-28.54
-33.07
-35.51
-35.83
-34.50
-32.22
-29.83
-28.03
-27.34
-28.05
-30.26
-33.85
-38.48
-43.52
-48.16
-51.63
-53.45
-53.67
-52.84
-51.64
-50.47
-49.24
-47.43
-44.48
-40.30
-35.42
-30.77
-27.20
-25.03
-24.00
-23.53
-23.18
-22.87
-22.88
-23.55
-24.98
-26.94
-28.89
-30.29
-30.71
-30.07
-28.56
-26.60
-24.64
-23.01
-21.77
-20.70
-19.47
-17.84
-15.84
-13.77
-12.07
-11.02
-10.65
-10.64
-10.55
-9.99
-8.79
-7.03
-4.92
-2.70
-0.52
1.54
3.47
5.30
7.00
8.56
9.93
11.08
11.97
12.53
12.60
11.99
10.46
7.87
4.18
-0.50
-5.93
-11.82
-17.79
-23.40
-28.11
-31.37
-32.75
-32.11
-29.73
-26.24
-22.45
-19.04
-16.38
-14.48
-13.16
-12.20
-11.40
-10.67
-9.93
-9.13
-8.19
-7.19
-6.24
-5.51
-5.13
-5.02
-5.02
-4.89
-4.49
-3.86
-3.22
-2.84
-2.91
-3.51
-4.54
-5.82
-7.19
-8.53
-9.87
-11.31
-12.98
-15.00
-17.37
-20.03
-22.77
-25.29
-27.17
-27.91
-26.98
-24.00
-18.92
-12.14
-4.38
3.48
10.64
16.59
21.07
24.02
25.43
25.39
24.11
22.05
19.81
18.02
17.11
17.27
18.43
20.43
23.09
26.19
29.46
32.46
34.63
35.53
34.92
32.88
29.73
25.90
21.75
17.52
13.34
9.26
5.35
1.61
-2.02
-5.64
-9.37
-13.28
-17.22
-20.89
-23.91
-25.91
-26.65
-26.08
-24.26
-21.35
-17.55
-13.05
-8.12
-3.06
1.80
6.11
9.65
12.32
14.16
15.30
15.94
16.18
16.10
15.74
15.18
14.61
14.28
14.43
15.16
16.31
17.49
18.24
18.23
17.34
15.74
13.72
11.53
9.30
7.06
4.75
2.36
-0.13
-2.77
-5.65
-8.93
-12.68
-16.73
-20.60
-23.61
-25.03
-24.43
-21.84
-17.81
-13.17
-8.78
-5.27
-2.93
-1.73
-1.49
-1.91
-2.71
-3.62
-4.41
-4.91
-5.05
-4.88
-4.45
-3.88
-3.19
-2.40
-1.50
-0.56
0.27
0.80
0.83
0.28
-0.76
-2.08
-3.43
-4.64
-5.73
-6.89
-8.37
-10.35
-12.85
-15.76
-18.84
-21.88
-24.65
-26.89
-28.25
-28.32
-26.75
-23.47
-18.74
-13.09
-7.17
-1.50
3.67
8.25
12.27
15.66
18.32
20.13
21.14
21.52
21.60
21.68
21.94
22.40
22.94
23.43
23.77
23.89
23.78
23.46
22.95
22.22
21.22
19.85
18.03
15.73
13.01
10.01
6.93
3.95
1.19
-1.28
-3.52
-5.68
-8.04
-10.83
-14.20
-18.05
-21.96
-25.26
-27.20
-27.23
-25.11
-21.08
-15.64
-9.48
-3.27
2.48
7.45
11.52
14.70
17.07
18.73
19.76
20.31
20.54
20.69
20.95
21.44
22.14
22.94
23.66
24.18
24.47
24.55
24.44
24.12
23.48
22.41
20.87
18.84
16.38
13.60
10.61
7.56
4.59
1.84
-0.59
-2.75
-4.81
-7.04
-9.75
-13.12
-17.14
-21.57
-25.91
-29.59
-32.02
-32.79
-31.72
-28.86
-24.52
-19.12
-13.20
-7.27
-1.83
2.77
6.32
8.80
10.35
11.17
11.54
11.66
11.70
11.77
11.94
12.24
12.71
13.40
14.38
15.65
17.11
18.55
19.71
20.34
20.33
19.76
18.79
17.57
16.16
14.51
12.51
10.11
7.37
4.39
1.37
-1.61
-4.47
-7.17
-9.72
-12.18
-14.68
-17.38
-20.47
-24.01
-27.93
-31.93
-35.47
-37.90
-38.63
-37.32
-34.04
-29.18
-23.42
-17.41
-11.65
-6.35
-1.46
3.25
8.04
13.25
19.12
25.79
33.10
40.78
48.75
57.55
68.56
83.67
104.63
132.19
165.70
203.26
242.56
281.77
320.07
357.36
393.19
425.63
450.82
463.72
459.57
435.76
392.67
333.27
262.02
183.97
104.86
31.62
-27.74
-65.73
-78.03
-66.11
-37.50
-3.55
24.98
41.67
45.81
40.92
31.43
19.83
5.82
-12.03
-33.69
-56.33
-75.41
-87.33
-91.84
-92.40
-94.06
-100.39
-111.13
-122.25
-128.45
-126.49
-117.23
-105.24
-96.56
-95.70
-103.86
-118.98
-137.36
-155.52
-171.36
-184.34
-195.05
-204.87
-215.49
-228.68
-245.90
-267.68
-292.72
-317.29
-335.56
-341.11
-329.38
-299.80
-256.66
-207.93
-162.55
-127.42
-105.45
-95.54
-93.89
-96.13
-98.64
-99.21
-96.81
-91.13
-82.42
-71.46
-59.52
-47.95
-37.79
-29.43
-22.52
-16.35
-10.39
-4.49
1.09
5.93
9.86
13.06
16.08
19.72
24.85
32.40
43.23
58.03
76.89
99.07
122.69
145.06
163.10
174.18
176.78
171.04
158.89
143.61
128.85
117.49
110.72
107.71
106.07
102.84
95.63
83.31
66.22
45.77
23.89
2.38
-17.43
-34.85
-49.76
-62.47
-73.56
-83.56
-92.84
-101.47
-109.24
-115.72
-120.26
-122.14
-120.64
-115.31
-106.14
-93.89
-80.00
-66.11
-53.35
-41.93
-31.36
-21.18
-11.82
-4.65
-1.23
-1.94
-5.14
-7.38
-4.78
5.19
22.70
45.75
71.43
97.18
121.46
143.48
162.51
177.47
187.13
190.58
187.63
178.89
165.61
149.28
131.26
112.56
93.59
74.36
54.56
34.04
12.90
-8.38
-29.26
-49.31
-68.22
-85.91
-102.59
-119.03
-136.67
-157.29
-182.03
-210.15
-238.57
-262.55
-277.36
-280.09
-270.38
-250.06
-221.92
-188.80
-153.35
-118.51
-87.71
-64.35
-50.51
-45.88
-47.51
-50.91
-51.69
-46.90
-35.56
-18.31
3.01
25.66
45.84
59.29
62.40
53.92
36.23
15.43
-0.18
-2.85
11.88
43.48
86.77
133.62
175.58
206.17
222.04
222.80
209.85
185.21
150.92
109.44
64.34
20.80
-15.16
-38.43
-46.80
-42.12
-29.48
-15.16
-4.15
1.23
1.34
-2.08
-7.37
-13.72
-21.04
-29.45
-38.71
-47.98
-56.07
-61.69
-63.92
-62.47
-57.69
-50.47
-41.70
-31.93
-21.24
-9.52
3.02
15.39
26.01
33.30
36.45
35.90
33.11
29.95
27.91
27.72
29.29
31.98
35.00
37.67
39.61
40.76
41.31
41.61
42.06
42.97
44.60
47.23
51.17
56.72
63.92
72.48
81.86
91.38
100.46
108.58
115.34
120.35
123.24
123.83
122.37
119.60
116.73
114.98
115.18
117.52
121.66
127.05
133.17
139.80
146.75
153.85
160.88
167.75
174.48
181.26
188.16
194.83
200.38
203.58
203.20
198.50
189.42
176.51
160.73
143.21
125.12
107.45
90.79
75.12
59.64
42.97
23.62
0.47
-26.79
-57.71
-91.25
-126.13
-161.08
-195.03
-227.26
-257.44
-285.80
-312.79
-338.71
-362.99
-383.75
-397.89
-401.80
-392.56
-368.89
-331.62
-283.55
-228.89
-172.65
-119.97
-75.42
-42.31
-22.07
-13.95
-15.51
-23.35
-34.17
-45.42
-55.39
-62.93
-67.17
-67.46
-63.63
-56.18
-46.25
-35.22
-24.28
-14.08
-4.85
3.44
10.78
17.01
21.89
25.28
27.24
28.13
28.57
29.17
30.39
32.40
34.95
37.65
40.07
41.99
43.38
44.25
44.49
43.76
41.67
37.88
32.40
25.56
17.90
9.99
2.27
-4.98
-11.66
-17.73
-23.26
-28.33
-33.10
-37.70
-42.14
-46.25
-49.63
-51.76
-52.16
-50.64
-47.35
-42.78
-37.61
-32.44
-27.72
-23.71
-20.55
-18.39
-17.37
-17.59
-19.01
-21.32
-24.00
-26.44
-28.13
-28.82
-28.58
-27.76
-26.87
-26.37
-26.58
-27.62
-29.45
-32.00
-35.27
-39.42
-44.78
-51.72
-60.59
-71.43
-83.78
-96.61
-108.52
-118.05
-124.18
-126.56
-125.44
-121.34
-114.73
-105.72
-94.14
-79.61
-61.76
-40.29
-15.14
13.34
44.04
74.88
102.94
124.98
138.44
142.31
137.58
126.78
113.09
99.25
86.77
75.94
66.35
57.53
49.44
42.54
37.56
35.30
36.31
40.78
48.29
57.57
66.59
73.04
75.21
72.84
67.32
61.18
56.83
55.50
56.71
58.80
59.88
58.89
56.04
52.59
50.31
51.00
56.28
67.41
85.03
108.71
136.69
165.99
193.10
215.03
230.11
238.19
240.19
237.35
230.50
219.97
205.81
188.12
167.20
143.45
117.09
88.30
57.49
25.69
-5.40
-33.86
-58.18
-77.92
-93.71
-106.72
-117.99
-127.88
-136.09
-142.11
-145.78
-147.39
-147.42
-146.11
-143.15
-137.87
-129.80
-119.11
-106.81
-94.38
-83.21
-74.05
-66.86
-61.11
-56.22
-51.97
-48.45
-45.84
-44.01
-42.39
-40.24
-37.01
-32.79
-28.22
-24.19
-21.16
-18.90
-16.65
-13.68
-9.98
-6.50
-4.79
-6.22
-11.22
-18.94
-27.52
-34.86
-39.31
-40.09
-37.27
-31.48
-23.55
-14.36
-4.70
4.61
12.86
19.44
23.96
26.29
26.50
24.90
21.88
17.92
13.46
8.93
4.61
0.63
-3.02
-6.39
-9.49
-12.26
-14.55
-16.32
-17.69
-19.06
-20.97
-24.03
-28.63
-34.83
-42.21
-49.90
-56.77
-61.67
-63.69
-62.42
-58.02
-51.11
-42.54
-33.00
-22.84
-12.05
-0.39
12.22
25.50
38.76
51.11
61.74
70.19
76.43
80.77
83.68
85.57
86.75
87.40
87.67
87.80
88.13
89.04
90.82
93.51
