1520866167.00
64.000000
-0.00
-0.00
-0.00
-0.00
-0.00
-0.00
-0.00
-0.00
-0.00
-0.00
0.00
0.01
0.01
-0.00
-0.03
-0.05
-0.05
0.00
0.13
0.36
0.66
1.01
1.37
1.72
2.06
2.40
2.79
3.24
3.80
4.42
5.06
5.66
6.20
6.68
7.15
7.68
8.31
9.14
10.09
11.04
11.88
12.56
13.14
13.76
14.65
15.96
17.91
20.32
22.90
25.38
27.58
29.57
31.68
34.32
37.81
42.54
48.15
54.10
59.83
64.97
69.58
74.14
79.34
85.71
93.76
103.00
112.62
121.73
129.77
136.75
143.30
150.75
157.77
166.64
177.95
191.79
206.97
220.57
228.25
225.36
208.53
176.87
132.76
80.05
23.07
-34.94
-92.44
-149.16
-205.23
-260.37
-313.74
-363.87
-409.83
-450.91
-486.50
-515.74
-537.23
-549.22
-549.96
-538.37
-514.21
-478.67
-433.88
-382.45
-327.02
-269.84
-212.63
-156.66
-102.95
-52.37
-5.90
35.58
71.43
101.35
125.50
144.38
158.69
169.15
176.37
180.75
182.57
182.07
179.51
175.23
169.65
163.18
156.15
148.81
141.30
133.69
126.02
118.33
110.69
103.16
95.80
88.68
81.83
75.25
68.95
62.95
57.25
51.86
46.78
42.03
37.59
33.45
29.61
26.07
22.81
19.83
17.11
14.67
12.48
10.54
8.83
7.35
6.07
4.97
4.05
3.27
2.62
2.09
1.65
1.30
1.01
0.79
0.61
0.48
0.37
0.30
0.24
0.21
0.19
0.18
0.19
0.20
0.23
0.26
0.29
0.33
0.37
0.42
0.46
0.51
0.56
0.61
0.67
0.72
0.79
0.86
0.93
1.01
1.10
1.19
1.30
1.42
1.56
1.72
1.89
2.08
2.29
2.53
2.79
3.08
3.40
3.75
4.13
4.55
5.01
5.50
6.03
6.60
7.21
7.87
8.57
9.32
10.11
10.95
11.83
12.76
13.75
14.79
15.90
17.06
18.30
19.59
20.91
22.21
23.44
24.51
25.30
25.69
25.55
24.80
23.33
21.13
18.21
14.62
10.52
6.06
1.45
-3.08
-7.33
-11.11
-14.26
-16.70
-18.38
-19.28
-19.47
-19.05
-18.14
-16.88
-15.41
-13.83
-12.22
-10.59
-8.91
-7.20
-5.45
-3.67
-1.90
-0.14
1.59
3.29
5.03
6.93
8.95
11.07
13.27
15.50
17.70
19.87
22.06
24.42
27.22
30.39
33.91
37.68
41.50
45.14
48.44
51.39
54.25
57.47
61.05
64.96
69.06
72.98
76.28
78.68
80.14
81.10
82.28
83.76
85.47
87.00
87.43
85.58
80.24
70.30
54.58
36.60
17.80
-0.97
-19.48
-38.03
-57.23
-77.85
-100.72
-126.36
-154.48
-184.09
-212.39
-235.29
-248.70
-250.09
-239.51
-219.68
-194.82
-168.96
-145.18
-124.51
-106.62
-90.83
-76.89
-64.99
-55.38
-47.82
-41.44
-35.43
-29.13
-22.45
-15.79
-9.84
-5.02
-1.31
1.77
4.92
8.54
12.78
17.36
21.80
25.56
28.30
30.01
30.89
31.36
31.68
32.01
32.32
32.46
32.23
31.54
30.44
29.07
27.59
26.16
24.87
23.78
22.86
21.97
20.84
19.19
16.82
13.72
10.19
6.73
3.90
2.14
1.59
2.15
3.54
5.41
7.47
9.57
11.63
13.59
15.40
17.03
18.42
19.51
20.28
20.73
20.82
20.54
19.79
18.59
16.96
15.08
13.20
11.55
10.27
9.30
8.43
7.38
5.93
4.00
1.71
-0.81
-3.38
-5.81
-7.89
-9.34
-9.85
-9.18
-7.31
-4.46
-1.04
2.48
5.77
8.73
11.39
13.83
16.02
17.83
19.03
19.47
19.10
18.07
16.61
14.96
13.30
11.65
10.01
8.35
6.71
5.20
3.96
3.01
2.28
1.54
0.53
-1.03
-3.29
-6.15
-9.30
-12.25
-14.44
-15.42
-14.97
-13.24
-10.61
-7.55
-4.47
-1.60
1.03
3.41
5.50
7.18
8.35
8.99
9.20
9.19
9.13
9.10
9.06
8.90
8.55
7.97
7.23
6.40
5.52
4.58
3.47
2.12
0.44
-1.57
-3.82
-6.21
-8.65
-11.10
-13.59
-16.07
-18.42
-20.37
-21.55
-21.61
-20.35
-17.86
-14.43
-10.56
-6.69
-3.13
0.02
2.78
5.21
7.25
8.77
9.64
9.84
9.54
9.02
8.58
8.35
8.28
8.21
7.96
7.41
6.60
5.63
4.62
3.63
2.58
1.34
-0.27
-2.34
-4.86
-7.71
-10.70
-13.64
-16.35
-18.63
-20.25
-20.99
-20.71
-19.41
-17.29
-14.67
-11.93
-9.37
-7.19
-5.46
-4.26
-3.65
-3.65
-4.16
-5.08
-6.24
-7.54
-9.01
-10.74
-12.88
-15.46
-18.37
-21.35
-24.10
-26.39
-28.17
-29.61
-31.06
-32.84
-35.22
-38.19
-41.52
-44.81
-47.61
-49.66
-51.01
-52.09
-53.60
-56.25
-60.38
-65.58
-70.56
-73.31
-71.53
-63.22
-47.27
-23.92
5.16
37.12
68.54
96.33
118.50
134.60
145.45
152.42
156.53
157.91
155.83
149.32
137.77
121.40
101.06
77.80
52.49
25.92
-0.78
-25.88
-47.26
-63.20
-73.32
-79.11
-83.59
-90.04
-100.49
-114.57
-129.45
-140.72
-143.97
-136.24
-116.97
-87.91
-52.47
-14.70
21.70
54.00
80.57
100.79
114.77
123.10
126.76
127.14
125.82
124.44
124.15
125.28
127.19
128.49
127.62
123.54
116.22
106.54
95.96
85.75
76.56
68.22
59.92
50.74
39.97
27.36
13.14
-2.13
-17.61
-32.38
-45.52
-56.33
-64.56
-70.50
-74.88
-78.55
-82.10
-85.73
-89.17
-92.05
-94.09
-95.31
-95.94
-96.22
-96.19
-95.56
-93.86
-90.65
-85.81
-79.72
-73.14
-66.88
-61.35
-56.32
-51.01
-44.49
-36.21
-26.41
-16.07
-6.51
1.14
6.42
9.64
11.71
13.70
16.48
20.46
25.52
31.10
36.38
40.51
42.81
42.93
40.93
37.27
32.69
28.04
24.12
21.44
20.14
19.99
20.54
21.33
22.01
22.34
22.05
20.85
18.42
14.59
9.50
3.66
-2.18
-7.37
-11.63
-15.22
-18.65
-22.48
-26.96
-31.86
-36.61
-40.60
-43.45
-45.11
-45.83
-45.93
-45.60
-44.80
-43.38
-41.18
-38.12
-34.24
-29.54
-24.05
-17.75
-10.85
-3.76
2.94
8.76
13.61
17.82
22.04
26.86
32.51
38.76
45.07
50.82
55.46
58.55
59.72
58.74
55.64
50.88
45.37
40.27
36.63
34.99
35.21
36.50
37.67
37.53
35.25
30.57
23.81
15.84
7.69
0.35
-5.50
-9.60
-12.17
-13.77
-15.06
-16.60
-18.62
-20.95
-23.12
-24.71
-25.68
-26.52
-28.14
-31.37
-36.31
-42.06
-46.84
-48.63
-45.99
-38.72
-27.89
-15.39
-3.19
7.33
15.69
22.12
27.13
31.18
34.64
38.00
42.28
49.00
59.82
75.64
95.82
117.91
138.33
153.57
161.55
162.18
157.15
148.83
139.29
129.67
120.27
110.98
101.60
91.87
81.28
68.98
54.10
36.33
16.25
-4.83
-25.54
-45.29
-64.59
-84.82
-107.36
-132.72
-160.06
-187.31
-211.84
-231.10
-243.07
-246.42
-240.52
-225.61
-202.96
-174.98
-144.91
-116.03
-90.64
-69.43
-51.43
-34.86
-18.15
-0.76
16.73
33.08
47.20
58.61
67.38
73.81
78.05
80.02
79.63
77.23
73.95
71.48
71.36
74.01
78.06
80.47
77.71
67.35
49.43
26.51
2.59
-18.73
-35.58
-48.11
-57.57
-65.07
-70.77
-73.99
-73.96
-70.65
-65.16
-59.29
-54.93
-53.39
-54.96
-58.80
-63.23
-66.25
-66.28
-62.82
-56.73
-49.87
-44.27
-41.17
-40.66
-41.77
-43.26
-44.23
-44.42
-44.04
-43.37
-42.45
-41.08
-39.10
-36.69
-34.32
-32.36
-30.55
-27.80
-22.56
-13.67
-1.12
13.63
28.09
39.76
47.04
49.83
49.29
47.10
44.64
42.42
40.08
36.87
32.30
26.65
21.00
16.85
15.44
17.12
21.39
27.50
35.34
45.89
60.53
79.87
102.49
124.85
142.46
151.86
152.27
145.70
135.64
124.97
114.64
103.79
91.17
76.81
62.42
50.59
43.01
39.32
37.21
33.78
27.35
18.32
8.97
1.98
-0.93
0.34
4.75
10.98
18.21
26.24
35.08
44.59
54.42
64.19
73.69
82.76
90.84
96.71
98.63
94.97
85.03
69.41
49.98
29.08
8.75
-9.79
-26.11
-40.24
-52.28
-62.28
-70.36
-76.90
-82.59
-88.07
-93.60
-98.74
-102.53
-103.83
-101.93
-96.86
-89.34
-80.46
-71.20
-62.22
-53.85
-46.30
-39.89
-34.91
-31.55
-29.62
-28.63
-27.95
-27.14
-26.19
-25.55
-25.87
-27.67
-31.16
-36.12
-42.09
-48.54
-54.96
-60.94
-66.16
-70.46
-73.87
-76.75
-79.64
-83.14
-87.55
-92.57
-97.23
-100.09
-99.78
-95.48
-87.28
-76.11
-63.33
-50.35
-38.19
-27.45
-18.34
-10.98
-5.51
-2.19
-1.42
-3.57
-8.88
-17.24
-28.19
-40.85
-54.08
-66.68
-77.56
-86.00
-91.63
-94.39
-94.27
-91.26
-85.37
-76.87
-66.48
-55.32
-44.67
-35.46
-27.78
-20.64
-12.12
-0.17
16.63
38.41
63.87
90.83
116.99
140.64
160.94
177.53
189.83
196.65
196.43
188.14
172.23
150.96
127.66
105.35
85.35
66.85
47.76
26.09
1.56
-24.02
-47.49
-65.82
-77.50
-82.97
-83.85
-81.67
-76.98
-69.22
-57.43
-41.29
-21.76
-0.91
18.82
35.56
48.60
58.18
65.10
69.98
72.96
73.63
71.30
65.19
54.90
40.93
25.10
10.63
1.65
1.77
12.79
33.85
61.61
91.25
117.68
136.75
145.96
144.66
134.08
117.13
97.97
81.24
71.02
69.83
77.71
92.18
109.02
123.67
132.93
135.97
134.62
132.53
133.57
140.04
151.62
165.38
176.99
182.56
180.02
169.53
152.94
132.60
110.19
86.06
59.25
28.15
-8.50
-50.65
-96.41
-142.27
-184.16
-218.63
-243.70
-259.10
-265.93
-266.09
-261.84
-255.73
-250.39
-248.23
-250.53
-256.54
-263.23
-266.10
-260.92
-245.71
-221.69
-192.94
-164.66
-141.01
-123.67
-111.68
-102.57
-94.04
-85.26
-77.14
-71.45
-69.42
-70.57
-72.61
-72.42
-67.55
-57.47
-43.86
-29.70
-17.89
-10.03
-6.09
-4.98
-5.41
-6.45
-7.54
-8.06
-6.98
-3.10
4.31
14.85
26.88
38.16
46.69
51.44
52.49
50.76
47.72
45.12
44.85
48.62
57.38
70.64
86.33
101.35
112.78
118.93
119.91
117.26
112.92
108.31
103.89
99.34
94.16
88.15
81.55
74.82
68.40
62.55
57.28
52.48
48.02
43.70
39.36
34.81
29.90
24.56
18.74
12.51
6.06
-0.22
-5.84
-10.21
-12.89
-13.73
-12.99
-11.29
-9.38
-7.84
-6.93
-6.52
-6.27
-5.89
-5.30
-4.58
-3.93
-3.43
-3.00
-2.45
-1.61
-0.51
0.67
1.72
2.51
3.11
3.68
4.30
4.91
5.26
5.10
4.35
3.10
1.55
-0.13
-1.92
-3.91
-6.09
-8.25
-9.98
-10.84
-10.58
-9.27
-7.24
-4.89
-2.48
-0.05
2.54
5.41
8.52
11.61
14.33
16.39
17.74
18.55
19.15
19.82
20.66
21.60
22.43
23.01
23.29
23.35
23.28
23.07
22.65
21.85
20.59
18.88
16.88
14.78
12.72
10.71
8.67
6.47
4.01
1.31
-1.56
-4.40
-6.99
-9.06
-10.34
-10.67
-10.04
-8.59
-6.57
-4.28
-1.91
0.40
2.58
4.55
6.22
7.45
8.17
8.39
8.25
7.93
7.60
7.33
7.10
6.82
6.45
6.04
5.69
5.49
5.42
5.34
5.06
4.42
3.41
2.16
0.84
-0.41
-1.59
-2.78
-4.15
-5.89
-8.17
-11.10
-14.68
-18.65
-22.59
-25.89
-28.04
-28.76
-28.14
-26.58
-24.57
-22.53
-20.60
-18.72
-16.70
-14.39
-11.76
-8.92
-5.98
-3.01
-0.05
2.90
5.72
8.25
10.26
11.61
12.32
12.61
12.83
13.29
14.20
15.60
17.40
19.44
21.54
23.45
24.91
25.68
25.63
24.83
23.54
22.06
20.61
19.23
17.77
16.00
13.74
10.89
7.46
3.62
-0.36
-4.09
-7.14
-9.19
-10.13
-10.13
-9.58
-8.82
-8.00
-7.07
-5.86
-4.29
-2.54
-0.95
0.10
0.40
0.04
-0.67
-1.39
-1.94
-2.30
-2.65
-3.19
-4.00
-4.98
-5.87
-6.46
-6.69
-6.72
-6.88
-7.52
-8.78
-10.56
-12.50
-14.17
-15.30
-15.88
-16.12
-16.33
-16.76
-17.46
-18.32
-19.14
-19.72
-19.92
-19.68
-18.96
-17.77
-16.17
-14.23
-12.09
-9.91
-7.80
-5.84
-4.08
-2.48
-1.04
0.29
1.49
2.55
3.42
4.04
4.39
4.50
4.39
4.12
3.71
3.17
2.50
1.73
0.92
0.14
-0.57
-1.21
-1.84
-2.48
-3.14
-3.79
-4.39
-4.95
-5.55
-6.28
-7.22
-8.37
-9.69
-11.06
-12.37
-13.49
-14.33
-14.77
-14.71
-14.09
-12.87
-11.10
-8.86
-6.36
-3.82
-1.44
0.64
2.36
3.76
4.93
5.91
6.73
7.35
7.75
7.95
8.00
7.99
7.97
7.96
7.92
7.78
7.47
6.93
6.15
5.21
4.21
3.23
2.28
1.25
-0.04
-1.67
-3.57
-5.52
-7.22
-8.50
-9.42
-10.30
-11.52
-13.36
-15.78
-18.48
-20.91
-22.56
-23.12
-22.57
-21.15
-19.22
-17.10
-14.99
-12.96
-10.98
-9.04
-7.17
-5.42
-3.80
-2.26
-0.72
0.88
2.54
4.16
5.59
6.69
7.38
7.66
7.59
7.32
7.01
6.79
6.74
6.84
7.02
7.11
6.96
6.51
5.78
4.82
3.76
2.67
1.59
0.53
-0.54
-1.60
-2.64
-3.62
-4.52
-5.36
-6.26
-7.41
-8.94
-10.85
-12.85
-14.50
-15.29
-14.88
-13.26
-10.76
-7.87
-5.03
-2.51
-0.34
1.56
3.30
4.95
6.53
8.02
9.37
10.47
11.22
11.53
11.41
11.01
10.48
10.01
9.70
9.62
9.75
10.03
10.41
10.80
11.06
11.05
10.70
10.02
9.05
7.84
6.42
4.79
2.99
1.12
-0.64
-2.09
-3.13
-3.84
-4.42
-5.15
-6.30
-7.91
-9.84
-11.71
-13.13
-13.77
-13.51
-12.41
-10.69
-8.55
-6.15
-3.58
-0.98
1.45
3.54
5.16
6.39
7.46
8.66
10.14
11.88
13.65
15.19
16.25
16.74
16.69
16.23
15.57
14.94
14.48
14.24
14.11
13.88
13.38
12.56
11.49
10.31
9.12
7.90
6.61
5.15
3.53
1.86
0.27
-1.11
-2.26
-3.23
-4.11
-5.07
-6.21
-7.59
-9.16
-10.77
-12.19
-13.15
-13.41
-12.85
-11.49
-9.52
-7.24
-4.98
-3.02
-1.49
-0.36
0.56
1.47
2.51
3.70
4.91
5.97
6.74
7.18
7.30
7.16
6.83
6.38
5.89
5.49
5.26
5.27
5.50
5.87
6.23
6.39
6.21
5.60
4.56
3.21
1.79
0.56
-0.25
-0.56
-0.51
-0.37
-0.47
-0.99
-1.97
-3.28
-4.73
-6.17
-7.50
-8.70
-9.73
-10.55
-11.09
-11.26
-11.06
-10.50
-9.67
-8.68
-7.61
-6.48
-5.23
-3.80
-2.16
-0.37
1.43
3.04
4.31
5.20
5.76
6.09
6.27
6.34
6.33
6.32
6.39
6.63
7.04
7.48
7.73
7.60
7.01
6.02
4.83
3.64
2.60
1.74
1.05
0.48
-0.02
-0.45
-0.88
-1.38
-2.06
-2.99
-4.17
-5.52
-6.92
-8.26
-9.51
-10.70
-11.86
-13.01
-14.05
-14.85
-15.22
-15.04
-14.26
-12.98
-11.31
-9.37
-7.28
-5.16
-3.12
-1.31
0.18
1.34
2.25
3.01
3.73
4.39
4.93
5.28
5.47
5.62
5.86
6.21
6.55
6.66
6.39
5.75
4.97
4.31
3.95
3.84
3.75
3.44
2.80
1.89
0.89
-0.04
-0.84
-1.56
-2.29
-3.07
-3.89
-4.69
-5.46
-6.26
-7.21
-8.45
-10.00
-11.77
-13.48
-14.81
-15.45
-15.26
-14.30
-12.79
-11.06
-9.39
-7.91
-6.58
-5.32
-4.06
-2.82
-1.68
-0.71
0.10
0.87
1.74
2.75
3.85
4.85
5.60
6.03
6.21
6.25
6.27
6.32
6.37
6.41
6.40
6.37
6.28
6.05
5.54
4.67
3.45
2.00
0.56
-0.68
-1.64
-2.35
-2.92
-3.46
-4.07
-4.79
-5.72
-6.94
-8.55
-10.50
-12.61
-14.56
-16.01
-16.72
-16.58
-15.66
-14.11
-12.12
-9.86
-7.48
-5.15
-3.00
-1.14
0.41
1.70
2.79
3.72
4.50
5.08
5.41
5.46
5.27
4.94
4.57
4.25
4.03
3.94
3.91
3.83
3.63
3.25
2.74
2.19
1.71
1.31
0.97
0.57
0.06
-0.52
-1.08
-1.51
-1.84
-2.20
-2.85
-3.95
-5.53
-7.43
-9.44
-11.38
-13.15
-14.70
-15.90
-16.55
-16.39
-15.34
-13.55
-11.39
-9.27
-7.44
-5.84
-4.21
-2.29
0.03
2.56
4.98
6.96
8.35
9.24
9.80
10.21
10.51
10.65
10.60
10.36
10.04
9.77
9.61
9.54
9.46
9.25
8.84
8.24
7.55
6.83
6.15
5.55
5.00
4.41
3.64
2.59
1.18
-0.52
-2.32
-4.05
-5.54
-6.73
-7.70
-8.59
-9.54
-10.67
-12.03
-13.57
-15.11
-16.39
-17.05
-16.82
-15.61
-13.62
-11.26
-8.99
-7.10
-5.57
-4.16
-2.52
-0.44
1.96
4.33
6.22
7.30
7.56
7.27
6.85
6.63
6.74
7.06
7.31
7.27
6.82
6.06
5.22
4.52
4.10
3.93
3.79
3.43
2.71
1.64
0.38
-0.85
-1.90
-2.73
-3.44
-4.15
-4.93
-5.84
-6.85
-7.99
-9.27
-10.74
-12.32
-13.83
-14.98
-15.46
-15.04
-13.67
-11.53
-8.93
-6.21
-3.64
-1.28
0.90
3.03
5.10
6.97
8.38
9.13
9.21
8.91
8.62
8.72
9.35
10.33
11.30
11.85
11.81
11.27
10.48
9.72
9.12
8.61
7.99
7.12
5.94
4.58
3.22
2.01
1.03
0.22
-0.55
-1.47
-2.66
-4.21
-6.11
-8.24
-10.43
-12.49
-14.22
-15.48
-16.15
-16.11
-15.29
-13.65
-11.28
-8.37
-5.24
-2.20
0.53
2.87
4.91
6.79
8.61
10.39
12.06
13.45
14.40
14.81
14.73
14.31
13.81
13.48
13.47
13.77
14.20
14.53
14.58
14.22
13.49
12.44
11.19
9.83
8.45
7.16
6.04
5.14
4.36
3.55
2.51
1.13
-0.58
-2.47
-4.36
-6.12
-7.75
-9.41
-11.28
-13.52
-16.07
-18.64
-20.76
-21.94
-21.86
-20.47
-18.01
-14.89
-11.50
-8.08
-4.76
-1.57
1.44
4.15
6.45
8.29
9.72
10.84
11.76
12.55
13.17
13.57
13.65
13.39
12.84
12.21
11.76
11.75
12.23
13.05
13.83
14.14
13.75
12.73
11.44
10.28
9.47
8.98
8.54
7.87
6.80
5.44
4.01
2.76
1.82
1.14
0.57
-0.07
-0.97
-2.26
-3.96
-6.07
-8.42
-10.77
-12.79
-14.18
-14.72
-14.40
-13.38
-11.92
-10.28
-8.60
-6.86
-5.00
-2.93
-0.69
1.59
3.74
5.59
7.06
8.21
9.08
9.75
10.25
10.50
10.44
10.07
9.47
8.77
8.16
7.68
7.33
7.04
6.72
6.33
5.82
5.19
4.42
3.48
2.34
1.07
-0.32
-1.78
-3.27
-4.75
-6.17
-7.51
-8.81
-10.11
-11.53
-13.14
-14.89
-16.58
-17.92
-18.62
-18.47
-17.45
-15.69
-13.38
-10.70
-7.82
-4.86
-1.91
0.92
3.57
5.98
8.17
10.13
11.87
13.41
14.73
15.78
16.54
17.02
17.29
17.43
17.51
17.53
17.43
17.10
16.49
15.61
14.53
13.37
12.23
11.11
9.95
8.64
7.10
5.30
3.36
1.43
-0.31
-1.77
-2.98
-4.09
-5.35
-7.04
-9.33
-12.25
-15.59
-18.93
-21.74
-23.51
-23.91
-22.88
-20.64
-17.60
-14.24
-10.92
-7.85
-5.02
-2.32
0.36
3.09
5.80
8.28
10.30
11.64
12.25
12.24
11.84
11.28
10.70
10.09
9.37
8.53
7.65
6.89
6.42
6.25
6.24
6.15
5.71
4.79
3.40
1.71
-0.07
-1.77
-3.29
-4.64
-5.91
-7.23
-8.71
-10.46
-12.52
-14.85
-17.27
-19.50
-21.11
-21.72
-21.09
-19.24
-16.48
-13.27
-10.10
-7.25
-4.81
-2.73
-0.87
0.83
2.42
3.90
5.30
6.68
8.03
9.31
10.41
11.23
11.71
11.93
11.98
12.00
12.04
12.09
12.06
11.86
11.40
10.64
9.57
8.24
6.78
5.31
3.94
2.69
1.42
-0.07
-1.97
-4.37
-7.20
-10.25
-13.26
-15.97
-18.17
-19.69
-20.46
-20.37
-19.45
-17.76
-15.47
-12.76
-9.84
-6.84
-3.85
-0.92
1.89
4.50
6.83
8.81
10.40
11.63
12.61
13.47
14.31
15.15
15.90
16.44
16.65
16.48
15.97
15.20
14.25
13.13
11.80
10.22
8.43
6.52
4.63
2.87
1.26
-0.27
-1.85
-3.57
-5.50
-7.64
-9.97
-12.44
-15.00
-17.58
-19.99
-21.94
-23.11
-23.21
-22.12
-19.91
-16.88
-13.39
-9.72
-6.01
-2.28
1.50
5.29
8.89
12.08
14.68
16.64
18.08
19.16
20.05
20.82
21.49
22.06
22.52
22.89
23.18
23.36
23.38
23.16
22.68
21.89
20.79
19.39
17.74
15.89
13.88
11.70
9.36
6.84
4.20
1.59
-0.79
-2.81
-4.48
-5.97
-7.53
-9.39
-11.68
-14.34
-17.07
-19.45
-20.99
-21.29
-20.19
-17.83
-14.60
-10.96
-7.37
-4.01
-0.93
1.98
4.81
7.52
10.00
12.07
13.66
14.74
15.45
15.95
16.39
16.90
17.50
18.14
18.73
19.16
19.41
19.47
19.41
19.28
19.13
18.94
18.68
18.30
17.72
16.86
15.63
13.99
11.93
9.55
7.02
4.51
2.14
-0.08
-2.28
-4.62
-7.20
-10.00
-12.73
-15.00
-16.41
-16.61
-15.52
-13.30
-10.30
-6.98
-3.75
-0.89
1.50
3.42
4.93
6.11
6.99
7.52
7.65
7.33
6.63
5.67
4.65
3.77
3.06
2.44
1.72
0.71
-0.64
-2.24
-3.94
-5.62
-7.26
-8.93
-10.70
-12.51
-14.17
-15.38
-15.98
-15.97
-15.62
-15.34
-15.52
-16.36
-17.76
-19.39
-20.73
-21.26
-20.66
-18.83
-15.95
-12.39
-8.61
-5.04
-2.04
0.25
1.90
3.12
4.25
5.52
6.99
8.55
9.96
11.09
11.95
12.68
13.46
14.35
15.17
15.67
15.68
15.17
14.39
13.66
13.26
13.30
13.68
14.15
14.44
14.35
13.76
12.67
11.15
9.30
7.24
5.06
2.84
0.60
-1.69
-4.09
-6.61
-9.19
-11.64
-13.66
-14.91
-15.13
-14.25
-12.37
-9.78
-6.86
-3.94
-1.23
1.15
3.21
5.00
6.57
7.95
9.16
10.19
11.02
11.66
12.09
12.34
12.38
12.19
11.74
10.99
9.98
8.75
7.48
6.34
5.47
4.95
4.70
4.65
4.64
4.65
4.67
4.75
4.89
5.07
5.19
5.18
4.96
4.50
3.80
2.86
1.66
0.23
-1.40
-3.13
-4.88
-6.49
-7.78
-8.52
-8.53
-7.76
-6.32
-4.54
-2.80
-1.39
-0.37
0.38
1.05
1.79
2.61
3.42
4.11
4.72
5.32
6.01
6.76
7.48
8.03
8.36
8.52
8.63
8.76
8.87
8.80
8.41
7.69
6.75
5.82
5.07
4.57
4.25
3.94
3.50
2.84
1.94
0.84
-0.40
-1.72
-3.08
-4.42
-5.70
-6.89
-7.98
-9.03
-10.13
-11.34
-12.66
-13.97
-15.02
-15.51
-15.23
-14.12
-12.34
-10.22
-8.15
-6.46
-5.27
-4.55
-4.11
-3.76
-3.37
-2.90
-2.41
-2.00
-1.79
-1.86
-2.27
-2.98
-3.94
-5.02
-6.08
-6.93
-7.45
-7.51
-7.08
-6.15
-4.79
-3.13
-1.36
0.27
1.53
2.27
2.47
2.26
1.82
1.32
0.79
0.16
-0.72
-1.94
-3.47
-5.16
-6.83
-8.34
-9.65
-10.81
-11.85
-12.71
-13.28
-13.41
-13.06
-12.30
-11.31
-10.30
-9.43
-8.79
-8.41
-8.26
-8.28
-8.39
-8.55
-8.70
-8.79
-8.74
-8.45
-7.80
-6.80
-5.55
-4.26
-3.17
-2.50
-2.29
-2.46
-2.90
-3.46
-4.09
-4.76
-5.46
-6.12
-6.68
-7.08
-7.34
-7.57
-7.88
-8.35
-8.98
-9.69
-10.33
-10.77
-10.90
-10.65
-10.02
-9.00
-7.64
-6.01
-4.29
-2.65
-1.26
-0.22
0.54
1.15
1.76
2.43
3.12
3.73
4.20
4.48
4.62
4.59
4.35
3.83
3.00
1.91
0.70
-0.49
-1.55
-2.47
-3.28
-4.05
-4.80
-5.46
-5.96
-6.28
-6.46
-6.63
-6.96
-7.51
-8.29
-9.13
-9.84
-10.23
-10.24
-9.94
-9.44
-8.83
-8.10
-7.14
-5.87
-4.31
-2.58
-0.90
0.55
1.69
2.59
3.38
4.14
4.85
5.40
5.69
5.69
5.47
5.16
4.89
4.71
4.55
4.33
4.00
3.55
3.04
2.52
2.01
1.43
0.66
-0.40
-1.77
-3.32
-4.82
-6.05
-6.88
-7.39
-7.82
-8.47
-9.50
-10.96
-12.72
-14.59
-16.46
-18.30
-20.13
-21.91
-23.51
-24.66
-25.14
-24.81
-23.71
-22.06
-20.09
-17.99
-15.77
-13.39
-10.76
-7.89
-4.90
-1.94
0.76
3.06
4.86
6.16
6.98
7.47
7.85
8.34
9.10
10.10
11.10
11.80
11.98
11.65
11.00
10.32
9.77
9.33
8.82
8.09
7.12
6.03
4.99
4.11
3.32
2.51
1.52
0.31
-1.10
-2.59
-4.08
-5.54
-6.96
-8.33
-9.66
-10.94
-12.21
-13.51
-14.82
-16.04
-16.95
-17.26
-16.80
-15.55
-13.70
-11.54
-9.29
-7.10
-4.96
-2.84
-0.73
1.28
3.06
4.49
5.59
6.50
7.33
8.16
8.93
9.53
9.89
10.01
10.02
10.06
10.18
10.38
10.58
10.68
10.70
10.65
10.57
10.41
10.11
9.60
8.86
7.94
6.90
5.76
4.45
2.98
1.37
-0.22
-1.64
-2.81
-3.80
-4.85
-6.25
-8.14
-10.42
-12.78
-14.75
-15.91
-16.03
-15.12
-13.41
-11.21
-8.82
-6.39
-4.04
-1.81
0.21
1.92
3.19
4.01
4.45
4.69
4.93
5.28
5.78
6.39
7.02
7.61
8.17
8.66
9.10
9.46
9.71
9.79
9.67
9.36
8.93
8.46
8.01
7.51
6.81
5.75
4.29
2.56
0.81
-0.67
-1.74
-2.47
-3.08
-3.84
-4.98
-6.54
-8.44
-10.45
-12.31
-13.70
-14.34
-14.07
-12.90
-11.04
-8.87
-6.76
-4.96
-3.48
-2.13
-0.66
1.12
3.23
5.46
7.55
9.23
10.38
11.01
11.27
11.33
11.35
11.40
11.50
11.61
11.71
11.72
11.59
11.28
10.76
10.07
9.28
8.48
7.72
7.04
6.43
5.89
5.39
4.87
4.23
3.33
2.07
0.40
-1.58
-3.67
-5.71
-7.61
-9.42
-11.22
-12.98
-14.50
-15.44
-15.48
-14.46
-12.52
-9.99
-7.27
-4.64
-2.21
0.07
2.26
4.37
6.30
7.99
9.37
10.48
11.42
12.24
12.92
13.37
13.46
13.12
12.40
11.47
10.54
9.80
9.33
9.06
8.84
8.48
7.86
6.96
5.79
4.42
2.93
1.40
-0.11
-1.54
-2.87
-4.16
-5.49
-6.94
-8.60
-10.50
-12.63
-14.88
-17.00
-18.66
-19.46
-19.11
-17.57
-15.11
-12.21
-9.39
-6.99
-5.04
-3.38
-1.78
-0.11
1.61
3.30
4.85
6.23
7.39
8.32
8.95
9.22
9.16
8.89
8.58
8.45
8.58
8.89
9.19
9.25
8.84
7.95
6.65
5.18
3.74
2.49
1.50
0.72
0.09
-0.48
-1.08
-1.81
-2.77
-4.03
-5.58
-7.26
-8.76
-9.72
-9.82
-8.97
-7.30
-5.09
-2.67
-0.26
2.06
4.23
6.21
7.92
9.24
10.12
10.62
10.86
10.97
11.02
10.97
10.80
10.53
10.25
10.08
10.05
10.13
10.17
10.09
9.89
9.63
9.36
9.09
8.76
8.30
7.66
6.83
5.81
4.62
3.26
1.70
0.00
-1.74
-3.40
-4.89
-6.19
-7.38
-8.54
-9.70
-10.74
-11.47
-11.65
-11.17
-10.08
-8.56
-6.88
-5.20
-3.59
-1.92
-0.10
1.89
3.94
5.84
7.44
8.69
9.69
10.55
11.37
12.09
12.60
12.77
12.59
12.10
11.43
10.70
10.00
9.35
8.75
8.20
7.68
7.17
6.66
6.15
5.63
5.08
4.48
3.79
2.93
1.92
0.76
-0.47
-1.71
-2.94
-4.19
-5.58
-7.27
-9.24
-11.37
-13.38
-14.88
-15.51
-15.13
-13.79
-11.75
-9.36
-6.92
-4.59
-2.44
-0.46
1.35
2.93
4.29
5.41
6.34
7.13
7.79
8.27
8.54
8.57
8.39
8.12
7.84
7.67
7.62
7.66
7.68
7.62
7.43
7.14
6.78
6.40
6.00
5.55
5.04
4.45
3.83
3.18
2.45
1.56
0.37
-1.14
-2.96
-4.95
-7.00
-9.02
-10.96
-12.75
-14.25
-15.20
-15.43
-14.89
-13.67
-12.05
-10.26
-8.43
-6.59
-4.70
-2.76
-0.90
0.71
1.92
2.65
3.02
3.17
3.26
3.36
3.42
3.41
3.33
3.31
3.45
3.83
4.37
4.88
5.20
5.26
5.19
5.14
5.27
5.52
5.72
5.64
5.15
4.32
3.29
2.22
1.21
0.24
-0.74
-1.75
-2.78
-3.80
-4.85
-6.00
-7.35
-8.93
-10.66
-12.29
-13.49
-13.94
-13.46
-12.08
-10.04
-7.76
-5.61
-3.86
-2.54
-1.51
-0.49
0.71
2.14
3.65
5.05
6.12
6.77
7.09
7.19
7.19
7.16
7.07
6.87
6.57
6.19
5.83
5.55
5.34
5.15
4.90
4.48
3.87
3.07
2.15
1.14
0.11
-0.89
-1.81
-2.62
-3.32
-3.95
-4.67
-5.62
-6.99
-8.85
-11.13
-13.57
-15.72
-17.14
-17.53
-16.84
-15.27
-13.18
-10.89
-8.62
-6.45
-4.41
-2.50
-0.80
0.63
1.68
2.37
2.71
2.81
2.72
2.53
2.34
2.23
2.28
2.47
2.75
2.98
3.03
2.81
2.35
1.78
1.25
0.92
0.83
0.91
1.00
0.90
0.49
-0.29
-1.41
-2.76
-4.20
-5.59
-6.83
-7.89
-8.84
-9.83
-11.03
-12.45
-13.87
-14.91
-15.11
-14.25
-12.38
-9.88
-7.25
-4.95
-3.17
-1.84
-0.78
0.24
1.29
2.33
3.24
3.93
4.37
4.59
4.67
4.64
4.58
4.49
4.43
4.43
4.51
4.70
4.97
5.28
5.53
5.62
5.41
4.84
3.87
2.62
1.25
-0.08
-1.28
-2.38
-3.51
-4.75
-6.15
-7.68
-9.30
-11.00
-12.73
-14.39
-15.74
-16.44
-16.12
-14.67
-12.22
-9.19
-6.10
-3.36
-1.16
0.59
2.09
3.55
5.08
6.61
8.06
9.30
10.28
11.01
11.55
11.92
12.12
12.15
12.00
11.71
11.30
10.78
10.15
9.39
8.56
7.70
6.89
6.10
5.20
4.06
2.58
0.85
-0.91
-2.48
-3.73
-4.74
-5.69
-6.76
-8.04
-9.50
-11.06
-12.68
-14.30
-15.77
-16.78
-17.01
-16.25
-14.58
-12.37
-10.09
-8.05
-6.29
-4.60
-2.73
-0.57
1.73
3.91
5.72
7.04
7.92
8.48
8.87
9.17
9.40
9.57
9.65
9.61
9.46
9.22
8.90
8.51
8.03
7.45
6.82
6.21
5.76
5.48
5.26
4.86
4.05
2.70
0.93
-1.00
-2.79
-4.27
-5.51
-6.73
-8.19
-9.98
-12.03
-14.01
-15.57
-16.36
-16.24
-15.26
-13.63
-11.62
-9.40
-7.06
-4.56
-1.89
0.83
3.36
5.42
6.78
7.48
7.73
7.88
8.26
9.00
10.04
11.16
12.13
12.76
12.94
12.70
12.13
11.38
10.59
9.88
9.29
8.82
8.42
7.98
7.41
6.61
5.52
4.09
2.38
0.50
-1.37
-3.11
-4.68
-6.15
-7.68
-9.40
-11.33
-13.30
-15.02
-16.15
-16.47
-15.92
-14.64
-12.83
-10.73
-8.48
-6.16
-3.76
-1.31
1.17
3.57
5.77
7.65
9.18
10.37
11.32
12.09
12.75
13.32
13.74
14.00
14.09
14.02
13.81
13.51
13.19
12.86
12.56
12.20
11.71
10.91
9.66
7.96
5.94
3.84
1.96
0.48
-0.61
-1.51
-2.48
-3.81
-5.58
-7.75
-10.12
-12.38
-14.22
-15.38
-15.64
-14.96
-13.41
-11.22
-8.69
-6.16
-3.89
-1.99
-0.44
0.85
2.00
3.10
4.18
5.21
6.15
6.97
7.67
8.24
8.72
9.12
9.44
9.65
9.71
9.56
9.20
8.67
8.02
7.32
6.55
5.61
4.40
2.87
1.12
-0.65
-2.19
-3.38
-4.31
-5.24
-6.48
-8.21
-10.35
-12.57
-14.40
-15.41
-15.38
-14.35
-12.55
-10.33
-8.03
-5.89
-4.02
-2.39
-0.93
0.50
1.95
3.46
4.96
6.38
7.65
8.72
9.57
10.22
10.69
11.02
11.25
11.40
11.49
11.48
11.32
10.91
10.15
8.95
7.30
5.28
3.01
0.73
-1.37
-3.16
-4.64
-5.88
-7.04
-8.29
-9.71
-11.33
-13.03
-14.64
-15.88
-16.50
-16.33
-15.34
-13.63
-11.41
-8.87
-6.19
-3.47
-0.78
1.81
4.26
6.51
8.53
10.26
11.66
12.71
13.42
13.88
14.25
14.64
15.08
15.50
15.76
15.68
15.18
14.29
13.14
11.93
10.79
9.81
8.93
8.06
7.14
6.17
5.21
4.38
3.67
3.02
2.22
1.04
-0.63
-2.75
-5.02
-7.02
-8.34
-8.77
-8.32
-7.25
-5.79
-4.12
-2.28
-0.23
1.96
4.08
5.86
7.05
7.64
7.82
7.91
8.16
8.61
9.11
9.42
9.35
8.90
8.19
7.39
6.65
6.01
5.43
4.79
3.99
2.98
1.77
0.42
-0.99
-2.42
-3.84
-5.26
-6.64
-7.92
-8.99
-9.78
-10.27
-10.55
-10.78
-11.12
-11.68
-12.41
-13.11
-13.49
-13.28
-12.33
-10.69
-8.58
-6.29
-4.11
-2.15
-0.43
1.19
2.81
4.46
6.08
7.57
8.86
9.96
10.89
11.62
12.08
12.17
11.86
11.22
10.48
9.90
9.64
9.73
10.04
10.39
10.60
10.60
10.42
10.08
9.66
9.15
8.61
8.03
7.40
6.67
5.74
4.54
3.04
1.25
-0.76
-2.89
-5.05
-7.13
-9.03
-10.68
-11.96
-12.82
-13.19
-12.99
-12.19
-10.75
-8.80
-6.53
-4.23
-2.13
-0.33
1.23
2.64
3.97
5.15
6.04
6.54
6.64
6.47
6.20
5.96
5.82
5.76
5.74
5.74
5.80
5.88
5.93
5.83
5.53
4.99
4.25
3.39
2.51
1.67
0.90
0.15
-0.68
-1.71
-3.02
-4.59
-6.30
-7.95
-9.41
-10.63
-11.65
-12.51
-13.20
-13.58
-13.44
-12.66
-11.23
-9.35
-7.30
-5.34
-3.64
-2.23
-1.01
0.10
1.07
1.78
2.04
1.78
1.08
0.18
-0.61
-1.07
-1.17
-1.06
-0.95
-0.97
-1.16
-1.45
-1.80
-2.26
-2.91
-3.81
-4.94
-6.14
-7.20
-8.00
-8.52
-8.86
-9.20
-9.71
-10.45
-11.39
-12.43
-13.39
-14.13
-14.49
-14.36
-13.63
-12.24
-10.21
-7.66
-4.81
-1.96
0.57
2.56
3.90
4.59
4.77
4.54
4.09
3.54
3.01
2.57
2.23
2.01
1.87
1.76
1.68
1.65
1.66
1.70
1.73
1.66
1.40
0.87
0.09
-0.93
-2.11
-3.39
-4.69
-5.94
-7.09
-8.10
-9.00
-9.82
-10.66
-11.54
-12.47
-13.32
-13.88
-13.93
-13.31
-12.04
-10.24
-8.13
-5.89
-3.65
-1.46
0.63
2.53
4.18
5.49
6.46
7.13
7.52
7.68
7.60
7.33
7.01
6.82
6.97
7.48
8.20
8.84
9.07
8.75
7.91
6.79
5.66
4.71
3.97
3.37
2.79
2.12
1.33
0.43
-0.55
-1.58
-2.64
-3.74
-4.85
-5.93
-6.96
-7.89
-8.74
-9.53
-10.28
-10.94
-11.36
-11.40
-10.90
-9.85
-8.35
-6.61
-4.80
-3.03
-1.31
0.39
2.05
3.56
4.84
5.85
6.67
7.44
8.27
9.11
9.77
10.04
9.76
9.02
8.08
7.29
6.92
6.98
7.28
7.49
7.33
6.66
5.54
4.16
2.71
1.38
0.27
-0.57
-1.14
-1.48
-1.64
-1.71
-1.82
-2.04
-2.47
-3.15
-4.10
-5.31
-6.74
-8.27
-9.73
-10.89
-11.51
-11.47
-10.80
-9.66
-8.26
-6.79
-5.39
-4.06
-2.81
-1.61
-0.46
0.63
1.66
2.64
3.53
4.27
4.78
4.99
4.90
4.63
4.33
4.14
4.12
4.24
4.44
4.64
4.79
4.86
4.83
4.73
4.54
4.33
4.11
3.91
3.73
3.55
3.33
3.04
2.65
2.12
1.44
0.59
-0.39
-1.44
-2.53
-3.59
-4.66
-5.74
-6.84
-7.94
-9.01
-10.04
-11.02
-11.95
-12.68
-13.00
-12.65
-11.51
-9.69
-7.55
-5.48
-3.81
-2.54
-1.48
-0.37
0.94
2.36
3.72
4.86
5.77
6.57
7.38
8.18
8.78
8.94
8.54
7.65
6.57
5.58
4.86
4.46
4.23
4.02
3.72
3.32
2.80
2.24
1.63
0.98
0.25
-0.54
-1.40
-2.28
-3.12
-3.85
-4.39
-4.78
-5.10
-5.49
-6.16
-7.26
-8.84
-10.80
-12.85
-14.65
-15.84
-16.21
-15.72
-14.56
-13.00
-11.34
-9.77
-8.42
-7.27
-6.30
-5.41
-4.53
-3.58
-2.51
-1.34
-0.12
1.04
2.07
2.89
3.45
3.77
3.82
3.65
3.26
2.76
2.28
1.98
1.95
2.23
2.71
3.17
3.37
3.09
2.24
0.91
-0.70
-2.32
-3.71
-4.73
-5.35
-5.71
-6.00
-6.44
-7.21
-8.37
-9.83
-11.32
-12.48
-12.96
-12.55
-11.26
-9.33
-7.14
-5.05
-3.31
-1.95
-0.85
0.17
1.25
2.43
3.63
4.77
5.69
6.34
6.74
6.95
7.04
7.09
7.11
7.02
6.78
6.33
5.72
5.03
4.36
3.77
3.27
2.80
2.31
1.72
1.03
0.24
-0.59
-1.42
-2.18
-2.84
-3.42
-3.95
-4.47
-5.02
-5.64
-6.38
-7.37
-8.70
-10.40
-12.32
-14.12
-15.38
-15.79
-15.22
-13.82
-11.89
-9.73
-7.59
-5.56
-3.65
-1.85
-0.16
1.40
2.84
4.14
5.36
6.55
7.74
8.85
9.76
10.30
10.32
9.78
8.79
7.59
6.49
5.74
5.49
5.71
6.27
6.90
7.35
7.40
7.00
6.20
5.22
4.29
3.61
3.25
3.09
2.92
2.52
1.75
0.59
-0.86
-2.47
-4.12
-5.76
-7.42
-9.08
-10.71
-12.11
-13.07
-13.31
-12.67
-11.19
-9.05
-6.62
-4.19
-2.05
-0.29
1.10
2.29
3.42
4.57
5.73
6.75
7.50
7.86
7.80
7.41
6.85
6.29
5.90
5.78
5.88
6.10
6.25
6.14
5.66
4.80
3.69
2.52
1.53
0.85
0.50
0.39
0.40
0.45
0.49
0.54
0.55
0.47
0.21
-0.28
-0.97
-1.83
-2.83
-4.02
-5.43
-7.04
-8.63
-9.86
-10.42
-10.17
-9.22
-7.83
-6.30
-4.72
-3.03
-1.12
1.02
3.18
5.05
6.38
7.10
7.36
7.42
7.44
7.44
7.34
7.02
6.47
5.81
5.26
5.01
5.15
5.60
6.13
6.46
6.40
5.93
5.24
4.57
4.15
4.04
4.09
4.09
3.82
3.18
2.24
1.15
0.08
-0.88
-1.67
-2.35
-2.98
-3.68
-4.58
-5.79
-7.40
-9.36
-11.49
-13.44
-14.77
-15.15
-14.40
-12.65
-10.24
-7.61
-5.08
-2.81
-0.69
1.41
3.60
5.74
7.60
8.91
9.58
9.74
9.72
9.88
10.44
11.37
12.44
13.36
13.87
13.92
13.58
12.97
12.24
11.40
10.48
9.46
8.34
7.12
5.77
4.26
2.55
0.69
-1.22
-3.01
-4.55
-5.81
-6.87
-7.86
-8.91
-10.12
-11.51
-13.06
-14.59
-15.89
-16.65
-16.57
-15.48
-13.43
-10.68
-7.62
-4.66
-2.09
-0.03
1.52
2.64
3.39
3.80
3.90
3.73
3.39
3.01
2.69
2.51
2.46
2.50
2.54
2.52
2.39
2.12
1.73
1.24
0.71
0.14
-0.49
-1.25
-2.17
-3.28
-4.49
-5.72
-6.87
-7.92
-8.98
-10.13
-11.48
-12.98
-14.47
-15.74
-16.60
-16.93
-16.71
-15.96
-14.64
-12.78
-10.38
-7.54
-4.47
-1.40
1.39
3.76
5.63
7.04
8.08
8.83
9.33
9.60
9.67
9.61
9.55
9.58
9.76
10.01
10.17
10.10
9.71
9.08
8.35
7.64
6.94
6.18
5.24
4.06
2.70
1.25
-0.23
-1.76
-3.47
-5.52
-8.03
-10.93
-13.98
-16.77
-18.86
-19.89
-19.71
-18.44
-16.40
-13.98
-11.46
-8.99
-6.59
-4.26
-2.03
-0.03
1.68
3.07
4.21
5.23
6.22
7.21
8.12
8.87
9.36
9.62
9.69
9.66
9.59
9.49
9.31
9.02
8.60
8.02
7.30
6.41
5.34
4.03
2.48
0.75
-1.12
-3.05
-5.01
-7.04
-9.22
-11.60
-14.16
-16.69
-18.91
-20.46
-21.01
-20.38
-18.59
-15.84
-12.45
-8.80
-5.21
-1.87
1.16
3.90
6.37
8.58
10.49
12.07
13.31
14.23
14.88
15.29
15.49
15.46
15.19
14.79
14.39
14.12
14.01
13.98
13.82
13.29
12.26
10.75
8.94
7.05
5.32
3.85
2.63
1.60
0.66
-0.23
-1.13
-2.13
-3.40
-5.13
-7.46
-10.33
-13.42
-16.19
-18.04
-18.52
-17.47
-15.09
-11.79
-8.11
-4.43
-0.95
2.35
5.60
8.88
12.17
15.26
17.90
19.86
21.10
21.72
21.90
21.87
21.71
21.45
21.07
20.59
20.11
19.77
19.64
19.69
19.72
19.48
18.74
17.37
15.44
13.11
10.63
8.24
6.09
4.26
2.73
1.40
0.11
-1.35
-3.20
-5.62
-8.63
-12.07
-15.57
-18.64
-20.76
-21.56
-20.87
-18.86
-15.89
-12.40
-8.79
-5.33
-2.12
0.84
3.59
6.10
8.28
9.99
11.14
11.73
11.87
11.78
11.67
11.66
11.75
11.84
11.78
11.52
11.06
10.49
9.91
9.34
8.74
8.04
7.21
6.29
5.41
4.71
4.27
4.05
3.92
3.69
3.15
2.16
0.65
-1.36
-3.66
-5.96
-7.82
-8.78
-8.54
-7.06
-4.58
-1.54
1.60
4.52
7.13
9.46
11.58
13.45
14.93
15.89
16.27
16.15
15.70
15.14
14.61
14.12
13.64
13.07
12.42
11.72
11.09
10.62
10.34
10.22
10.14
9.99
9.68
9.22
8.70
8.26
8.04
8.07
8.30
8.56
8.69
8.52
7.93
6.85
5.26
3.16
0.70
-1.90
-4.34
-6.32
-7.62
-8.21
-8.13
-7.50
-6.46
-5.15
-3.69
-2.24
-0.93
0.17
1.07
1.86
2.61
3.29
3.82
4.07
3.96
3.56
3.02
2.53
2.26
2.24
2.42
2.70
2.95
3.12
3.25
3.42
3.68
4.00
4.25
4.24
3.84
2.99
1.83
0.59
-0.47
-1.18
-1.56
-1.79
-2.15
-2.86
-4.03
-5.59
-7.37
-9.08
-10.47
-11.31
-11.44
-10.75
-9.24
-7.09
-4.55
-1.99
0.30
2.17
3.64
4.87
6.05
7.25
8.47
9.57
10.41
10.86
10.91
10.64
10.14
9.55
9.00
8.51
8.08
7.60
6.94
5.95
4.57
2.84
0.89
-1.12
-3.01
-4.67
-6.02
-7.04
-7.72
-8.06
-8.13
-8.09
-8.15
-8.53
-9.35
-10.61
-12.16
-13.73
-14.97
-15.61
-15.46
-14.53
-12.97
-11.06
-9.12
-7.41
-6.03
-4.96
-4.04
-3.14
-2.13
-0.97
0.25
1.47
2.60
3.59
4.41
5.03
5.42
5.55
5.38
4.91
4.19
3.27
2.28
1.31
0.38
-0.55
-1.53
-2.58
-3.65
-4.64
-5.53
-6.36
-7.25
-8.33
-9.66
-11.13
-12.54
-13.66
-14.33
-14.46
-14.00
-12.91
-11.16
-8.77
-5.89
-2.82
0.13
2.71
4.87
6.68
8.30
9.76
10.96
11.67
11.75
11.18
10.15
9.03
8.11
7.58
7.35
7.21
6.94
6.42
5.65
4.72
3.70
2.60
1.38
0.03
-1.39
-2.74
-3.90
-4.83
-5.60
-6.38
-7.32
-8.53
-10.00
-11.60
-13.14
-14.34
-14.94
-14.73
-13.59
-11.58
-8.96
-6.09
-3.35
-1.02
0.82
2.25
3.43
4.53
5.61
6.64
7.52
8.13
8.39
8.30
7.94
7.37
6.68
5.95
5.24
4.63
4.15
3.78
3.48
3.14
2.70
2.12
1.44
0.74
0.08
-0.45
-0.89
-1.27
-1.73
-2.40
-3.42
-4.83
-6.57
-8.46
-10.20
-11.52
-12.14
-11.91
-10.79
-8.87
-6.38
-3.61
-0.86
1.61
3.67
5.32
6.60
7.57
8.25
8.65
8.78
8.74
8.63
8.54
8.45
8.26
7.79
6.96
5.89
4.81
4.06
3.83
4.10
4.62
5.06
5.13
4.72
3.92
2.91
1.84
0.80
-0.21
-1.18
-2.08
-2.83
-3.40
-3.84
-4.30
-5.04
-6.25
-7.91
-9.80
-11.49
-12.51
-12.61
-11.79
-10.30
-8.49
-6.65
-4.90
-3.19
-1.47
0.28
1.97
3.47
4.67
5.54
6.17
6.65
7.03
7.31
7.45
7.36
7.03
6.46
5.73
4.94
4.16
3.45
2.83
2.30
1.79
1.22
0.50
-0.42
-1.49
-2.58
-3.50
-4.08
-4.21
-3.89
-3.25
-2.45
-1.74
-1.34
-1.46
-2.18
-3.45
-5.06
-6.65
-7.88
-8.53
-8.48
-7.81
-6.69
-5.29
-3.76
-2.22
-0.76
0.53
1.55
2.21
2.51
2.47
2.22
1.90
1.66
1.58
1.64
1.69
1.54
1.07
0.29
-0.68
-1.63
-2.40
-2.94
-3.32
-3.64
-3.98
-4.35
-4.72
-5.02
-5.25
-5.42
-5.57
-5.71
-5.91
-6.28
-6.92
-7.92
-9.23
-10.68
-11.91
-12.58
-12.47
-11.58
-10.17
-8.65
-7.34
-6.43
-5.92
-5.66
-5.48
-5.27
-5.02
-4.75
-4.48
-4.16
-3.75
-3.21
-2.58
-1.97
-1.51
-1.27
-1.26
-1.46
-1.81
-2.27
-2.82
-3.40
-3.89
-4.20
-4.35
-4.46
-4.73
-5.31
-6.19
-7.17
-8.01
-8.56
-8.87
-9.14
-9.58
-10.19
-10.78
-10.99
-10.53
-9.33
-7.60
-5.68
-3.91
-2.49
-1.42
-0.58
0.16
0.86
1.51
2.00
2.24
2.21
1.98
1.65
1.35
1.18
1.19
1.39
1.75
2.21
2.67
3.00
3.09
2.92
2.52
2.00
1.46
0.93
0.43
-0.10
-0.70
-1.47
-2.52
-3.95
-5.75
-7.74
-9.53
-10.68
-10.87
-10.07
-8.55
-6.72
-4.96
-3.46
-2.22
-1.17
-0.24
0.59
1.32
1.98
2.60
3.18
3.67
3.95
3.98
3.79
3.51
3.33
3.35
3.58
3.95
4.30
4.46
4.28
3.65
2.58
1.19
-0.31
-1.67
-2.70
-3.36
-3.74
-3.98
-4.23
-4.58
-5.09
-5.78
-6.63
-7.55
-8.38
-8.87
-8.81
-8.02
-6.57
-4.59
-2.36
-0.15
1.84
3.51
4.83
5.85
6.64
7.24
7.70
8.07
8.42
8.88
9.55
10.42
11.40
12.21
12.65
12.59
12.12
11.45
10.77
10.20
9.67
9.06
8.28
7.32
6.26
5.18
4.12
3.02
1.83
0.54
-0.82
-2.16
-3.41
-4.55
-5.61
-6.59
-7.47
-8.13
-8.44
-8.28
-7.63
-6.59
-5.33
-4.09
-3.00
-2.11
-1.34
-0.57
0.32
1.35
2.43
3.41
4.10
4.37
4.21
3.72
3.13
2.65
2.45
2.53
2.76
2.96
3.01
2.90
2.66
2.35
1.93
1.31
0.41
-0.73
-1.94
-3.00
-3.75
-4.22
-4.60
-5.12
-5.84
-6.66
-7.29
-7.47
-7.10
-6.29
-5.30
-4.37
-3.65
-3.08
-2.56
-1.96
-1.25
-0.51
0.16
0.65
0.91
0.96
0.83
0.57
0.27
-0.01
-0.21
-0.27
-0.19
-0.04
0.06
0.01
-0.21
-0.54
-0.86
-1.09
-1.23
-1.43
-1.87
-2.65
-3.71
-4.86
-5.92
-6.72
-7.29
-7.67
-7.87
-7.79
-7.27
-6.19
-4.59
-2.69
-0.78
0.88
2.21
3.30
4.31
5.35
6.36
7.16
7.52
7.34
6.67
5.76
4.90
4.35
4.17
4.27
4.43
4.45
4.24
3.84
3.36
2.93
2.57
2.26
1.87
1.34
0.61
-0.32
-1.40
-2.66
-4.14
-5.83
-7.59
-9.20
-10.31
-10.66
-10.15
-8.88
-7.10
-5.15
-3.26
-1.54
-0.01
1.33
2.46
3.33
3.86
4.06
4.00
3.82
3.64
3.54
3.54
3.59
3.67
3.75
3.82
3.90
3.97
3.99
3.90
3.65
3.22
2.64
1.94
1.14
0.27
-0.67
-1.62
-2.56
-3.41
-4.19
-4.97
-5.83
-6.87
-8.08
-9.36
-10.47
-11.12
-11.09
-10.33
-8.95
-7.22
-5.41
-3.70
-2.19
-0.83
0.43
1.63
2.77
3.82
4.73
5.44
5.94
6.21
6.28
6.22
6.18
6.23
6.42
6.67
6.88
6.96
6.89
6.69
6.38
6.00
5.50
4.83
4.01
3.11
2.27
1.63
1.25
1.07
0.91
0.55
-0.13
-1.17
-2.43
-3.68
-4.66
-5.17
-5.11
-4.45
-3.30
-1.79
-0.18
1.29
2.41
3.06
3.25
3.16
3.01
2.98
3.13
3.38
3.50
3.27
2.59
1.54
0.36
-0.67
-1.37
-1.69
-1.70
-1.54
-1.27
-0.99
-0.75
-0.68
-0.89
-1.40
-2.10
-2.79
-3.29
-3.55
-3.73
-4.03
-4.61
-5.48
-6.46
-7.40
-8.20
-8.90
-9.53
-10.03
-10.19
-9.79
-8.72
-7.07
-5.10
-3.13
-1.35
0.19
1.54
2.74
3.73
4.35
4.48
4.07
3.19
2.06
0.93
0.02
-0.54
-0.73
-0.68
-0.57
-0.58
-0.78
-1.12
-1.44
-1.61
-1.61
-1.55
-1.65
-2.11
-2.97
-4.15
-5.39
-6.48
-7.25
-7.64
-7.64
-7.28
-6.56
-5.50
-4.15
-2.64
-1.13
0.25
1.43
2.47
3.43
4.38
5.27
6.00
6.39
6.33
5.84
5.04
4.13
3.30
2.64
2.16
1.75
1.31
0.75
0.04
-0.77
-1.61
-2.43
-3.21
-3.94
-4.58
-5.05
-5.24
-5.12
-4.76
-4.38
-4.25
-4.55
-5.23
-6.04
-6.59
-6.56
-5.84
-4.55
-2.92
-1.22
0.40
1.91
3.27
4.46
5.40
6.04
6.36
6.40
6.23
5.94
5.58
5.19
4.81
4.40
3.92
3.29
2.47
1.54
0.66
0.02
-0.29
-0.29
-0.16
-0.08
-0.22
-0.61
-1.18
-1.78
-2.31
-2.76
-3.19
-3.73
-4.47
-5.38
-6.31
-7.04
-7.34
-7.10
-6.34
-5.18
-3.84
-2.49
-1.27
-0.21
0.71
1.56
2.35
3.07
3.70
4.21
4.62
4.96
5.26
5.56
5.82
6.01
6.10
6.13
6.14
6.19
6.26
6.32
6.29
6.11
5.78
5.29
4.68
3.97
3.23
2.52
1.91
1.44
1.05
0.62
-0.02
-0.97
-2.21
-3.65
-5.08
-6.25
-6.98
-7.14
-6.69
-5.68
-4.29
-2.73
-1.22
0.04
0.97
1.58
1.98
2.34
2.79
3.40
4.17
5.00
5.72
6.18
6.22
5.79
4.93
3.80
2.61
1.57
0.86
0.54
0.59
0.90
1.26
1.41
1.15
0.37
-0.82
-2.18
-3.45
-4.49
-5.30
-6.00
-6.72
-7.49
-8.23
-8.90
-9.49
-10.10
-10.75
-11.36
-11.68
-11.44
-10.47
-8.81
-6.73
-4.58
-2.64
-1.08
0.03
0.71
0.98
0.96
0.77
0.58
0.48
0.53
0.65
0.73
0.65
0.41
0.08
-0.23
-0.39
-0.36
-0.15
0.13
0.30
0.24
-0.12
-0.71
-1.41
-2.08
-2.62
-3.02
-3.37
-3.73
-4.15
-4.63
-5.14
-5.61
-5.98
-6.19
-6.17
-5.88
-5.28
-4.36
-3.15
-1.74
-0.26
1.12
2.22
2.97
3.40
3.66
3.88
4.16
4.48
4.77
4.95
4.99
4.95
4.88
4.82
4.77
4.73
4.72
4.74
4.80
4.81
4.71
4.39
3.87
3.19
2.46
1.71
0.97
0.22
-0.51
-1.22
-1.88
-2.55
-3.40
-4.56
-6.09
-7.84
-9.45
-10.47
-10.56
-9.61
-7.84
-5.65
-3.52
-1.78
-0.53
0.31
0.93
1.48
2.06
2.63
3.19
3.71
4.23
4.78
5.37
5.94
6.33
6.42
6.14
5.56
4.89
4.36
4.20
4.45
5.00
5.57
5.87
5.70
5.04
4.01
2.80
1.57
0.41
-0.64
-1.58
-2.37
-3.04
-3.69
-4.45
-5.47
-6.75
-8.16
-9.37
-10.04
-9.99
-9.23
-7.99
-6.58
-5.19
-3.89
-2.61
-1.18
0.41
2.10
3.71
5.08
6.14
6.93
7.61
8.35
9.24
10.26
11.27
12.09
12.54
12.55
12.15
11.46
10.62
9.76
8.92
8.12
7.32
6.50
5.65
4.74
3.77
2.70
1.53
0.25
-1.10
-2.49
-3.92
-5.36
-6.83
-8.32
-9.76
-11.03
-11.96
-12.41
-12.28
-11.58
-10.40
-8.92
-7.27
-5.57
-3.83
-2.07
-0.31
1.37
2.86
4.00
4.70
4.98
4.93
4.67
4.36
4.09
3.94
3.86
3.82
3.70
3.40
2.82
1.95
0.85
-0.36
-1.54
-2.56
-3.40
-4.08
-4.72
-5.43
-6.34
-7.53
-9.03
-10.83
-12.79
-14.63
-16.03
-16.61
-16.13
-14.58
-12.17
-9.29
-6.40
-3.84
-1.79
-0.22
1.01
2.11
3.22
4.36
5.49
6.45
7.13
7.53
7.75
7.90
8.10
8.31
8.37
8.12
7.48
6.56
5.58
4.78
4.21
3.76
3.15
2.19
0.81
-0.88
-2.68
-4.46
-6.23
-8.06
-10.01
-12.00
-13.72
-14.79
-14.88
-13.92
-12.09
-9.78
-7.39
-5.23
-3.38
-1.77
-0.22
1.38
3.06
4.74
6.26
7.46
8.27
8.65
8.69
8.49
8.18
7.89
7.73
7.77
8.03
8.45
8.93
9.26
9.22
8.67
7.61
6.14
4.46
2.82
1.36
0.16
-0.87
-1.91
-3.15
-4.71
-6.56
-8.51
-10.27
-11.57
-12.23
-12.18
-11.46
-10.16
-8.37
-6.18
-3.71
-1.10
1.45
3.82
5.92
7.72
9.22
10.46
11.44
12.17
12.65
12.90
12.97
12.88
12.69
12.43
12.15
11.87
11.59
11.31
10.97
10.53
9.90
9.06
7.94
6.57
4.98
3.23
1.43
-0.32
-1.92
-3.33
-4.57
-5.73
-6.96
-8.33
-9.84
-11.29
-12.38
-12.81
-12.39
-11.14
-9.23
-6.93
-4.41
-1.79
0.88
3.50
5.86
7.70
8.88
9.46
9.66
9.82
10.17
10.79
11.56
12.27
12.69
12.70
12.30
11.60
10.80
10.08
9.60
9.39
9.36
9.34
9.11
8.53
7.57
6.28
4.79
3.26
1.77
0.38
-0.95
-2.25
-3.54
-4.82
-6.05
-7.19
-8.20
-9.08
-9.74
-10.08
-9.95
-9.22
-7.91
-6.18
-4.24
-2.26
-0.30
1.71
3.81
5.97
8.05
9.86
11.30
12.35
13.14
13.78
14.28
14.55
14.47
13.99
13.21
12.36
11.67
11.24
11.00
10.77
10.36
9.70
8.84
7.90
6.96
5.99
4.87
3.49
1.81
-0.07
-2.04
-4.00
-5.97
-8.02
-10.20
-12.44
-14.45
-15.88
-16.35
-15.72
-14.12
-11.93
-9.59
-7.45
-5.62
-4.02
-2.50
-0.99
0.44
1.63
2.47
3.01
3.43
3.87
4.38
4.79
4.85
4.40
3.46
2.30
1.22
0.46
0.02
-0.22
-0.48
-0.89
-1.47
-2.14
-2.86
-3.62
-4.52
-5.62
-6.97
-8.52
-10.14
-11.62
-12.75
-13.33
-13.22
-12.39
-10.90
-8.93
-6.72
-4.48
-2.33
-0.28
1.66
3.54
5.30
6.84
8.01
8.71
8.88
8.59
7.94
7.14
6.37
5.81
5.53
5.56
5.82
6.16
6.37
6.31
5.92
5.27
4.52
3.75
2.97
2.02
0.70
-1.11
-3.36
-5.83
-8.18
-10.14
-11.54
-12.33
-12.53
-12.17
-11.24
-9.73
-7.66
-5.15
-2.40
0.34
2.87
5.01
6.71
8.06
9.17
10.21
11.24
12.15
12.76
12.83
12.29
11.25
10.03
8.99
8.42
8.37
8.66
8.95
8.94
8.48
7.55
6.33
4.96
3.54
2.10
0.65
-0.79
-2.14
-3.35
-4.45
-5.56
-6.83
-8.32
-9.86
-11.15
-11.79
-11.52
-10.27
-8.29
-5.94
-3.60
-1.46
0.41
2.04
3.46
4.60
5.41
5.85
5.99
5.93
5.77
5.57
5.33
5.01
4.54
3.91
3.14
2.32
1.50
0.72
-0.02
-0.81
-1.71
-2.79
-4.06
-5.52
-7.10
-8.73
-10.39
-12.07
-13.78
-15.58
-17.50
-19.54
-21.60
-23.49
-24.90
-25.56
-25.25
-23.98
-21.93
-19.44
-16.81
-14.22
-11.69
-9.10
-6.32
-3.28
-0.11
2.90
5.43
7.25
8.38
8.99
9.37
9.69
9.99
10.21
10.30
10.36
10.60
11.22
12.23
13.43
14.40
14.75
14.29
13.13
11.61
10.12
8.94
8.18
7.75
7.45
7.10
6.57
5.82
4.91
3.95
3.08
2.47
2.26
2.58
3.50
4.97
6.85
8.86
10.78
12.45
13.86
15.09
16.25
17.36
18.35
19.11
19.50
19.45
18.98
18.20
17.19
16.12
15.12
14.35
13.89
13.70
13.60
13.39
12.89
12.12
11.21
10.34
9.58
8.85
7.99
6.85
5.39
3.73
2.07
0.56
-0.78
-2.05
-3.42
-4.97
-6.65
-8.28
-9.61
-10.44
-10.68
-10.37
-9.70
-8.87
-8.06
-7.36
-6.73
-6.10
-5.40
-4.63
-3.88
-3.25
-2.85
-2.70
-2.73
-2.80
-2.75
-2.47
-2.00
-1.41
-0.86
-0.44
-0.15
0.06
0.24
0.38
0.37
0.07
-0.61
-1.64
-2.87
-4.11
-5.28
-6.43
-7.71
-9.23
-10.92
-12.49
-13.57
-13.86
-13.31
-12.15
-10.76
-9.49
-8.52
-7.80
-7.13
-6.31
-5.19
-3.86
-2.50
-1.38
-0.71
-0.51
-0.69
-1.03
-1.32
-1.48
-1.48
-1.47
-1.52
-1.67
-1.86
-2.01
-2.11
-2.24
-2.57
-3.19
-4.10
-5.13
-6.09
-6.81
-7.23
-7.41
-7.44
-7.32
-7.00
-6.32
-5.26
-3.89
-2.42
-1.06
0.06
0.96
1.75
2.49
3.18
3.72
4.00
3.99
3.81
3.59
3.51
3.64
3.99
4.50
5.04
5.48
5.68
5.47
4.80
3.69
2.27
0.69
-0.94
-2.55
-4.15
-5.74
-7.30
-8.78
-10.12
-11.25
-12.14
-12.71
-12.91
-12.72
-12.16
-11.31
-10.31
-9.23
-8.08
-6.86
-5.53
-4.14
-2.77
-1.57
-0.63
0.04
0.46
0.70
0.82
0.82
0.76
0.67
0.58
0.50
0.39
0.21
-0.03
-0.29
-0.50
-0.63
-0.73
-0.90
-1.24
-1.81
-2.62
-3.62
-4.75
-5.93
-7.10
-8.10
-8.79
-8.97
-8.58
-7.64
-6.31
-4.77
-3.21
-1.74
-0.39
0.89
2.14
3.35
4.45
5.32
5.90
6.19
6.28
6.29
6.30
6.33
6.35
6.31
6.20
6.05
5.84
5.55
5.15
4.60
3.90
3.05
2.09
1.08
0.08
-0.84
-1.66
-2.41
-3.22
-4.24
-5.60
-7.28
-9.08
-10.68
-11.75
-12.11
-11.77
-10.86
-9.59
-8.14
-6.60
-4.99
-3.28
-1.46
0.47
2.45
4.45
6.40
8.28
9.97
11.35
12.23
12.51
12.27
11.70
11.12
10.77
10.75
10.97
11.24
11.39
11.29
10.93
10.29
9.37
8.18
6.77
5.29
3.89
2.74
1.83
1.07
0.26
-0.77
-2.17
-3.97
-6.13
-8.51
-10.85
-12.83
-14.12
-14.48
-13.89
-12.51
-10.68
-8.72
-6.89
-5.25
-3.75
-2.27
-0.74
0.87
2.49
4.00
5.29
6.30
7.09
7.78
8.46
9.19
9.87
10.38
10.60
10.52
10.25
9.94
9.65
9.38
8.97
8.31
7.36
6.21
4.96
3.71
2.47
1.18
-0.22
-1.74
-3.35
-4.98
-6.57
-8.04
-9.34
-10.41
-11.14
-11.41
-11.09
-10.16
-8.71
-7.00
-5.27
-3.77
-2.57
-1.60
-0.73
0.14
1.02
1.86
2.57
3.10
3.43
3.56
3.48
3.20
2.83
2.53
2.47
2.69
3.04
3.24
3.02
2.28
1.18
-0.03
-1.11
-1.98
-2.75
-3.51
-4.33
-5.12
-5.84
-6.48
-7.16
-8.06
-9.25
-10.60
-11.83
-12.57
-12.57
-11.79
-10.37
-8.57
-6.63
-4.68
-2.81
-1.04
0.56
1.95
3.09
4.01
4.78
5.47
6.15
6.80
7.37
7.76
7.90
7.74
7.31
6.66
5.82
4.82
3.68
2.41
1.03
-0.40
-1.78
-3.01
-4.05
-4.91
-5.71
-6.60
-7.67
-8.93
-10.26
-11.45
-12.27
-12.52
-12.10
-11.01
-9.38
-7.38
-5.24
-3.12
-1.22
0.37
1.60
2.49
3.13
3.64
4.11
4.59
5.04
5.41
5.65
5.82
5.96
6.13
6.29
6.36
6.21
5.83
5.26
4.61
3.97
3.35
2.74
2.10
1.44
0.76
0.06
-0.75
-1.79
-3.19
-5.02
-7.19
-9.50
-11.63
-13.24
-14.07
-14.04
-13.23
-11.87
-10.26
-8.60
-6.97
-5.36
-3.68
-1.93
-0.16
1.55
3.09
4.45
5.64
6.68
7.54
8.14
8.38
8.19
7.61
6.80
6.02
5.56
5.56
6.04
6.78
7.47
7.84
7.72
7.14
6.22
5.12
3.97
2.86
1.83
0.89
0.01
-0.93
-2.09
-3.63
-5.59
-7.86
-10.14
-12.07
-13.31
-13.64
-13.02
-11.54
-9.41
-6.87
-4.15
-1.46
1.06
3.23
4.93
6.11
6.75
6.94
6.89
6.81
6.89
7.18
7.61
8.04
8.35
8.46
8.38
8.14
7.76
7.22
6.49
5.57
4.45
3.17
1.76
0.23
-1.39
-3.05
-4.63
-6.06
-7.28
-8.36
-9.42
-10.59
-11.80
-12.83
-13.31
-12.94
-11.59
-9.45
-6.90
-4.33
-2.03
-0.01
1.85
3.72
5.63
7.48
9.05
10.13
10.67
10.71
10.39
9.89
9.36
8.91
8.61
8.45
8.35
8.22
7.99
7.65
7.19
6.66
6.05
5.37
4.61
3.83
3.14
2.61
2.27
1.99
1.56
0.80
-0.38
-1.91
-3.60
-5.24
-6.59
-7.43
-7.61
-7.01
-5.68
-3.79
-1.64
0.46
2.27
3.65
4.58
5.18
5.60
6.02
6.61
7.44
8.51
9.67
10.72
11.46
11.77
11.69
11.30
10.72
10.05
9.34
8.61
7.90
7.26
6.70
6.21
5.67
4.93
3.88
2.52
0.93
-0.73
-2.29
-3.67
-4.92
-6.17
-7.52
-8.98
-10.39
-11.48
-11.97
-11.64
-10.51
-8.74
-6.60
-4.43
-2.49
-0.94
0.12
0.74
1.01
1.10
1.15
1.26
1.44
1.62
1.72
1.70
1.59
1.45
1.37
1.31
1.22
0.99
0.55
-0.01
-0.57
-1.01
-1.27
-1.45
-1.69
-2.19
-3.05
-4.32
-5.88
-7.58
-9.20
-10.49
-11.20
-11.16
-10.31
-8.72
-6.59
-4.21
-1.91
0.07
1.62
2.81
3.83
4.87
6.01
7.13
8.01
8.42
8.31
7.85
7.37
7.09
7.01
6.91
6.49
5.57
4.25
2.86
1.76
1.10
0.73
0.34
-0.37
-1.48
-2.86
-4.26
-5.54
-6.70
-7.88
-9.17
-10.48
-11.54
-12.01
-11.69
-10.61
-9.00
-7.20
-5.48
-3.98
-2.69
-1.56
-0.52
0.47
1.43
2.34
3.19
3.97
4.64
5.14
5.43
5.49
5.37
5.13
4.85
4.57
4.32
4.06
3.71
3.20
2.49
1.59
0.55
-0.58
-1.73
-2.89
-4.05
-5.23
-6.45
-7.69
-8.89
-9.95
-10.68
-10.89
-10.41
-9.18
-7.34
-5.16
-3.05
-1.34
-0.21
0.43
0.84
1.33
2.06
2.98
3.90
4.60
4.97
5.09
5.11
5.22
5.48
5.86
6.26
6.58
6.75
6.71
6.44
5.94
5.29
4.56
3.84
3.18
2.53
1.80
0.88
-0.30
-1.73
-3.36
-5.10
-6.86
-8.51
-9.88
-10.81
-11.15
-10.81
-9.81
-8.28
-6.43
-4.47
-2.56
-0.79
0.82
2.33
3.76
5.07
6.21
7.09
7.64
7.90
7.95
7.89
7.75
7.47
7.00
6.29
5.39
4.41
3.47
2.66
1.98
1.38
0.75
0.01
-0.93
-2.12
-3.60
-5.31
-7.16
-8.98
-10.62
-11.97
-12.97
-13.59
-13.81
-13.57
-12.86
-11.68
-10.14
-8.39
-6.62
-4.92
-3.34
-1.85
-0.43
0.93
2.18
3.28
4.18
4.86
5.38
5.77
6.12
6.47
6.75
6.86
6.61
5.90
4.79
3.48
2.27
1.39
0.89
0.62
0.30
-0.35
-1.43
-2.90
-4.56
-6.21
-7.67
-8.76
-9.35
-9.30
-8.58
-7.26
-5.57
-3.76
-2.08
-0.59
0.71
1.89
2.98
3.92
4.60
4.93
4.91
4.62
4.22
3.88
3.72
3.77
3.97
4.24
4.45
4.49
4.26
3.72
2.87
1.76
0.49
-0.87
-2.23
-3.52
-4.70
-5.78
-6.84
-8.00
-9.39
-11.05
-12.84
-14.50
-15.62
-15.85
-15.02
-13.22
-10.76
-8.05
-5.42
-3.03
-0.89
1.01
2.70
4.12
5.23
6.03
6.61
7.11
7.66
8.31
9.01
9.67
10.22
10.62
10.90
11.08
11.17
11.16
10.99
10.57
9.83
8.70
7.22
5.50
3.73
2.08
0.65
-0.61
-1.83
-3.19
-4.79
-6.64
-8.70
-10.84
-12.92
-14.76
-16.14
-16.83
-16.68
-15.70
-14.09
-12.14
-10.12
-8.16
-6.16
-3.98
-1.51
1.16
3.77
5.97
7.53
8.38
8.69
8.73
8.80
9.08
9.63
10.31
10.96
11.35
11.34
10.90
10.10
9.08
7.97
6.85
5.77
4.77
3.90
3.20
2.69
2.26
1.76
1.03
-0.02
-1.40
-3.04
-4.88
-6.79
-8.63
-10.25
-11.43
-11.99
-11.87
-11.14
-9.98
-8.58
-7.09
-5.53
-3.90
-2.14
-0.29
1.57
3.29
4.72
5.77
6.43
6.75
6.84
6.84
6.91
7.13
7.58
8.21
8.86
9.36
9.54
9.36
8.89
8.27
7.55
6.73
5.69
4.40
2.95
1.60
0.56
-0.11
-0.62
-1.35
-2.63
-4.49
-6.71
-8.81
-10.32
-10.98
-10.73
-9.69
-8.09
-6.18
-4.19
-2.35
-0.81
0.34
1.13
1.67
2.15
2.71
3.44
4.34
5.30
6.22
7.03
7.71
8.30
8.85
9.32
9.68
9.84
9.77
9.47
9.03
8.52
7.92
7.19
6.23
4.96
3.40
1.66
-0.12
-1.82
-3.40
-4.89
-6.39
-8.03
-9.86
-11.79
-13.57
-14.88
-15.40
-15.03
-13.85
-12.12
-10.17
-8.22
-6.34
-4.50
-2.63
-0.79
0.90
2.23
3.13
3.62
3.89
4.16
4.58
5.13
5.67
5.98
5.94
5.54
4.91
4.22
3.56
2.96
2.33
1.60
0.74
-0.20
-1.16
-2.10
-3.08
-4.22
-5.65
-7.36
-9.20
-10.86
-12.03
-12.50
-12.23
-11.30
-9.83
-7.92
-5.68
-3.26
-0.85
1.30
2.98
4.06
4.60
4.71
4.58
4.38
4.19
4.08
4.08
4.23
4.45
4.66
4.73
4.54
4.07
3.37
2.58
1.82
1.13
0.47
-0.23
-1.03
-1.95
-2.99
-4.20
-5.67
-7.48
-9.61
-11.82
-13.70
-14.79
-14.79
-13.65
-11.62
-9.10
-6.49
-4.01
-1.72
0.38
2.33
4.11
5.69
7.07
8.31
9.45
10.50
11.40
12.03
12.33
12.33
12.16
11.99
11.89
11.82
11.58
10.98
9.91
8.38
6.51
4.46
2.36
0.21
-2.01
-4.36
-6.83
-9.36
-11.77
-13.86
-15.43
-16.33
-16.48
-15.88
-14.58
-12.71
-10.41
-7.84
-5.18
-2.55
-0.03
2.38
4.72
7.01
9.15
10.96
12.27
12.95
13.06
12.78
12.37
12.04
11.88
11.85
11.87
11.84
11.69
11.40
10.95
10.29
9.42
8.34
7.05
5.61
4.01
2.24
0.31
-1.78
-4.03
-6.37
-8.72
-10.92
-12.70
-13.75
-13.81
-12.79
-10.84
-8.34
-5.67
-3.11
-0.74
1.56
3.90
6.33
8.78
11.08
13.11
14.80
16.17
17.28
18.17
18.78
19.08
19.02
18.63
17.99
17.25
16.53
15.88
15.29
14.59
13.63
12.31
10.66
8.86
7.10
5.52
4.12
2.77
1.32
-0.36
-2.29
-4.45
-6.74
-9.00
-11.02
-12.58
-13.43
-13.39
-12.43
-10.69
-8.45
-6.03
-3.66
-1.48
0.48
2.23
3.77
5.08
6.19
7.15
8.02
8.83
9.52
9.96
10.08
9.86
9.40
8.86
8.32
7.86
7.40
6.90
6.33
5.70
4.97
4.01
2.66
0.82
-1.47
-3.92
-6.17
-7.98
-9.33
-10.44
-11.57
-12.80
-13.96
-14.64
-14.41
-13.06
-10.71
-7.77
-4.75
-2.09
0.00
1.50
2.50
3.09
3.37
3.45
3.46
3.59
3.97
4.65
5.49
6.31
6.84
6.91
6.49
5.65
4.54
3.36
2.26
1.44
0.98
0.85
0.94
1.02
0.83
0.14
-1.14
-2.98
-5.25
-7.67
-9.90
-11.58
-12.41
-12.27
-11.23
-9.58
-7.68
-5.81
-4.16
-2.71
-1.40
-0.18
0.95
1.95
2.78
3.43
3.95
4.38
4.72
4.94
4.98
4.79
4.42
3.97
3.56
3.28
3.12
2.95
2.61
1.95
0.89
-0.44
-1.84
-3.03
-3.81
-4.14
-4.12
-3.99
-4.03
-4.46
-5.39
-6.83
-8.64
-10.59
-12.36
-13.61
-14.09
-13.65
-12.37
-10.46
-8.23
-5.94
-3.79
-1.81
0.01
1.70
3.24
4.52
5.46
5.98
6.15
6.10
6.01
5.99
6.05
6.08
5.92
5.48
4.79
4.01
3.33
2.87
2.65
2.55
2.41
2.08
1.51
0.74
-0.11
-0.97
-1.78
-2.57
-3.42
-4.39
-5.50
-6.71
-7.95
-9.11
-10.08
-10.73
-10.96
-10.68
-9.89
-8.67
-7.16
-5.54
-3.91
-2.31
-0.74
0.77
2.15
3.30
4.16
4.81
5.36
5.95
6.64
7.35
7.96
8.35
8.48
8.35
8.02
7.52
6.89
6.18
5.45
4.79
4.22
3.67
3.04
2.20
1.13
-0.09
-1.31
-2.40
-3.30
-4.09
-4.92
-5.97
-7.35
-9.05
-10.94
-12.72
-14.06
-14.66
-14.40
-13.38
-11.86
-10.19
-8.62
-7.28
-6.14
-5.14
-4.25
-3.51
-2.94
-2.54
-2.19
-1.79
-1.25
-0.66
-0.18
0.06
-0.00
-0.31
-0.73
-1.12
-1.46
-1.75
-2.04
-2.40
-2.81
-3.26
-3.70
-4.13
-4.55
-5.01
-5.58
-6.33
-7.30
-8.48
-9.78
-11.01
-11.91
-12.21
-11.71
-10.33
-8.15
-5.46
-2.66
-0.18
1.67
2.81
3.37
3.70
4.15
4.96
6.14
7.46
8.61
9.29
9.44
9.13
8.68
8.34
8.32
8.64
9.24
10.04
10.93
11.86
12.67
13.17
13.06
12.21
10.65
8.75
6.98
5.74
5.18
5.07
5.00
4.53
3.41
1.67
-0.51
-2.88
-5.19
-7.16
-8.48
-8.81
-7.93
-5.88
-3.03
0.05
2.79
4.88
6.30
7.22
7.86
8.32
8.60
8.64
8.47
8.13
7.73
7.26
6.68
5.91
4.94
3.82
2.67
1.56
0.48
-0.57
-1.63
-2.65
-3.55
-4.27
-4.83
-5.26
-5.69
-6.15
-6.64
-7.16
-7.71
-8.40
-9.37
-10.75
-12.49
-14.32
-15.81
-16.49
-16.07
-14.59
-12.40
-10.01
-7.84
-6.08
-4.63
-3.26
-1.79
-0.21
1.32
2.55
3.32
3.58
3.49
3.24
3.01
2.94
3.03
3.22
3.39
3.43
3.20
2.68
1.89
0.94
-0.04
-0.95
-1.79
-2.61
-3.54
-4.66
-6.01
-7.62
-9.43
-11.36
-13.25
-14.88
-15.98
-16.37
-15.96
-14.88
-13.42
-11.92
-10.61
-9.49
-8.42
-7.17
-5.64
-3.88
-2.11
-0.58
0.58
1.39
1.94
2.35
2.70
3.03
3.33
3.61
3.88
4.11
4.23
4.17
3.84
3.25
2.41
1.35
0.09
-1.34
-2.88
-4.45
-5.97
-7.36
-8.58
-9.54
-10.14
-10.24
-9.70
-8.49
-6.71
-4.58
-2.37
-0.31
1.48
3.00
4.27
5.35
6.23
6.92
7.41
7.69
7.76
7.65
7.36
6.99
6.58
6.20
5.90
5.67
5.46
5.23
4.94
4.57
4.15
3.63
2.97
2.03
0.68
-1.15
-3.40
-5.87
-8.25
-10.16
-11.33
-11.58
-10.93
-9.52
-7.60
-5.47
-3.40
-1.60
-0.11
1.09
2.16
3.22
4.34
5.48
6.54
7.38
7.90
8.07
7.90
7.50
6.99
6.49
6.10
5.82
5.66
5.55
5.39
5.13
4.72
4.12
3.31
2.26
0.97
-0.54
-2.23
-4.06
-5.96
-7.81
-9.37
-10.36
-10.54
-9.82
-8.34
-6.46
-4.59
-3.01
-1.83
-0.90
0.00
1.09
2.43
4.00
5.65
7.16
8.36
9.09
9.34
9.20
8.85
8.52
8.37
8.47
8.72
8.97
9.04
8.86
8.39
7.69
6.81
5.83
4.76
3.60
2.33
0.95
-0.49
-1.95
-3.34
-4.60
-5.75
-6.80
-7.66
-8.17
-8.06
-7.11
-5.28
-2.81
-0.12
2.31
4.20
5.54
6.55
7.47
8.45
9.43
10.19
10.54
10.43
9.99
9.48
9.12
8.99
9.02
9.00
8.75
8.17
7.26
6.10
4.81
3.50
2.28
1.27
0.63
0.36
0.39
0.45
0.22
-0.54
-1.85
-3.56
-5.46
-7.35
-9.16
-10.84
-12.25
-13.19
-13.40
-12.79
-11.46
-9.72
-7.91
-6.28
-4.86
-3.50
-2.05
-0.46
1.18
2.65
3.72
4.29
4.37
4.14
3.82
3.56
3.44
3.39
3.31
3.13
2.85
2.54
2.22
1.85
1.28
0.37
-0.92
-2.51
-4.19
-5.73
-7.02
-8.06
-8.98
-9.93
-10.93
-11.95
-12.82
-13.30
-13.21
-12.47
-11.10
-9.27
-7.22
-5.14
-3.17
-1.32
0.39
1.93
3.23
4.18
4.76
5.01
5.04
4.98
4.89
4.83
4.80
4.84
4.98
5.16
5.22
4.98
4.27
3.12
1.74
0.43
-0.55
-1.18
-1.64
-2.19
-3.09
-4.41
-6.05
-7.80
-9.44
-10.80
-11.75
-12.20
-12.06
-11.32
-10.03
-8.33
-6.40
-4.40
-2.48
-0.71
0.89
2.33
3.61
4.69
5.50
5.96
6.04
5.81
5.43
5.08
4.89
4.85
4.82
4.63
4.14
3.40
2.52
1.64
0.85
0.13
-0.63
-1.51
-2.52
-3.57
-4.54
-5.36
-6.04
-6.69
-7.46
-8.46
-9.68
-10.99
-12.13
-12.83
-12.87
-12.15
-10.75
-8.84
-6.68
-4.50
-2.44
-0.59
1.02
2.42
3.63
4.63
5.44
6.03
6.36
6.43
6.27
5.97
5.69
5.60
5.82
6.35
7.09
7.78
8.19
8.13
7.55
6.56
5.33
4.07
2.90
1.86
0.85
-0.28
-1.66
-3.40
-5.49
-7.84
-10.24
-12.40
-14.03
-14.87
-14.78
-13.80
-12.10
-9.96
-7.65
-5.38
-3.31
-1.46
0.18
1.70
3.17
4.62
6.01
7.23
8.10
8.53
8.50
8.11
7.54
6.98
6.52
6.21
6.03
5.96
5.90
5.80
5.60
5.26
4.76
4.13
3.37
2.53
1.62
0.61
-0.51
-1.78
-3.19
-4.72
-6.27
-7.66
-8.68
-9.10
-8.73
-7.56
-5.68
-3.32
-0.76
1.78
4.12
6.16
7.84
9.14
10.05
10.57
10.77
10.75
10.66
10.62
10.72
10.95
11.21
11.34
11.17
10.57
9.50
7.99
6.14
4.07
1.85
-0.39
-2.53
-4.41
-5.91
-6.96
-7.60
-8.05
-8.53
-9.31
-10.53
-12.20
-14.16
-16.15
-17.84
-18.88
-19.04
-18.20
-16.42
-13.89
-10.91
-7.75
-4.61
-1.61
1.23
3.86
6.22
8.23
9.82
11.02
11.90
12.57
13.07
13.45
13.65
13.68
13.59
13.49
13.49
13.59
13.67
13.48
12.81
11.57
9.88
8.05
6.37
4.99
3.80
2.54
0.89
-1.31
-4.03
-7.00
-9.90
-12.36
-14.13
-15.03
-14.97
-13.99
-12.28
-10.18
-8.06
-6.22
-4.81
-3.76
-2.91
-2.13
-1.45
-1.02
-1.00
-1.45
-2.21
-3.01
-3.59
-3.89
-4.03
-4.19
-4.53
-5.01
-5.51
-5.85
-5.96
-5.93
-5.90
-5.96
-6.13
-6.33
-6.50
-6.66
-7.00
-7.71
-8.90
-10.47
-12.12
-13.39
-13.84
-13.19
-11.44
-8.77
-5.53
-2.09
1.25
4.28
6.82
8.82
10.24
11.13
11.62
11.85
11.97
12.07
12.18
12.25
12.21
12.01
11.64
11.18
10.73
10.38
10.15
9.96
9.66
9.10
8.23
7.09
5.79
4.43
3.04
1.53
-0.20
-2.20
-4.38
-6.55
-8.44
-9.79
-10.47
-10.45
-9.78
-8.60
-7.03
-5.19
-3.22
-1.25
0.59
2.21
3.57
4.71
5.70
6.59
7.38
7.99
8.36
8.46
8.32
8.06
7.80
7.59
7.38
7.05
6.46
5.57
4.40
3.01
1.50
-0.05
-1.57
-2.94
-4.11
-5.04
-5.80
-6.53
-7.37
-8.40
-9.61
-10.90
-12.11
-13.05
-13.54
-13.43
-12.64
-11.24
-9.36
-7.24
-5.11
-3.06
-1.10
0.80
2.64
4.37
5.90
7.20
8.29
9.25
10.11
10.85
11.41
11.71
11.79
11.69
11.54
11.41
11.32
11.19
10.92
10.38
9.49
8.23
6.69
5.08
3.63
2.52
1.76
1.18
0.54
-0.41
-1.76
-3.47
-5.43
-7.53
-9.69
-11.78
-13.60
-14.86
-15.22
-14.51
-12.76
-10.23
-7.33
-4.46
-1.88
0.31
2.13
3.64
4.88
5.86
6.58
7.08
7.42
7.65
7.80
7.87
7.81
7.66
7.41
7.13
6.86
6.58
6.26
5.85
5.31
4.62
3.82
2.93
1.93
0.78
-0.54
-2.04
-3.68
-5.37
-7.05
-8.61
-10.00
-11.17
-12.07
-12.63
-12.76
-12.41
-11.56
-10.27
-8.69
-6.97
-5.25
-3.62
-2.13
-0.82
0.29
1.19
1.87
2.37
2.74
3.03
3.27
3.48
3.67
3.91
4.19
4.56
4.98
5.37
5.64
5.75
5.64
5.30
4.69
3.75
2.44
0.76
-1.19
-3.29
-5.36
-7.31
-9.09
-10.68
-12.07
-13.19
-13.91
-14.10
-13.66
-12.59
-10.98
-9.01
-6.89
-4.81
-2.89
-1.20
0.27
1.59
2.76
3.80
4.64
5.22
5.54
5.67
5.76
5.98
6.42
7.08
7.85
8.59
9.14
9.41
9.37
9.01
8.31
7.29
5.98
4.45
2.82
1.20
-0.34
-1.78
-3.18
-4.61
-6.16
-7.88
-9.77
-11.70
-13.43
-14.70
-15.26
-14.97
-13.87
-12.11
-9.93
-7.51
-4.95
-2.33
0.28
2.75
4.91
6.63
7.85
8.61
9.03
9.26
9.39
9.48
9.51
9.43
9.20
8.79
8.25
7.66
7.08
6.54
5.99
5.32
4.40
3.21
1.82
0.36
-1.02
-2.26
-3.38
-4.48
-5.72
-7.20
-8.97
-10.98
-13.05
-14.93
-16.32
-16.92
-16.52
-15.11
-12.84
-10.01
-6.96
-3.92
-1.05
1.65
4.14
6.38
8.25
9.67
10.64
11.30
11.87
12.58
13.51
14.60
15.70
16.64
17.36
17.82
18.01
17.92
17.50
16.70
15.59
14.27
12.89
11.55
10.28
8.99
7.59
5.96
4.09
2.06
-0.07
-2.25
-4.51
-6.93
-9.52
-12.16
-14.62
-16.60
-17.77
-17.98
-17.20
-15.55
-13.23
-10.50
-7.62
-4.86
-2.42
-0.41
1.16
2.39
3.44
4.44
5.49
6.58
7.65
8.59
9.32
9.80
10.05
10.16
10.22
10.30
10.40
10.42
10.20
9.60
8.57
7.13
5.44
3.63
1.83
0.05
-1.74
-3.61
-5.64
-7.88
-10.31
-12.85
-15.26
-17.28
-18.62
-19.03
-18.42
-16.84
-14.50
-11.64
-8.54
-5.42
-2.47
0.18
2.45
4.31
5.78
6.89
7.68
8.22
8.58
8.84
9.06
9.29
9.53
9.75
9.93
10.05
10.04
9.84
9.35
8.50
7.25
5.63
3.78
1.84
-0.04
-1.79
-3.44
-5.06
-6.80
-8.73
-10.89
-13.12
-15.15
-16.60
-17.11
-16.47
-14.73
-12.14
-9.13
-6.10
-3.36
-1.04
0.88
2.47
3.84
5.06
6.13
7.02
7.73
8.24
8.61
8.84
8.94
8.87
8.63
8.27
7.90
7.65
7.57
7.62
7.60
7.28
6.50
5.25
3.70
2.03
0.44
-1.00
-2.34
-3.66
-5.09
-6.71
-8.61
-10.80
-13.19
-15.52
-17.40
-18.42
-18.24
-16.79
-14.24
-11.00
-7.53
-4.23
-1.32
1.18
3.38
5.39
7.23
8.80
9.97
10.66
10.93
10.97
11.01
11.25
11.72
12.29
12.78
13.00
12.91
12.57
12.13
11.70
11.29
10.82
10.12
9.11
7.77
6.26
4.76
3.43
2.27
1.15
-0.17
-1.86
-4.00
-6.49
-9.18
-11.85
-14.28
-16.24
-17.49
-17.83
-17.09
-15.31
-12.67
-9.48
-6.07
-2.74
0.29
2.94
5.16
6.94
8.30
9.30
9.99
10.48
10.86
11.19
11.55
11.93
12.30
12.59
12.68
12.49
12.01
11.32
10.55
9.77
9.02
8.24
7.33
6.28
5.15
4.06
3.09
2.26
1.45
0.52
-0.65
-2.10
-3.77
-5.57
-7.36
-8.94
-10.09
-10.50
-9.90
-8.17
-5.43
-2.01
1.68
5.30
8.65
11.72
14.57
17.18
19.50
21.42
22.89
23.95
24.75
25.41
25.99
26.40
26.53
26.29
25.65
24.64
23.27
21.40
18.86
15.45
11.13
6.02
0.40
-5.40
-11.10
-16.55
-21.70
-26.52
-31.00
-35.13
-38.95
-42.49
-45.75
-48.54
-50.50
-51.21
-50.30
-47.72
-43.72
-38.82
-33.63
-28.64
-24.15
-20.26
-16.95
-14.19
-11.99
-10.37
-9.35
-8.90
-8.95
-9.40
-10.16
-11.18
-12.37
-13.69
-15.07
-16.43
-17.72
-18.88
-19.90
-20.82
-21.80
-23.00
-24.55
-26.50
-28.73
-31.02
-33.16
-35.10
-36.90
-38.88
-41.30
-44.27
-47.57
-50.61
-52.66
-53.01
-51.22
-47.32
-41.72
-35.07
-28.01
-21.02
-14.30
-7.83
-1.49
4.80
11.10
17.42
23.79
30.21
36.66
43.01
49.07
54.58
59.38
63.35
66.50
68.94
70.72
71.90
72.48
72.42
71.63
70.02
67.54
64.23
60.24
55.78
51.11
46.43
41.86
37.46
33.29
29.36
25.74
22.45
19.51
16.98
14.97
13.73
13.51
14.51
16.68
19.73
23.18
26.58
29.68
32.45
35.12
37.95
41.10
44.53
47.98
51.08
53.38
54.50
54.15
52.15
48.40
42.85
35.58
26.80
16.98
6.79
-2.95
-11.50
-18.45
-23.80
-27.84
-30.91
-33.18
-34.55
-34.89
-34.23
-32.96
-31.65
-30.78
-30.37
-29.95
-28.72
-25.99
-21.53
-15.70
-9.17
-2.66
3.38
8.82
13.70
18.09
21.92
25.04
27.31
28.76
29.51
29.82
29.92
29.96
29.99
30.01
29.95
29.67
28.96
27.54
25.15
21.62
17.03
11.73
6.18
0.82
-4.11
-8.62
-12.87
-17.05
-21.22
-25.25
-28.83
-31.52
-32.87
-32.49
-30.24
-26.32
-21.25
-15.82
-10.80
-6.76
-3.90
-2.05
-0.88
-0.03
0.77
1.68
2.75
3.91
4.87
5.13
4.06
1.17
-3.61
-9.85
-16.76
-23.49
-29.46
-34.56
-39.01
-43.15
-47.15
-50.94
-54.26
-56.86
-58.64
-59.66
-60.04
-59.87
-59.14
-57.79
-55.70
-52.84
-49.30
-45.31
-41.21
-37.31
-33.76
-30.43
-27.05
-23.28
-19.03
-14.55
-10.36
-7.03
-4.85
-3.72
-3.18
-2.75
-2.16
-1.49
-1.04
-1.06
-1.55
-2.27
-2.89
-3.17
-3.19
-3.23
-3.61
-4.56
-6.00
-7.66
-9.06
-9.76
-9.41
-7.92
-5.47
-2.47
0.54
3.06
4.82
5.80
6.18
6.18
5.97
5.64
5.25
4.86
4.58
4.45
4.40
4.27
3.88
3.11
1.96
0.55
-1.00
-2.59
-4.19
-5.74
-7.19
-8.44
-9.44
-10.15
-10.60
-10.81
-10.73
-10.27
-9.33
-7.82
-5.72
-3.08
-0.05
3.08
5.87
7.88
8.80
8.59
7.58
6.31
5.30
4.89
5.18
6.19
8.07
11.08
15.38
20.75
26.37
30.95
33.24
32.65
29.55
25.20
21.16
18.64
18.11
19.20
21.13
23.01
24.14
24.00
22.20
18.48
12.82
5.71
-1.86
-8.56
-13.23
-15.34
-15.28
-14.16
-13.36
-13.88
-15.96
-19.06
-22.23
-24.56
-25.47
-24.75
-22.39
-18.40
-12.78
-5.70
2.34
10.46
17.70
23.32
27.18
29.72
31.74
33.93
36.55
39.30
41.64
43.05
43.30
42.56
41.18
39.42
37.31
34.60
30.95
26.14
20.22
13.46
6.28
-0.87
-7.63
-13.71
-18.97
-23.37
-26.96
-29.92
-32.47
-34.80
-36.99
-38.99
-40.67
-41.86
-42.40
-42.17
-41.13
-39.22
-36.50
-33.11
-29.34
-25.57
-22.17
-19.38
-17.23
-15.51
-13.89
-12.07
-9.93
-7.61
-5.48
-3.98
-3.42
-3.79
-4.65
-5.33
-5.12
-3.57
-0.69
2.99
6.68
9.58
11.20
11.51
10.91
10.04
9.54
9.84
11.09
13.14
15.65
18.23
20.48
22.16
23.18
23.56
23.36
22.61
21.24
19.17
16.42
13.24
10.11
7.60
6.09
5.53
5.48
5.28
4.42
2.83
0.86
-0.97
-2.21
-2.78
-2.95
-3.07
-3.38
-3.85
-4.23
-4.27
-3.82
-2.97
-1.90
-0.77
0.40
1.69
3.20
4.93
6.77
8.53
9.97
10.98
11.51
11.59
11.28
10.65
9.78
8.78
7.82
7.03
6.51
6.17
5.85
5.31
4.40
3.16
1.80
0.63
-0.15
-0.55
-0.80
-1.26
-2.13
-3.42
-4.82
-5.95
-6.48
-6.31
-5.56
-4.48
-3.26
-1.98
-0.61
0.91
2.54
4.09
5.33
6.06
6.23
5.98
5.62
5.40
5.45
5.68
5.88
5.83
5.41
4.71
3.92
3.21
2.64
2.10
1.42
0.43
-0.91
-2.47
-4.06
-5.48
-6.58
-7.23
-7.36
-6.88
-5.72
-3.87
-1.48
1.23
3.93
6.35
