1520874354.00
64.000000
-0.00
-0.00
-0.00
-0.00
-0.00
-0.00
-0.00
-0.00
-0.00
-0.00
0.00
0.01
0.01
-0.00
-0.03
-0.05
-0.05
0.00
0.13
0.36
0.66
1.01
1.37
1.72
2.06
2.40
2.79
3.24
3.80
4.42
5.06
5.66
6.20
6.68
7.15
7.68
8.31
9.14
10.09
11.04
11.88
12.56
13.14
13.76
14.65
15.96
17.91
20.32
22.90
25.38
27.58
29.57
31.68
34.32
37.81
42.54
48.15
54.10
59.83
64.97
69.58
74.14
79.34
85.71
93.76
103.00
112.62
121.73
129.77
136.75
143.30
150.75
157.77
166.64
177.95
191.79
206.97
220.57
228.25
225.36
208.53
176.87
132.76
80.05
23.07
-34.94
-92.44
-149.16
-205.23
-260.37
-313.74
-363.87
-409.83
-450.91
-486.50
-515.74
-537.23
-549.22
-549.96
-538.37
-514.21
-478.67
-433.88
-382.45
-327.02
-269.84
-212.63
-156.66
-102.95
-52.37
-5.90
35.58
71.43
101.35
125.50
144.38
158.69
169.15
176.37
180.75
182.57
182.07
179.51
175.23
169.65
163.18
156.15
148.81
141.30
133.69
126.02
118.33
110.69
103.16
95.80
88.68
81.83
75.25
68.95
62.95
57.25
51.86
46.78
42.03
37.59
33.45
29.61
26.07
22.81
19.83
17.11
14.67
12.48
10.54
8.83
7.35
6.07
4.97
4.05
3.27
2.62
2.09
1.65
1.30
1.01
0.79
0.61
0.47
0.37
0.28
0.22
0.18
0.15
0.13
0.12
0.12
0.13
0.14
0.16
0.19
0.22
0.26
0.30
0.34
0.38
0.43
0.48
0.52
0.58
0.63
0.68
0.74
0.80
0.87
0.95
1.03
1.12
1.22
1.33
1.45
1.59
1.75
1.93
2.13
2.35
2.59
2.86
3.15
3.48
3.83
4.23
4.65
5.11
5.61
6.14
6.72
7.33
7.99
8.69
9.44
10.24
11.09
11.99
12.91
13.88
14.87
15.89
16.95
18.07
19.23
20.44
21.62
22.69
23.53
24.00
23.96
23.31
21.96
19.89
17.12
13.70
9.67
5.18
0.40
-4.48
-9.22
-13.58
-17.35
-20.37
-22.62
-24.15
-25.11
-25.66
-25.90
-25.87
-25.52
-24.78
-23.63
-22.16
-20.59
-19.19
-18.19
-17.68
-17.58
-17.62
-17.52
-17.05
-16.25
-15.34
-14.69
-14.63
-15.28
-16.46
-17.80
-18.89
-19.41
-19.34
-18.99
-18.80
-19.28
-20.82
-23.71
-27.85
-32.55
-36.46
-37.90
-35.30
-27.92
-16.22
-1.80
13.00
25.97
35.66
41.50
43.80
43.29
41.07
38.66
37.96
40.93
48.96
62.34
79.76
98.59
115.53
126.94
130.08
124.00
109.69
89.63
67.32
46.60
31.13
23.39
24.20
32.42
45.52
60.47
74.86
87.51
98.11
106.37
111.02
109.65
99.68
79.57
50.02
14.10
-23.64
-58.64
-87.84
-110.47
-128.01
-143.27
-159.30
-178.12
-199.65
-221.24
-238.28
-245.73
-240.22
-221.75
-194.32
-164.70
-139.99
-124.77
-119.11
-118.76
-116.77
-106.14
-82.08
-43.13
8.74
68.69
129.83
184.22
224.33
244.68
243.38
222.46
187.18
144.14
99.33
56.70
18.08
-16.16
-46.23
-72.67
-96.31
-118.35
-139.99
-161.75
-182.94
-201.78
-216.07
-223.87
-224.09
-216.64
-202.07
-181.45
-156.07
-127.42
-96.98
-66.07
-35.89
-7.54
17.74
38.80
54.95
66.77
76.42
87.09
101.75
121.51
145.01
168.85
189.38
204.37
213.95
220.13
225.43
231.48
238.44
245.30
250.81
254.09
254.58
251.54
243.68
229.33
207.25
177.49
141.82
103.21
64.70
28.39
-4.93
-35.17
-62.04
-84.33
-100.31
-108.87
-110.84
-109.62
-110.43
-118.53
-136.86
-164.80
-198.24
-231.17
-257.57
-273.00
-275.34
-264.51
-241.94
-210.17
-172.45
-132.34
-93.30
-58.24
-29.02
-6.16
11.18
24.85
36.96
49.20
62.15
75.12
86.65
95.32
100.40
102.16
101.49
99.19
95.53
90.29
83.10
73.75
62.26
48.52
32.43
14.20
-5.11
-23.44
-38.38
-48.54
-54.66
-59.83
-68.37
-83.84
-107.24
-136.51
-167.51
-195.60
-217.36
-231.00
-236.21
-233.20
-222.32
-204.27
-180.59
-154.05
-128.16
-105.99
-88.84
-75.54
-63.06
-48.17
-29.07
-6.42
17.09
37.84
52.74
60.03
59.34
51.38
38.05
22.56
9.37
3.08
6.54
19.14
36.67
53.28
64.56
70.03
73.27
79.70
93.44
115.50
144.22
177.12
212.60
249.72
286.74
319.78
343.27
352.43
345.97
327.11
302.16
277.48
256.94
241.17
228.61
217.22
205.27
191.00
172.24
146.64
113.03
72.98
31.01
-6.98
-36.21
-55.02
-65.04
-69.59
-71.41
-71.64
-70.17
-67.08
-63.37
-60.31
-57.87
-53.76
-43.94
-24.84
4.14
39.55
74.93
103.60
121.62
129.17
129.91
128.63
128.77
130.77
132.22
129.27
118.55
98.72
71.02
38.67
5.59
-25.16
-52.37
-76.60
-99.24
-121.25
-142.20
-160.44
-173.84
-181.20
-183.15
-182.20
-181.80
-185.04
-193.77
-208.26
-227.74
-250.86
-275.85
-300.37
-321.06
-333.81
-334.62
-320.93
-292.66
-252.46
-204.81
-154.46
-105.11
-58.76
-15.61
25.14
64.78
104.50
144.76
185.03
223.58
257.85
285.17
303.53
312.15
311.48
302.77
287.57
267.28
243.30
216.94
189.42
161.42
132.64
101.47
65.44
22.32
-28.73
-86.20
-146.37
-204.26
-255.23
-296.09
-325.60
-343.87
-351.77
-350.33
-340.81
-324.89
-304.56
-281.75
-257.63
-232.40
-205.79
-178.00
-150.47
-125.76
-106.48
-93.86
-86.85
-82.54
-77.31
-68.26
-54.14
-35.28
-13.03
10.89
34.68
56.63
75.07
88.48
95.86
97.03
92.81
84.88
75.37
66.13
58.30
51.95
46.23
40.02
32.47
23.53
13.75
3.73
-6.38
-17.04
-28.97
-42.34
-56.35
-69.28
-79.16
-84.69
-85.74
-83.22
-78.27
-71.59
-63.05
-52.14
-38.73
-23.62
-8.50
4.80
15.16
22.62
28.16
32.86
37.30
41.19
43.83
44.74
44.05
42.42
40.61
39.23
38.68
39.41
42.02
47.16
55.03
65.03
75.70
85.10
91.40
93.31
90.15
81.83
68.62
51.36
31.63
11.68
-6.06
-19.86
-29.41
-36.04
-41.89
-48.72
-56.61
-63.48
-65.67
-59.32
-42.08
-14.31
20.90
58.46
92.65
118.31
131.78
131.47
118.21
95.35
68.10
42.40
23.37
13.78
13.48
19.86
29.11
37.83
43.91
46.84
47.24
46.10
44.39
42.81
41.80
41.63
42.42
44.13
46.63
49.77
53.47
57.66
62.27
67.11
71.76
75.58
77.90
78.02
75.29
69.11
58.86
44.17
25.27
3.27
-19.71
-40.99
-58.03
-69.20
-74.26
-74.19
-70.77
-65.80
-60.68
-56.16
-52.47
-49.29
-46.00
-41.76
-35.76
-27.69
-17.79
-6.86
4.11
14.32
23.38
31.36
38.64
45.67
52.90
60.65
68.97
77.62
86.05
93.56
99.40
103.09
104.41
103.41
100.32
95.50
89.38
82.33
74.42
65.11
53.11
36.80
14.95
-12.31
-42.89
-72.97
-97.74
-112.71
-114.85
-103.31
-79.48
-46.59
-9.10
28.19
61.07
86.77
104.56
115.71
122.72
128.32
134.23
140.60
145.93
147.57
142.69
129.22
106.64
76.47
42.18
8.48
-19.83
-39.30
-48.76
-49.75
-45.76
-41.04
-39.13
-42.08
-50.51
-64.15
-82.58
-105.41
-132.09
-161.26
-190.45
-216.19
-234.67
-242.76
-238.88
-223.35
-198.27
-166.79
-132.31
-97.88
-65.63
-36.95
-12.61
6.74
20.26
26.94
25.98
17.53
3.21
-13.85
-29.57
-40.17
-43.24
-38.41
-27.22
-12.32
3.65
18.81
32.28
43.82
53.37
60.60
64.94
65.70
62.45
55.26
44.80
32.17
18.63
5.38
-6.72
-17.25
-26.20
-33.98
-41.30
-49.00
-57.79
-67.85
-78.35
-87.40
-92.50
-91.43
-83.03
-67.71
-47.17
-23.53
1.38
26.27
49.91
70.61
86.09
94.06
93.29
84.32
69.34
51.20
32.45
14.62
-1.64
-16.15
-28.77
-39.34
-47.66
-53.46
-56.27
-55.44
-50.39
-41.23
-29.26
-16.91
-6.89
-0.91
1.15
1.17
1.83
5.32
12.31
22.10
33.21
44.56
56.13
69.01
84.71
104.26
127.27
151.91
175.37
194.90
208.77
216.71
219.59
218.82
215.73
211.60
207.70
205.31
205.25
206.94
207.99
204.59
192.93
170.90
139.18
100.98
60.93
23.56
-7.80
-31.38
-47.06
-56.26
-61.97
-68.25
-79.16
-97.33
-122.84
-153.25
-184.85
-214.40
-240.38
-262.83
-282.18
-297.83
-307.66
-308.65
-298.38
-276.10
-243.18
-202.59
-158.09
-113.46
-72.01
-36.42
-8.64
10.43
21.45
26.76
30.00
35.18
45.17
60.79
80.63
102.02
122.42
140.76
157.58
174.12
190.80
206.03
216.26
217.43
206.90
184.90
154.50
120.31
86.61
56.12
29.81
7.66
-10.45
-24.37
-34.19
-41.06
-47.56
-56.98
-71.90
-92.55
-116.13
-137.69
-151.96
-155.48
-147.82
-131.48
-110.75
-90.04
-72.88
-61.03
-54.40
-51.11
-47.87
-40.89
-27.33
-6.86
17.73
41.10
57.47
63.00
57.40
43.62
26.10
8.53
-7.62
-23.04
-39.43
-57.97
-78.39
-98.70
-115.50
-124.64
-122.01
-104.72
-72.35
-27.83
22.77
71.53
110.98
136.14
145.52
140.48
123.70
97.83
64.93
27.03
-13.17
-51.90
-85.13
-109.83
-125.21
-132.97
-136.27
-138.24
-140.43
-142.44
-142.63
-139.49
-132.75
-123.63
-114.25
-106.52
-101.28
-97.79
-93.93
-86.86
-74.08
-54.42
-28.99
-1.12
24.59
43.99
55.03
58.31
56.43
52.37
47.83
42.64
35.16
23.42
5.92
-17.85
-47.45
-81.41
-116.98
-150.15
-176.11
-190.47
-190.72
-177.05
-152.10
-119.76
-83.43
-45.05
-4.86
37.70
82.55
127.82
169.50
202.42
222.15
226.90
218.46
201.80
183.14
167.57
157.62
153.03
151.88
151.97
151.66
149.76
145.10
136.23
121.92
101.88
77.26
50.32
23.47
-1.78
-25.28
-47.90
-70.36
-92.37
-112.40
-128.56
-139.69
-146.47
-151.62
-159.22
-173.10
-195.05
-223.52
-253.66
-278.70
-292.38
-291.32
-276.21
-251.18
-221.82
-192.68
-165.60
-139.53
-111.58
-78.50
-37.74
12.13
71.29
138.33
209.74
279.59
340.42
385.35
410.52
416.77
409.47
396.35
384.48
377.77
376.10
376.30
374.16
366.21
350.72
327.63
297.95
263.10
224.55
183.76
142.00
100.24
59.07
18.60
-21.64
-62.78
-106.43
-153.86
-204.63
-255.41
-299.67
-329.30
-337.11
-319.56
-278.05
-218.22
-147.87
-74.69
-5.08
55.94
104.03
135.39
147.38
139.70
115.09
79.18
39.02
1.33
-28.83
-48.95
-59.22
-62.06
-61.29
-61.09
-64.68
-73.48
-86.85
-102.63
-118.15
-131.33
-141.35
-148.87
-155.43
-162.57
-170.81
-179.10
-184.87
-185.07
-177.44
-161.53
-138.91
-112.52
-85.54
-60.27
-37.72
-17.92
-0.57
14.24
26.06
34.32
38.92
40.49
40.30
39.84
40.27
41.90
44.21
46.07
46.44
44.82
41.70
38.29
35.89
35.12
35.53
35.76
34.21
29.87
22.66
13.46
3.47
-6.29
-15.16
-22.66
-28.41
-32.10
-33.85
-34.63
-36.17
-40.33
-48.11
-58.67
-69.27
-76.21
-76.25
-67.98
-52.47
-32.69
-12.09
6.61
22.32
35.35
46.63
56.82
65.80
72.72
76.62
77.12
74.73
70.78
66.75
63.74
62.00
61.15
60.46
59.48
58.12
56.65
55.28
53.93
52.17
49.42
45.31
39.90
33.55
26.61
19.32
11.72
3.88
-4.10
-11.94
-19.42
-26.39
-32.95
-39.32
-45.87
-53.10
-61.56
-71.65
-83.18
-94.98
-104.85
-109.96
-107.68
-96.69
-77.55
-52.62
-25.39
0.72
23.29
41.22
54.63
64.29
71.09
75.60
78.16
78.95
78.26
76.52
74.20
71.64
68.93
66.01
62.83
59.61
56.71
54.56
53.36
52.86
52.38
51.03
48.03
43.03
36.27
28.44
20.43
12.94
6.17
-0.13
-6.40
-13.00
-19.99
-27.12
-34.12
-40.90
-47.62
-54.70
-62.57
-71.60
-81.92
-93.35
-105.03
-115.47
-122.47
-123.68
-117.32
-102.91
-81.71
-56.37
-30.21
-6.09
14.21
30.20
42.42
51.73
58.84
63.96
67.04
67.98
67.01
64.74
62.08
59.92
58.72
58.52
58.96
59.61
60.21
60.80
61.56
62.45
63.03
62.35
59.49
54.02
46.37
37.76
29.66
23.18
18.54
15.11
11.80
7.63
2.11
-4.70
-12.27
-19.86
-26.74
-32.39
-36.69
-40.09
-43.61
-48.58
-56.06
-66.29
-78.21
-89.62
-97.72
-99.91
-94.60
-81.64
-62.33
-39.14
-15.00
7.37
26.04
40.17
49.92
56.11
59.72
61.56
62.14
61.62
59.99
57.38
54.04
50.48
47.26
44.84
43.48
43.17
43.73
44.81
45.95
46.61
46.19
44.14
40.18
34.50
27.76
20.91
14.80
9.81
5.73
1.87
-2.52
-7.85
-14.07
-20.74
-27.23
-33.08
-38.09
-42.42
-46.48
-50.87
-56.20
-62.94
-71.16
-80.20
-88.67
-94.56
-95.81
-91.00
-79.75
-62.99
-42.67
-21.17
-0.74
16.99
31.11
41.34
47.94
51.42
52.41
51.64
49.85
47.75
45.86
44.44
43.45
42.67
41.90
41.09
40.42
40.06
39.95
39.61
38.40
35.72
31.52
26.31
20.91
16.05
11.99
8.47
4.95
1.00
-3.54
-8.60
-14.06
-19.89
-26.09
-32.53
-38.79
-44.30
-48.55
-51.51
-53.81
-56.63
-61.24
-68.37
-77.72
-87.67
-95.70
-99.00
-95.43
-84.19
-66.15
-43.70
-19.92
2.16
20.36
33.80
42.79
48.28
51.37
52.79
52.86
51.79
49.85
47.52
45.34
43.60
42.27
41.08
39.82
38.52
37.45
36.82
36.51
35.99
34.57
31.76
27.61
22.62
17.47
12.68
8.33
4.19
-0.06
-4.65
-9.55
-14.59
-19.58
-24.46
-29.32
-34.34
-39.74
-45.74
-52.49
-60.24
-69.19
-79.39
-90.37
-100.95
-109.23
-113.01
-110.48
-100.86
-84.85
-64.37
-42.07
-20.44
-1.20
14.89
27.80
37.79
45.01
49.40
50.90
49.73
46.55
42.34
38.22
35.05
33.28
32.89
33.56
34.90
36.55
38.22
39.71
40.86
41.46
41.29
40.05
37.42
33.16
27.33
20.38
13.11
6.43
0.83
-3.79
-8.13
-13.12
-19.37
-26.80
-34.50
-41.30
-46.20
-49.04
-50.55
-52.14
-55.37
-61.32
-70.17
-80.90
-91.54
-99.51
-102.32
-98.24
-86.89
-69.35
-47.84
-25.17
-3.93
14.10
28.20
38.54
45.79
50.65
53.56
54.70
54.19
52.29
49.57
46.72
44.35
42.71
41.66
40.84
39.98
39.14
38.63
38.76
39.50
40.36
40.39
38.72
34.76
28.67
21.20
13.48
6.48
0.64
-4.30
-9.05
-14.32
-20.40
-27.01
-33.50
-39.16
-43.66
-47.16
-50.26
-53.81
-58.59
-65.11
-73.34
-82.63
-91.47
-97.87
-99.76
-95.62
-85.00
-68.62
-48.17
-25.83
-3.72
16.45
33.48
46.69
55.86
61.09
62.81
61.67
58.48
54.15
49.56
45.56
42.79
41.57
41.71
42.55
43.13
42.55
40.31
36.74
32.94
30.43
30.59
33.91
39.76
46.48
51.86
53.89
51.30
43.81
32.04
17.20
0.69
-16.09
-31.92
-45.80
-56.98
-65.20
-70.77
-74.75
-78.83
-84.94
-94.63
-108.30
-124.63
-140.58
-152.10
-155.39
-148.23
-130.84
-105.79
-77.12
-49.02
-24.73
-6.02
6.75
14.06
16.85
16.18
13.32
9.68
6.82
6.19
8.93
15.84
27.46
43.86
64.45
87.59
110.68
130.54
144.45
150.83
149.74
142.53
131.24
117.73
103.41
89.22
75.90
64.09
54.05
45.44
37.12
27.72
16.51
4.19
-6.84
-13.33
-12.49
-3.63
11.23
27.66
40.47
45.69
41.98
30.74
15.11
-1.61
-17.05
-29.88
-39.28
-44.23
-43.56
-36.55
-23.80
-7.58
8.77
21.98
30.05
32.71
31.14
27.09
22.11
17.17
12.65
8.69
5.28
2.44
0.21
-1.31
-2.00
-1.79
-0.71
0.99
2.90
4.54
5.51
5.52
4.54
2.75
0.39
-2.24
-5.04
-8.03
-11.44
-15.49
-20.27
-25.55
-31.03
-36.40
-41.49
-46.40
-51.26
-56.21
-61.30
-66.63
-72.42
-78.86
-85.74
-92.19
-96.61
-97.13
-92.29
-81.64
-65.97
-47.05
-27.04
-7.90
9.00
22.90
33.63
41.28
46.03
48.09
47.74
45.42
41.81
37.74
34.07
31.53
30.44
30.74
32.11
34.13
36.40
38.62
40.40
41.17
40.30
37.19
31.65
23.99
15.07
6.01
-2.04
-8.29
-12.53
-15.21
-17.38
-20.42
-25.62
-33.79
-44.86
-57.64
-69.94
-79.11
-82.67
-79.21
-68.78
-52.88
-33.92
-14.44
3.56
18.96
31.44
41.01
47.74
51.57
52.51
50.87
47.39
43.11
39.11
36.13
34.50
34.11
34.54
35.21
35.47
34.86
33.14
30.46
27.18
23.71
20.17
16.27
11.44
5.27
-2.08
-9.85
-16.96
-22.69
-27.09
-31.11
-36.14
-43.27
-52.70
-63.48
-73.77
-81.36
-84.30
-81.39
-72.46
-58.32
-40.65
-21.58
-3.33
12.36
24.58
33.40
39.66
44.51
48.82
52.92
56.55
59.11
60.19
59.86
58.63
57.16
55.89
54.66
52.89
49.94
45.44
39.68
33.49
27.98
23.91
21.40
19.78
18.01
15.08
10.57
4.66
-1.95
-8.49
-14.46
-19.77
-24.72
-29.85
-35.74
-42.86
-51.39
-61.13
-71.20
-80.02
-85.54
-85.71
-79.24
-66.20
-48.04
-27.34
-6.90
11.00
25.27
35.93
43.77
49.71
54.28
57.55
59.35
59.56
58.41
56.38
53.97
51.53
49.16
46.86
44.71
42.92
41.66
41.02
40.72
40.20
38.81
35.95
31.37
25.26
18.22
11.06
4.60
-0.70
-4.81
-8.18
-11.54
-15.56
-20.49
-26.19
-32.25
-38.32
-44.36
-50.73
-57.94
-66.23
-75.12
-83.27
-88.75
-89.51
-84.25
-72.88
-56.60
-37.44
-17.68
0.88
17.13
30.64
41.36
49.42
55.00
58.39
59.99
60.19
59.32
57.48
54.81
51.49
47.97
44.83
42.58
41.44
41.26
41.60
41.89
41.59
40.33
37.86
34.07
29.00
22.91
16.32
9.90
4.30
-0.09
-3.40
-6.16
-9.23
-13.35
-18.80
-25.33
-32.22
-38.55
-43.76
-47.79
-51.24
-55.06
-60.23
-67.20
-75.67
-84.36
-91.27
-94.20
-91.44
-82.24
-67.17
-47.89
-26.71
-5.90
12.67
27.87
39.15
46.61
50.74
52.37
52.46
51.91
51.42
51.31
51.58
52.02
52.39
52.41
51.86
50.53
48.38
45.54
42.32
39.02
35.79
32.48
28.79
24.51
19.71
14.82
10.29
6.45
3.17
-0.01
-3.71
-8.29
-13.79
-19.90
-26.10
-31.82
-36.64
-40.40
-43.27
-45.75
-48.58
-52.51
-58.22
-65.85
-74.81
-83.63
-90.19
-92.15
-87.75
-76.46
-59.31
-38.69
-17.55
1.51
16.96
28.56
36.89
42.77
46.72
48.93
49.53
48.85
47.40
45.79
44.38
43.20
42.08
40.84
39.50
38.26
37.38
36.96
36.82
36.59
35.80
34.09
31.17
26.98
21.62
15.46
9.05
3.07
-1.96
-5.84
-8.81
-11.52
-14.72
-18.95
-24.23
-30.00
-35.38
-39.56
-42.36
-44.37
-46.78
-50.86
-57.31
-65.86
-75.17
-83.20
-87.81
-87.26
-80.66
-68.12
-50.77
-30.65
-10.15
8.42
23.35
33.85
40.07
42.84
43.28
42.50
41.25
39.95
38.71
37.51
36.32
35.15
34.07
33.15
32.46
32.01
31.79
31.71
31.60
31.23
30.26
28.37
25.27
21.06
16.10
11.08
6.66
3.11
0.23
-2.77
-6.78
-12.46
-19.76
-27.88
-35.51
-41.37
-44.81
-46.07
-46.26
-46.82
-49.04
-53.58
-60.50
-69.17
-78.38
-86.38
-91.05
-90.28
-82.63
-68.03
-48.09
-25.82
-4.65
12.73
25.18
33.18
38.12
41.36
43.50
44.37
43.57
41.10
37.62
34.20
31.79
30.74
30.76
31.20
31.66
32.16
33.02
34.53
36.45
38.05
38.27
36.25
31.79
25.38
18.04
10.89
4.76
-0.13
-4.02
-7.45
-10.87
-14.54
-18.42
-22.38
-26.40
-30.63
-35.36
-40.85
-47.23
-54.48
-62.39
-70.47
-77.81
-83.01
-84.36
-80.31
-70.04
-54.02
-34.00
-12.67
7.19
23.57
35.63
43.64
48.45
50.92
51.44
50.20
47.31
43.16
38.52
34.28
31.16
29.50
29.18
29.75
30.67
31.44
31.67
31.15
29.80
27.67
24.79
21.26
17.13
12.48
7.35
1.84
-4.04
-10.27
-16.75
-23.28
-29.44
-34.73
-38.70
-41.27
-42.85
-44.35
-47.04
-51.95
-59.54
-69.22
-79.29
-87.23
-90.36
-86.59
-75.29
-57.52
-35.83
-13.48
6.49
22.13
32.87
39.36
42.94
44.96
46.39
47.72
49.06
50.47
51.92
53.37
54.63
55.34
55.15
53.95
51.97
49.70
47.57
45.75
43.87
41.27
37.32
31.84
25.22
18.34
12.17
7.35
3.95
1.53
-0.63
-3.19
-6.50
-10.63
-15.35
-20.42
-25.64
-30.96
-36.50
-42.59
-49.70
-58.24
-68.26
-78.99
-88.78
-95.25
-95.99
-89.40
-75.35
-55.38
-32.28
-9.25
11.00
26.82
37.84
44.61
48.20
49.64
49.69
48.76
47.06
44.88
42.65
40.95
40.27
40.80
42.27
44.07
45.51
46.07
45.67
44.51
42.78
40.53
37.57
33.69
28.81
23.13
17.00
10.76
4.60
-1.45
-7.40
-13.12
-18.41
-23.02
-26.92
-30.43
-34.07
-38.52
-44.26
-51.46
-59.88
-68.92
-77.64
-84.74
-88.76
-88.18
-81.85
-69.47
-51.87
-31.05
-9.64
9.86
25.74
37.48
45.49
50.66
53.65
54.75
53.91
51.17
47.02
42.37
38.38
35.96
35.43
36.47
38.26
39.91
40.76
40.54
39.31
37.28
34.63
31.35
27.36
22.59
17.08
11.06
4.86
-1.22
-6.92
-12.05
-16.50
-20.27
-23.58
-26.82
-30.48
-34.95
-40.41
-46.86
-54.23
-62.37
-70.90
-79.01
-85.20
-87.55
-84.20
-74.13
-57.74
-36.88
-14.33
7.02
25.00
38.58
47.76
53.28
56.10
57.04
56.69
55.40
53.43
51.06
48.69
46.71
45.44
44.92
44.84
44.81
44.46
43.69
42.61
41.33
39.74
37.46
34.06
29.35
23.65
17.66
12.17
7.59
3.80
0.18
-3.97
-9.08
-15.00
-21.13
-26.72
-31.26
-34.73
-37.61
-40.71
-44.84
-50.58
-58.15
-67.28
-77.22
-86.56
-93.46
-95.81
-91.86
-80.88
-63.62
-42.21
-19.67
1.07
18.06
30.62
39.30
45.19
49.33
52.32
54.24
54.96
54.42
52.87
50.84
49.02
47.95
47.80
48.33
49.00
49.28
48.86
47.83
46.47
45.03
43.40
41.16
37.76
32.86
26.59
19.61
12.79
6.91
2.38
-0.96
-3.61
-6.17
-9.21
-13.05
-17.79
-23.25
-29.06
-34.77
-40.04
-44.77
-49.18
-53.76
-59.11
-65.70
-73.54
-81.96
-89.50
-94.12
-93.67
-86.58
-72.60
-52.94
-30.17
-7.46
12.42
27.78
38.33
44.78
48.34
50.02
50.42
49.75
48.17
46.04
43.97
42.62
42.39
43.26
44.76
46.21
46.97
46.73
45.52
43.60
41.29
38.77
36.02
32.91
29.33
25.28
20.86
16.27
11.75
7.59
3.96
0.89
-1.95
-5.10
-9.14
-14.36
-20.53
-26.98
-32.83
-37.56
-41.15
-44.10
-47.17
-51.05
-56.21
-62.83
-70.78
-79.40
-87.24
-92.12
-91.66
-84.07
-69.16
-48.55
-25.32
-2.96
15.79
29.60
38.61
43.81
46.47
47.62
47.91
47.71
47.25
46.67
46.09
45.59
45.28
45.21
45.41
45.73
45.85
45.46
44.35
42.62
40.66
38.86
37.34
35.70
33.26
29.36
23.86
17.37
11.01
5.87
2.47
0.49
-1.06
-3.35
-7.08
-12.37
-18.67
-25.19
-31.25
-36.48
-40.79
-44.41
-47.65
-51.05
-55.19
-60.64
-67.74
-76.28
-85.22
-92.68
-96.26
-93.72
-83.85
-67.08
-45.55
-22.61
-1.64
15.03
26.73
34.35
39.57
43.76
47.44
50.20
51.26
50.31
47.84
44.94
42.78
41.98
42.39
43.26
43.86
43.73
42.96
41.96
41.01
40.12
38.96
37.08
34.23
30.49
26.24
21.99
18.09
14.57
11.24
7.79
3.96
-0.38
-5.10
-9.99
-14.79
-19.32
-23.51
-27.40
-31.10
-34.75
-38.52
-42.67
-47.58
-53.71
-61.38
-70.55
-80.40
-89.42
-95.48
-96.47
-90.93
-78.66
-60.78
-39.49
-17.50
2.82
19.72
32.46
41.17
46.55
49.46
50.66
50.67
49.77
48.27
46.58
45.21
44.56
44.74
45.42
46.03
46.08
45.42
44.35
43.33
42.70
42.40
41.92
40.60
37.82
33.32
27.25
20.15
12.78
6.01
0.54
-3.27
-5.58
-7.12
-8.94
-11.99
-16.73
-22.90
-29.67
-36.06
-41.35
-45.27
-48.12
-50.53
-53.30
-57.26
-63.04
-70.87
-80.17
-89.42
-96.23
-97.95
-92.56
-79.58
-60.40
-37.86
-15.35
4.36
19.80
30.91
38.47
43.48
46.61
48.11
48.07
46.65
44.35
41.81
39.71
38.49
38.27
38.87
39.91
40.93
41.58
41.71
41.31
40.47
39.14
37.04
33.79
29.17
23.39
17.16
11.43
6.89
3.58
0.85
-2.20
-6.25
-11.31
-16.83
-22.10
-26.73
-30.81
-34.84
-39.35
-44.64
-50.76
-57.65
-65.22
-73.31
-81.37
-88.17
-91.79
-90.12
-81.67
-66.30
-45.59
-22.47
-0.27
18.28
31.78
40.30
44.81
46.60
46.64
45.48
43.53
41.25
39.30
38.32
38.65
40.04
41.85
43.34
44.02
43.80
42.91
41.69
40.38
39.00
37.52
35.72
33.31
30.01
25.66
20.35
14.42
8.50
3.15
-1.37
-5.31
-9.32
-14.10
-20.00
-26.69
-33.29
-38.85
-42.86
-45.61
-48.14
-51.75
-57.45
-65.48
-75.15
-85.06
-93.41
-98.40
-98.55
-92.85
-80.98
-63.56
-42.26
-19.52
1.96
19.95
33.30
42.05
47.16
49.93
51.47
52.39
52.90
52.95
52.61
52.15
51.90
52.05
52.48
52.75
52.37
51.08
49.00
46.65
44.57
43.07
41.98
40.64
38.19
34.06
28.18
21.16
14.01
7.78
3.12
0.03
-2.08
-4.14
-7.06
-11.32
-16.86
-23.06
-29.11
-34.36
-38.52
-41.83
-44.74
-47.79
-51.37
-55.84
-61.55
-68.74
-77.36
-86.65
-94.95
-99.97
-99.36
-91.57
-76.57
-56.02
-32.79
-10.07
9.53
24.67
35.27
42.25
46.85
50.01
52.15
53.24
53.11
51.89
50.05
48.36
47.51
47.75
48.87
50.28
51.35
51.64
51.03
49.71
47.90
45.80
43.37
40.39
36.63
31.94
26.50
20.71
15.08
10.10
5.99
2.76
0.03
-2.69
-5.97
-10.22
-15.50
-21.47
-27.49
-32.95
-37.51
-41.30
-44.84
-48.83
-53.89
-60.36
-68.25
-77.10
-85.97
-93.30
-97.16
-95.68
-87.77
-73.56
-54.59
-33.32
-12.35
6.31
21.64
33.48
42.12
47.99
51.36
52.43
51.50
49.15
46.24
43.77
42.55
42.93
44.62
46.84
48.64
49.32
48.75
47.31
45.59
43.93
42.20
39.90
36.50
31.78
26.05
19.98
14.33
9.54
5.60
2.04
-1.76
-6.32
-11.72
-17.68
-23.67
-29.15
-33.84
-37.77
-41.24
-44.73
-48.76
-53.80
-60.28
-68.30
-77.38
-86.15
-92.35
-93.45
-87.51
-74.13
-54.76
-32.35
-10.28
8.62
22.92
32.57
38.38
41.47
42.71
42.73
41.98
40.88
39.88
39.28
39.16
39.36
39.54
39.45
39.01
38.36
37.75
37.40
37.28
37.05
36.16
34.05
30.42
25.37
19.43
13.29
7.51
2.31
-2.46
-7.08
-11.80
-16.64
-21.44
-25.97
-30.08
-33.84
-37.54
-41.64
-46.70
-53.22
-61.37
-70.71
-79.92
-86.93
-89.39
-85.46
-74.45
-57.30
-36.29
-14.40
5.59
21.80
33.62
41.47
46.36
49.39
51.30
52.43
52.87
52.63
51.86
50.88
50.04
49.49
49.15
48.73
47.93
46.70
45.23
43.89
42.85
41.93
40.61
38.25
34.43
29.22
23.13
16.89
11.18
6.36
2.41
-1.01
-4.40
-8.24
-12.84
-18.26
-24.26
-30.40
-36.08
-40.79
-44.35
-47.00
-49.49
-52.88
-58.15
-65.79
-75.34
-85.29
-93.30
-96.76
-93.60
-83.05
-65.94
-44.56
-22.00
-1.24
15.78
28.45
37.42
44.01
49.31
53.80
57.25
59.06
58.87
56.92
54.04
51.27
49.41
48.68
48.77
49.12
49.29
49.17
48.86
48.49
47.99
46.99
44.98
41.58
36.67
30.49
23.58
16.52
9.93
4.33
0.01
-2.98
-4.93
-6.54
-8.68
-12.08
-17.00
-23.09
-29.45
-35.13
-39.57
-42.89
-45.80
-49.38
-54.63
-62.09
-71.63
-82.31
-92.37
-99.48
-101.24
-95.91
-83.04
-63.92
-41.22
-18.24
2.19
18.48
30.53
39.24
45.76
50.92
55.00
57.92
59.65
60.36
60.39
60.10
59.63
58.95
58.00
56.85
55.73
54.85
54.29
53.84
53.05
51.47
48.77
44.86
39.83
33.91
27.44
20.78
14.34
8.57
3.81
0.18
-2.54
-4.90
-7.59
-11.18
-15.85
-21.35
-27.01
-32.18
-36.51
-40.23
-44.02
-48.79
-55.24
-63.62
-73.49
-83.76
-92.74
-98.39
-98.72
-92.39
-79.22
-60.45
-38.58
-16.64
2.68
17.86
28.81
36.55
42.44
47.40
51.49
54.12
54.56
52.61
48.85
44.51
40.90
38.83
38.37
38.94
39.81
40.47
40.75
40.62
39.93
38.25
35.08
30.11
23.58
16.27
9.20
3.32
-0.94
-3.78
-5.88
-8.10
-11.14
-15.24
-20.18
-25.36
-30.15
-34.23
-37.76
-41.31
-45.69
-51.56
-59.14
-68.04
-77.13
-84.64
-88.45
-86.67
-78.22
-63.33
-43.67
-21.82
-0.68
17.49
31.59
41.64
48.46
53.01
55.88
57.23
57.01
55.34
52.76
50.13
48.26
47.52
47.62
47.89
47.60
46.45
44.68
42.78
41.20
39.93
38.52
36.36
32.93
28.13
22.25
15.89
9.71
4.22
-0.35
-4.09
-7.33
-10.57
-14.21
-18.47
-23.34
-28.59
-33.87
-38.88
-43.43
-47.64
-51.92
-57.04
-63.79
-72.54
-82.79
-92.87
-100.20
-102.06
-96.55
-83.40
-64.04
-41.17
-17.87
3.35
20.99
34.63
44.55
51.28
55.38
57.29
57.46
56.37
54.65
52.84
51.34
50.31
49.63
49.14
48.73
48.41
48.20
48.06
47.68
46.68
44.75
41.90
38.40
34.59
30.63
26.31
21.33
15.56
9.37
3.56
-1.08
-4.30
-6.65
-9.24
-13.13
-18.74
-25.55
-32.44
-38.25
-42.40
-45.09
-47.19
-49.86
-54.10
-60.51
-69.08
-79.16
-89.45
-98.12
-102.94
-101.88
-93.63
-78.21
-57.17
-33.23
-9.65
10.79
26.34
36.78
43.06
46.66
48.89
50.41
51.31
51.34
50.40
48.77
47.02
45.73
45.16
45.11
45.10
44.65
43.61
42.26
41.05
40.29
39.81
38.99
37.00
33.26
27.73
20.92
13.73
7.01
1.33
-3.14
-6.59
-9.44
-12.20
-15.29
-19.02
-23.34
-28.03
-32.65
-36.81
-40.30
-43.19
-45.85
-48.89
-53.08
-59.07
-67.19
-76.96
-86.96
-94.92
-98.21
-94.65
-83.36
-65.20
-42.54
-18.66
3.25
20.96
33.52
41.25
45.25
46.84
47.15
46.85
46.32
45.75
45.32
45.25
45.71
46.66
47.83
48.84
49.28
48.89
47.72
46.05
44.26
42.58
40.86
38.65
35.39
30.75
24.92
18.53
12.34
6.93
2.46
-1.30
-4.71
-8.13
-11.83
-15.93
-20.44
-25.28
-30.16
-34.69
-38.46
-41.42
-43.85
-46.40
-49.73
-54.31
-60.41
-67.94
-76.54
-85.31
-92.64
-96.36
-94.24
-84.90
-68.52
-47.04
-23.60
-1.48
17.01
31.02
40.85
47.47
51.62
53.60
53.39
51.12
47.30
43.01
39.44
37.43
37.22
38.31
39.91
41.26
42.07
42.46
42.69
42.78
42.26
40.46
36.76
31.12
24.21
17.11
10.89
6.12
2.62
-0.34
-3.61
-7.82
-13.01
-18.70
-24.16
-28.82
-32.57
-35.73
-39.00
-43.04
-48.36
-55.13
-63.24
-72.22
-81.13
-88.40
-91.94
-89.69
-80.41
-64.40
-43.67
-21.37
-0.67
16.29
28.83
37.53
43.40
47.21
49.18
49.24
47.41
44.10
40.10
36.24
33.14
31.14
30.30
30.54
31.65
33.28
34.83
35.62
35.03
32.82
29.17
24.67
20.01
15.62
11.55
7.37
2.55
-3.20
-9.72
-16.38
-22.39
-27.19
-30.81
-33.78
-36.93
-41.02
-46.46
-53.29
-61.26
-69.87
-78.24
-84.94
-88.12
-85.80
-76.68
-60.86
-40.05
-17.18
4.51
22.53
35.74
44.33
49.29
51.78
52.58
52.13
50.71
48.67
46.55
44.89
44.02
43.93
44.26
44.53
44.40
43.85
43.05
42.21
41.22
39.62
36.80
32.33
26.29
19.35
12.44
6.26
0.99
-3.72
-8.49
-13.71
-19.29
-24.76
-29.55
-33.39
-36.42
-39.17
-42.29
-46.42
-52.12
-59.72
-69.02
-79.09
-87.98
-93.07
-91.88
-82.93
-66.50
-44.76
-21.02
1.32
19.86
33.71
43.28
49.54
53.35
55.14
55.00
53.15
50.20
47.13
44.97
44.29
44.96
46.32
47.54
48.11
48.00
47.51
46.91
46.15
44.83
42.36
38.37
32.89
26.42
19.75
13.63
8.57
4.64
1.48
-1.56
-5.16
-9.90
-15.94
-23.05
-30.51
-37.45
-43.09
-47.06
-49.52
-51.24
-53.40
-57.23
-63.62
-72.61
-83.12
-92.99
-99.47
-100.03
-93.16
-78.97
-59.08
-36.18
-13.25
7.31
23.94
36.11
44.11
48.74
51.02
51.88
52.07
51.96
51.64
51.05
50.21
49.24
48.41
47.98
47.99
48.24
48.37
48.07
47.23
45.88
44.13
41.96
39.16
35.45
30.72
25.21
19.48
14.25
10.06
6.99
4.58
2.11
-1.15
-5.50
-10.81
-16.58
-22.29
-27.59
-32.36
-36.68
-40.70
-44.63
-48.79
-53.68
-59.96
-68.15
-78.13
-88.76
-97.86
-102.70
-100.89
-91.25
-74.37
-52.41
-28.42
-5.47
14.21
29.57
40.65
48.08
52.63
54.90
55.28
54.22
52.27
50.13
48.43
47.52
47.38
47.67
48.05
48.33
48.59
48.94
49.36
49.46
48.70
46.64
43.19
38.65
33.56
28.31
23.06
17.77
12.42
7.13
2.27
-1.89
-5.34
-8.48
-11.90
-16.05
-20.91
-25.92
-30.27
-33.38
-35.23
-36.55
-38.43
-42.01
-47.95
-56.26
-66.31
-76.89
-86.34
-92.76
-94.21
-89.17
-77.08
-58.72
-36.26
-12.84
8.39
25.19
36.72
43.52
46.93
48.34
48.67
48.28
47.21
45.50
43.51
41.79
40.89
41.08
42.25
43.92
45.48
46.39
46.41
45.62
44.32
42.78
41.11
39.15
36.52
32.82
28.00
22.30
16.40
10.99
6.51
2.91
-0.29
-3.82
-8.20
-13.51
-19.39
-25.17
-30.14
-33.92
-36.53
-38.46
-40.53
-43.68
-48.75
-56.19
-65.77
-76.48
-86.59
-93.89
-96.19
-91.93
-80.58
-63.01
-41.34
-18.47
2.68
19.88
32.20
39.89
43.93
45.46
45.25
43.72
41.19
38.16
35.37
33.61
33.35
34.53
36.63
38.95
40.88
42.07
42.43
42.06
41.06
39.38
36.83
33.17
28.18
21.98
15.06
8.26
2.34
-2.30
-5.89
-9.12
-12.71
-17.03
-21.85
-26.58
-30.57
-33.57
-35.83
-38.02
-41.06
-45.77
-52.71
-61.86
-72.29
-82.14
-88.80
-89.68
-83.12
-69.11
-49.43
-27.08
-5.27
13.47
27.90
37.92
44.19
47.62
48.93
48.70
47.35
45.31
42.96
40.70
38.89
37.80
37.57
38.16
39.34
40.77
42.06
42.85
42.81
41.66
39.17
35.31
30.29
24.50
18.49
12.71
7.46
2.91
-0.97
-4.32
-7.46
-10.90
-15.20
-20.69
-27.25
-34.23
-40.70
-45.96
-49.95
-53.42
-57.61
-63.59
-71.54
-80.44
-88.18
-92.14
-90.12
-81.04
-65.39
-45.10
-22.90
-1.63
16.51
30.38
39.88
45.70
48.81
50.11
50.22
49.52
48.33
47.01
45.98
45.49
45.49
45.62
45.39
44.54
43.20
41.99
41.55
42.10
43.12
43.46
41.84
37.51
30.67
22.42
14.20
7.13
1.68
-2.53
-6.36
-10.69
-16.00
-22.28
-29.05
-35.67
-41.48
-46.00
-48.95
-50.35
-50.60
-50.58
-51.50
-54.54
-60.28
-68.24
-76.71
-83.13
-84.89
-80.18
-68.64
-51.42
-30.86
-9.69
9.67
25.54
37.25
45.01
49.61
52.03
53.10
53.31
52.84
51.78
50.35
49.00
48.24
48.31
48.99
49.70
49.80
49.01
47.61
46.28
45.52
45.28
44.84
43.03
39.00
32.60
24.61
16.39
9.27
3.95
0.26
-2.68
-5.97
-10.44
-16.32
-23.23
-30.41
-37.01
-42.43
-46.42
-49.14
-51.15
-53.23
-56.24
-60.97
-67.87
-76.70
-86.24
-94.31
-98.20
-95.56
-85.23
-67.91
-46.07
-23.27
-2.93
12.67
23.08
29.41
33.56
37.35
41.74
46.71
51.54
55.46
57.94
58.98
58.88
57.94
56.33
54.00
51.10
48.00
45.27
43.47
42.75
42.73
42.58
41.37
38.45
33.69
27.49
20.63
13.86
7.80
2.80
-1.13
-4.16
-6.69
-9.22
-12.30
-16.27
-21.15
-26.50
-31.62
-35.85
-38.99
-41.56
-44.58
-49.21
-56.11
-65.12
-75.18
-84.54
-91.21
-93.25
-89.21
-78.52
-61.69
-40.48
-17.56
4.05
21.83
34.41
41.89
45.49
46.85
47.36
47.75
48.09
48.16
47.80
47.04
46.12
45.21
44.35
43.39
42.23
40.97
39.94
39.55
39.95
40.76
41.15
40.05
36.69
31.00
23.71
16.09
9.47
4.71
1.84
0.17
-1.45
-4.11
-8.47
-14.49
-21.52
-28.57
-34.63
-39.08
-41.92
-43.84
-45.99
-49.66
-55.74
-64.30
-74.37
-84.04
-90.84
-92.43
-87.32
-75.23
-57.33
-35.87
-13.67
6.69
23.27
35.27
42.81
46.71
48.02
47.62
46.10
43.80
40.98
37.95
35.15
33.10
32.18
32.56
34.04
36.14
38.28
39.82
40.19
38.97
35.96
31.30
25.45
19.06
12.86
7.46
3.09
-0.44
-3.61
-7.08
-11.26
-16.18
-21.57
-26.93
-31.88
-36.34
-40.50
-44.82
-49.92
-56.35
-64.27
-73.24
-81.93
-88.31
-90.02
-85.19
-73.06
-54.63
-32.32
-9.43
10.94
26.79
37.62
44.16
47.82
49.91
51.04
51.27
50.30
48.05
44.98
41.97
39.99
39.57
40.60
42.30
43.63
43.74
42.25
39.28
35.32
30.88
26.29
21.68
17.01
12.29
7.63
3.18
-0.97
-4.99
-9.23
-14.05
-19.53
-25.33
-30.83
-35.54
-39.45
-43.15
-47.67
-53.97
-62.36
-72.25
-82.14
-89.92
-93.38
-90.77
-81.20
-65.06
-44.03
-20.80
1.59
20.46
34.28
42.88
47.35
49.39
50.53
51.64
52.78
53.51
53.44
52.58
51.38
50.45
50.14
50.30
50.40
49.95
48.73
46.88
44.73
42.35
39.47
35.60
30.32
23.75
16.56
9.71
4.02
-0.24
-3.36
-6.10
-9.24
-13.32
-18.38
-24.03
-29.58
-34.47
-38.39
-41.64
-44.94
-49.30
-55.64
-64.34
-74.86
-85.63
-94.24
-98.08
-95.19
-84.90
-68.19
-47.31
-25.21
-4.60
12.70
26.07
35.79
42.61
47.26
50.17
51.60
51.71
50.78
49.27
47.72
46.57
45.99
45.91
46.13
46.42
46.69
46.82
46.67
46.00
44.64
42.44
39.39
35.56
30.98
25.74
20.11
14.56
9.64
5.70
2.62
-0.29
-3.94
-8.99
-15.35
-22.18
-28.33
-32.94
-35.92
-37.95
-40.17
-43.63
-49.02
-56.44
-65.60
-75.65
-85.17
-92.23
-94.62
-90.58
-79.38
-61.86
-40.27
-17.69
2.97
19.72
31.83
39.67
44.24
46.62
47.53
47.44
46.64
45.42
44.15
43.21
42.86
43.13
43.84
44.68
45.38
45.80
45.78
45.10
43.50
40.77
36.86
31.96
26.47
20.86
15.47
10.46
5.89
1.62
-2.46
-6.56
-10.91
-15.67
-20.82
-26.11
-31.17
-35.67
-39.68
-43.64
-48.40
-54.76
-62.99
-72.45
-81.43
-87.49
-88.20
-82.00
-68.83
-50.22
-28.78
-7.51
11.16
25.79
36.10
42.57
46.05
47.43
47.27
45.93
43.63
40.61
37.33
34.39
32.47
31.95
32.80
34.50
36.25
37.30
37.16
35.76
33.25
29.92
26.00
21.60
16.78
11.54
5.88
-0.15
-6.44
-12.75
-18.63
-23.69
-27.64
-30.66
-33.30
-36.47
-41.00
-47.32
-55.30
-64.23
-73.02
-80.37
-84.84
-85.05
-79.77
-68.37
-51.19
-29.84
-7.01
14.13
30.92
41.97
47.48
48.90
48.14
46.71
45.40
44.25
42.95
41.32
39.49
37.81
36.69
36.32
36.62
37.26
37.81
37.87
37.08
35.17
32.00
27.56
21.99
15.58
8.73
1.88
-4.60
-10.46
-15.65
-20.21
-24.26
-27.93
-31.32
-34.62
-38.07
-42.01
-46.84
-52.98
-60.63
-69.59
-79.03
-87.45
-92.77
-92.92
-86.52
-73.44
-55.02
-33.78
-12.69
5.83
20.46
31.20
38.94
44.75
49.29
52.53
54.03
53.44
50.94
47.35
43.88
41.58
40.82
41.25
42.07
42.59
42.57
42.32
42.25
42.42
42.36
41.20
38.17
33.08
26.46
19.32
12.67
7.07
2.42
-1.87
-6.41
-11.48
-16.97
-22.48
-27.58
-32.09
-36.07
-39.94
-44.30
-49.77
-56.90
-65.83
-76.06
-86.28
-94.40
-97.99
-94.99
-84.45
-66.98
-44.72
-20.76
1.72
20.30
33.83
42.42
47.11
49.28
50.09
50.27
50.06
49.49
48.54
47.30
46.00
44.83
43.92
43.30
42.87
42.57
42.35
42.09
41.57
40.42
38.14
34.29
28.69
21.62
13.85
6.50
0.56
-3.47
-5.90
-7.69
-9.99
-13.59
-18.53
-24.11
-29.32
-33.46
-36.45
-38.93
-41.95
-46.50
-53.16
-61.80
-71.46
-80.39
-86.33
-87.07
-81.07
-68.12
-49.49
-27.77
-6.07
12.93
27.60
37.63
43.73
46.99
48.32
48.17
46.69
44.05
40.77
37.69
35.63
35.10
35.92
37.46
38.90
39.57
39.25
37.98
36.00
33.48
30.53
27.25
23.66
19.76
15.37
10.27
4.27
-2.53
-9.72
-16.59
-22.45
-26.90
-30.01
-32.39
-34.95
-38.61
-44.05
-51.41
-60.26
-69.55
-77.82
-83.33
-84.40
-79.81
-69.16
-53.12
-33.39
-12.38
7.39
23.92
36.29
44.63
49.74
52.67
54.08
54.22
53.07
50.76
47.72
44.68
42.38
41.18
41.00
41.43
42.04
42.49
42.63
42.32
41.27
39.13
35.59
30.71
24.89
18.73
12.76
7.21
1.97
-3.31
-8.83
-14.60
-20.39
-25.91
-30.96
-35.52
-39.74
-43.87
-48.35
-53.66
-60.27
-68.24
-76.87
-84.52
-88.74
-87.09
-78.05
-61.79
-40.32
-16.94
4.97
23.01
36.30
45.32
51.16
54.84
56.87
57.45
56.67
54.84
52.54
50.40
48.84
47.94
47.51
47.27
47.07
46.92
46.89
46.85
46.42
45.01
42.09
37.43
31.25
24.17
17.00
10.49
5.01
0.53
-3.39
-7.36
-11.91
-17.27
-23.27
-29.40
-35.09
-39.89
-43.83
-47.44
-51.59
-57.16
-64.52
-73.25
-82.07
-89.09
-92.21
-89.74
-80.90
-66.07
-46.77
-25.32
-4.29
14.11
28.53
38.61
44.84
48.10
49.34
49.26
48.28
46.75
45.08
43.71
42.95
42.77
42.79
42.51
41.65
40.29
38.94
38.01
37.51
36.89
35.26
31.94
26.81
20.42
13.67
7.34
1.79
-3.05
-7.50
-11.79
-16.04
-20.24
-24.43
-28.64
-32.92
-37.18
-41.34
-45.41
-49.77
-55.03
-61.66
-69.45
-77.19
-82.89
-84.28
-79.67
-68.62
-52.19
-32.55
-12.36
6.03
21.16
32.55
40.43
45.31
47.73
48.05
46.61
43.88
40.60
37.70
36.05
36.04
37.43
39.45
41.16
41.90
41.57
40.49
39.14
37.67
35.83
33.02
28.70
22.81
15.87
8.80
2.48
-2.75
-7.14
-11.28
-15.71
-20.50
-25.22
-29.26
-32.16
-34.06
-35.64
-37.91
-41.84
-48.00
-56.36
-66.18
-76.05
-84.02
-87.89
-85.73
-76.55
-60.77
-40.30
-18.03
3.07
20.75
34.03
43.05
48.50
51.14
51.52
49.97
46.95
43.20
39.61
37.08
36.15
36.85
38.74
41.03
42.92
43.82
43.47
41.99
39.78
37.16
34.22
30.74
26.38
21.05
15.08
9.22
4.29
0.69
-1.90
-4.44
-7.92
-12.84
-18.90
-25.14
-30.48
-34.32
-36.81
-38.77
-41.32
-45.41
-51.67
-60.17
-70.37
-81.07
-90.37
-95.89
-95.46
-87.80
-73.14
-53.37
-31.38
-10.19
8.05
22.40
33.08
40.82
46.34
50.08
52.11
52.58
51.74
50.13
48.39
47.03
46.25
45.93
45.70
45.22
44.35
43.20
42.12
41.45
41.26
41.19
40.55
38.57
34.79
29.27
22.59
15.70
9.44
4.31
0.32
-2.91
-6.05
-9.76
-14.45
-20.11
-26.40
-32.65
-38.25
-42.81
-46.41
-49.55
-53.01
-57.56
-63.75
-71.58
-80.41
-88.78
-94.64
-95.82
-90.69
-78.81
-61.27
-40.41
-19.11
0.01
15.44
26.88
34.98
40.77
44.95
47.69
48.69
47.66
44.76
40.75
36.85
34.23
33.54
34.60
36.55
38.35
39.27
39.22
38.60
37.88
37.11
35.81
33.12
28.40
21.67
13.78
6.09
-0.08
-4.20
-6.73
-8.78
-11.57
-15.61
-20.57
-25.45
-29.31
-31.81
-33.38
-35.05
-37.89
-42.65
-49.51
-58.16
-67.94
-77.70
-85.80
-90.23
-89.06
-81.11
-66.60
-47.24
-25.87
-5.50
11.58
24.30
32.83
38.11
41.20
42.90
43.57
43.35
42.40
41.03
39.66
38.72
38.35
38.47
38.80
39.04
39.02
38.61
37.79
36.50
34.60
32.04
28.87
25.30
21.55
17.82
14.09
10.14
5.62
0.24
-6.07
-13.02
-20.06
-26.45
-31.59
-35.27
-37.76
-39.79
-42.29
-46.10
-51.77
-59.39
-68.50
-77.98
-86.22
-91.09
-90.58
-83.31
-69.15
-49.53
-27.14
-5.08
14.06
28.89
39.35
46.29
50.77
53.50
54.77
54.62
53.24
51.13
48.95
47.27
46.24
45.67
45.27
44.91
44.69
44.82
45.28
45.81
45.81
44.67
42.02
37.88
32.53
26.48
20.24
14.26
8.95
4.53
0.96
-2.08
-5.18
-8.90
-13.58
-19.09
-24.98
-30.65
-35.62
-39.68
-42.96
-45.84
-48.87
-52.75
-58.23
-65.86
-75.51
-86.07
-95.36
-100.60
-99.25
-89.97
-73.25
-51.42
-27.84
-5.84
12.28
25.77
35.20
41.76
46.58
50.25
52.78
54.05
54.03
53.01
51.49
50.01
48.97
48.57
48.85
49.69
50.78
51.66
51.89
51.16
49.44
46.91
43.87
40.41
36.53
32.15
27.34
22.34
17.59
13.43
9.95
6.92
3.89
0.47
-3.57
-8.23
-13.35
-18.70
-24.09
-29.33
-34.31
-38.97
-43.33
-47.54
-51.94
-56.96
-63.04
-70.44
-78.90
-87.47
-94.41
-97.61
-95.15
-85.95
-70.23
-49.59
-26.64
-4.30
14.91
29.41
38.77
43.58
45.03
44.55
43.28
42.01
41.02
40.39
40.10
40.26
40.99
42.33
43.95
45.29
45.73
44.96
43.17
40.94
38.86
37.13
35.44
33.09
29.56
24.76
19.23
13.80
9.06
5.10
1.45
-2.60
-7.58
-13.45
-19.60
-25.22
-29.67
-32.82
-35.14
-37.51
-40.88
-45.95
-52.98
-61.65
-71.21
-80.34
-87.40
-90.48
-87.92
-78.83
-63.51
-43.67
-21.95
-1.16
16.58
30.29
40.10
46.67
50.72
52.65
52.61
50.79
47.62
43.93
40.70
38.83
38.81
40.54
43.41
46.47
48.83
49.95
49.76
48.53
46.58
43.93
40.26
35.17
28.54
20.90
13.28
6.79
2.11
-0.92
-3.23
-6.06
-10.31
-16.18
-23.03
-29.84
-35.57
-39.82
-42.83
-45.47
-48.81
-53.74
-60.65
-69.27
-78.65
-87.25
-93.12
-94.25
-89.07
-76.91
-58.44
-35.65
-11.50
10.84
28.87
41.39
48.60
51.77
52.53
52.21
51.55
50.76
49.89
49.04
48.48
48.50
49.13
50.05
50.79
50.90
50.36
49.48
48.75
48.42
48.32
47.80
46.11
42.75
37.67
31.32
24.39
17.52
11.14
5.48
0.68
-3.21
-6.30
-8.95
-11.77
-15.44
-20.30
-26.16
-32.32
-37.89
-42.31
-45.60
-48.41
-51.77
-56.62
-63.49
-72.25
-82.01
-91.19
-97.81
-99.73
-95.38
-84.19
-66.99
-45.82
-23.40
-2.28
15.79
30.07
40.75
48.33
53.25
55.71
55.78
53.71
50.13
46.14
42.89
41.29
41.61
43.48
46.13
48.68
50.55
51.51
51.63
50.97
49.48
46.94
43.28
38.62
33.35
27.97
22.83
18.08
13.65
9.50
5.67
2.18
-1.04
-4.35
-8.23
-13.10
-18.94
-25.26
-31.28
-36.26
-39.91
-42.55
-45.03
-48.51
-54.02
-62.07
-72.35
-83.64
-93.92
-100.84
-102.29
-96.88
-84.41
-65.94
-43.54
-19.91
2.30
20.97
34.94
44.12
49.25
51.46
51.85
51.18
49.86
48.22
46.66
45.66
45.61
46.62
48.34
50.18
51.58
52.12
51.73
50.53
48.73
46.54
44.11
41.56
38.91
36.01
32.55
28.24
23.01
17.22
11.56
6.74
3.07
0.35
-2.05
-4.83
-8.46
-12.98
-18.06
-23.26
-28.28
-32.97
-37.36
-41.47
-45.38
-49.28
-53.63
-59.07
-66.20
-75.34
-85.91
-96.38
-104.31
-107.03
-102.47
-89.99
-70.68
-47.06
-22.32
0.53
19.37
33.24
42.16
46.85
48.29
47.42
45.22
42.58
40.33
39.09
39.04
40.00
41.42
42.67
43.31
43.25
42.75
42.24
42.06
42.23
42.41
41.99
40.33
36.99
31.99
25.77
19.12
12.87
7.61
3.45
-0.01
-3.45
-7.47
-12.27
-17.65
-23.08
-28.00
-32.06
-35.29
-38.01
-40.76
-44.22
-49.04
-55.65
-64.03
-73.40
-82.06
-87.68
-87.91
-81.26
-67.63
-48.53
-26.70
-5.21
13.32
27.38
36.70
42.00
44.50
45.42
45.52
45.06
43.94
41.96
39.27
36.36
33.98
32.77
33.00
34.42
36.43
38.39
39.78
40.37
40.02
38.62
35.96
31.89
26.43
19.90
12.94
6.28
0.50
-4.24
-8.25
-12.08
-16.20
-20.73
-25.40
-29.76
-33.53
-36.87
-40.51
-45.40
-52.31
-61.35
-71.62
-81.36
-88.20
-89.87
-84.79
-72.69
-54.71
-33.22
-11.11
8.95
25.20
37.00
44.69
49.04
50.95
51.06
49.84
47.68
45.09
42.69
41.00
40.35
40.63
41.42
42.15
42.43
42.11
41.32
40.23
38.87
37.06
34.47
30.81
25.97
20.18
13.91
7.83
2.51
-1.73
-5.02
-7.85
-10.94
-14.85
-19.73
-25.28
-30.92
-36.07
-40.60
-44.91
-49.83
-56.17
-64.29
-73.73
-83.09
-90.33
-93.09
-89.49
-78.77
-61.69
-40.44
-18.06
2.53
19.42
32.04
40.96
47.20
51.64
54.54
55.75
55.13
52.89
49.77
46.83
45.03
44.86
46.16
48.27
50.27
51.51
51.66
50.88
49.43
47.52
45.05
41.71
37.13
31.23
24.38
17.35
11.08
6.22
2.90
0.53
-1.87
-5.24
-10.07
-16.14
-22.59
-28.34
-32.56
-35.12
-36.66
-38.32
-41.33
-46.54
-54.22
-63.95
-74.86
-85.59
-94.54
-99.83
-99.70
-92.97
-79.59
-60.98
-39.68
-18.69
-0.38
14.15
25.17
33.80
41.10
47.48
52.62
55.83
56.69
55.42
52.87
50.15
48.12
47.06
46.74
46.69
46.51
46.15
45.83
45.79
45.98
45.96
44.94
42.16
37.27
30.51
22.75
15.09
8.51
3.49
-0.10
-2.88
-5.65
-9.04
-13.34
-18.41
-23.82
-29.01
-33.61
-37.62
-41.34
-45.30
-50.06
-56.09
-63.51
-72.08
-81.05
-89.11
-94.49
-95.24
-89.82
-77.67
-59.57
-37.61
-14.63
6.49
23.71
36.21
44.29
48.91
51.10
51.55
50.68
48.77
46.28
43.88
42.18
41.53
41.80
42.56
43.34
43.91
44.32
44.65
44.85
44.57
43.29
40.58
36.30
30.64
24.02
17.02
10.26
4.29
-0.58
-4.42
-7.73
-11.22
-15.47
-20.58
-26.21
-31.71
-36.58
-40.64
-44.16
-47.66
-51.83
-57.32
-64.54
-73.36
-82.76
-90.72
-94.60
-91.98
-81.66
-64.29
-42.29
-19.07
2.16
19.37
32.06
41.00
47.36
52.08
55.45
57.29
57.35
55.80
53.31
50.87
49.38
49.17
49.93
51.00
51.69
51.64
50.93
49.92
48.94
48.02
46.90
45.07
42.04
37.50
31.50
24.45
16.98
9.70
3.20
-2.24
-6.55
-9.97
-12.93
-15.94
-19.45
-23.62
-28.31
-33.12
-37.66
-41.73
-45.49
-49.32
-53.68
-59.01
-65.63
-73.68
-82.85
-92.11
-99.60
-102.87
-99.65
-88.74
-70.68
-47.74
-23.28
-0.68
17.63
30.71
39.02
43.84
46.72
48.85
50.88
52.86
54.43
55.14
54.80
53.55
51.93
50.57
49.89
50.00
50.59
51.17
51.19
50.28
48.28
45.32
41.61
37.41
32.95
28.36
23.71
19.13
14.82
10.98
7.83
5.29
2.99
0.35
-3.22
-8.00
-13.85
-20.22
-26.39
-31.86
-36.48
-40.42
-44.04
-47.73
-51.84
-56.79
-63.08
-71.07
-80.63
-90.68
-99.24
-103.70
-101.73
-92.15
-75.42
-53.73
-30.18
-7.94
10.76
24.97
34.98
41.71
46.19
49.10
50.65
50.88
49.82
47.82
45.48
43.46
42.31
42.21
42.99
44.29
45.76
47.10
48.10
48.57
48.22
46.72
43.74
39.08
32.85
25.55
17.99
11.11
5.70
2.05
-0.16
-1.76
-3.83
-7.30
-12.54
-19.27
-26.64
-33.54
-39.04
-42.75
-45.05
-46.94
-49.78
-54.80
-62.55
-72.39
-82.51
-90.22
-92.76
-88.26
-76.38
-58.47
-37.05
-15.06
5.08
21.78
34.48
43.20
48.39
50.64
50.63
49.14
47.00
44.94
43.46
42.75
42.70
43.18
43.96
44.79
45.41
45.58
45.14
44.05
42.38
40.11
37.12
33.30
28.58
23.14
17.37
11.67
6.30
1.30
-3.60
-8.66
-14.00
-19.53
-24.94
-29.90
-34.18
-37.69
-40.47
-42.78
-45.17
-48.46
-53.68
-61.48
-71.70
-82.91
-92.51
-97.50
-95.42
-85.35
-68.30
-46.94
-24.53
-3.97
13.04
26.12
35.84
43.08
48.53
52.48
54.96
56.01
55.76
54.54
52.72
50.69
48.75
47.15
46.03
45.46
45.36
45.50
45.51
44.96
43.56
41.10
37.59
33.10
27.81
21.94
15.86
10.16
5.38
1.92
-0.33
-2.08
-4.46
-8.54
-14.82
-22.87
-31.43
-38.96
-44.34
-47.34
-48.77
-50.02
-52.50
-57.18
-64.35
-73.65
-84.03
-93.85
-100.98
-103.11
-98.36
-86.07
-67.16
-44.14
-20.32
1.22
18.52
31.04
39.44
44.89
48.38
50.45
51.32
51.03
49.79
48.02
46.29
45.10
44.76
45.22
46.19
47.27
48.05
48.22
47.68
46.50
44.80
42.64
40.03
36.80
32.80
27.84
21.97
15.51
9.04
3.25
-1.33
-4.56
-6.86
-8.96
-11.67
-15.52
-20.50
-26.17
-31.84
-36.90
-41.08
-44.59
-47.97
-52.03
-57.47
-64.76
-73.84
-84.03
-93.95
-101.71
-105.29
-102.96
-93.86
-78.30
-57.80
-34.87
-12.30
7.43
22.83
33.58
40.35
44.23
46.15
46.66
45.95
44.25
42.02
40.02
39.01
39.34
40.77
42.55
43.85
44.17
43.58
42.59
41.68
40.94
40.00
38.14
34.79
29.79
23.57
16.90
10.61
5.17
0.57
-3.60
-7.92
-12.76
-18.19
-23.96
-29.66
-34.93
-39.53
-43.48
-47.04
-50.70
-55.13
-60.97
-68.50
-77.25
-85.73
-91.61
-92.29
-86.00
-72.50
-53.33
-31.33
-9.62
9.42
24.58
35.83
43.71
48.84
51.64
52.38
51.44
49.42
47.12
45.24
44.23
44.18
44.92
46.05
47.11
47.72
47.70
47.04
46.00
44.80
43.45
41.66
38.89
34.65
28.79
21.71
14.28
7.48
2.03
-1.95
-4.98
-7.85
-11.35
-15.90
-21.40
-27.39
-33.22
-38.40
-42.78
-46.66
-50.74
-55.79
-62.48
-71.04
-80.91
-90.77
-98.61
-102.11
-99.30
-89.12
-71.86
-49.32
-24.36
-0.23
20.32
35.74
45.93
51.90
55.10
56.72
57.39
57.25
56.32
54.83
53.36
52.52
52.63
53.54
54.74
55.62
55.77
55.08
53.68
51.78
49.66
47.45
45.24
42.83
39.78
35.52
29.73
22.62
15.08
8.22
2.91
-0.73
-3.38
-6.15
-9.98
-15.20
-21.49
-28.17
-34.52
-40.11
-44.80
-48.69
-52.10
-55.57
-59.90
-66.01
-74.45
-84.92
-95.95
-104.97
-109.05
-105.73
-94.02
-74.77
-50.60
-24.99
-1.28
18.22
32.66
42.46
48.74
52.69
55.17
56.60
57.12
56.80
55.75
54.25
52.67
51.39
50.77
50.98
51.96
53.41
54.75
55.42
54.98
53.27
50.40
46.65
42.33
37.75
33.16
28.72
24.53
20.58
16.76
12.95
9.10
5.24
1.40
-2.43
-6.39
-10.71
-15.54
-20.89
-26.55
-32.16
-37.38
-41.98
-45.92
-49.40
-52.88
-57.02
-62.68
-70.51
-80.62
-92.12
-102.95
-110.21
-110.93
-103.16
-86.79
-63.69
-37.26
-11.31
11.00
27.93
39.28
45.94
49.20
50.25
49.84
48.49
46.67
44.97
43.96
44.00
44.98
46.31
47.28
47.40
46.74
45.88
45.48
45.81
46.44
46.46
44.91
41.28
35.73
28.94
21.80
15.02
8.99
3.70
-1.08
-5.65
-10.17
-14.71
-19.14
-23.29
-27.08
-30.49
-33.75
-37.14
-41.05
-45.92
-52.13
-59.80
-68.56
-77.29
-84.18
-87.03
-83.96
-74.02
-57.64
-36.61
-13.67
8.19
26.49
39.86
48.20
52.45
54.01
54.08
53.32
51.87
49.71
47.04
44.38
42.38
41.40
41.34
41.70
41.96
41.94
41.77
41.69
41.65
41.24
39.84
36.90
32.32
26.35
19.58
12.62
6.04
0.20
-4.75
-8.91
-12.60
-16.31
-20.43
-25.08
-29.98
-34.70
-38.85
-42.52
-46.33
-51.28
-58.29
-67.66
-78.69
-89.72
-98.34
-102.06
-98.99
-88.35
-70.89
-48.61
-24.36
-0.97
19.35
35.38
46.95
54.50
58.85
60.66
60.50
58.76
55.89
52.39
48.95
46.22
44.68
44.48
45.36
46.79
48.11
48.81
48.77
48.14
47.23
46.15
44.71
42.32
38.43
32.72
25.46
17.53
10.12
4.28
0.37
-2.12
-4.40
-7.80
-13.14
-20.35
-28.54
-36.43
-42.91
-47.50
-50.48
-52.73
-55.41
-59.66
-66.21
-75.17
-85.73
-96.05
-103.59
-105.70
-100.44
-87.33
-67.58
-43.80
-19.17
3.46
22.21
36.40
46.18
52.23
55.32
56.15
55.46
53.96
52.28
50.89
49.97
49.49
49.31
49.29
49.40
49.62
49.85
49.86
49.43
48.39
46.75
44.59
41.88
38.37
33.71
27.72
20.70
13.43
6.86
1.64
-2.28
-5.63
-9.47
-14.50
-20.71
-27.35
-33.35
-37.96
-41.20
-43.81
-47.00
-51.90
-59.13
-68.65
-79.68
-90.73
-99.73
-104.29
-102.22
-92.35
-75.03
-52.29
-27.34
-3.63
16.22
31.00
40.90
46.97
50.36
51.80
51.57
49.74
46.53
42.56
38.72
35.91
34.70
35.22
37.11
39.70
42.24
44.09
44.85
44.36
42.58
39.60
35.54
30.62
25.09
19.24
13.26
7.26
1.20
-4.97
-11.19
-17.29
-23.05
-28.23
-32.76
-36.67
-40.19
-43.80
-48.18
-54.10
-62.00
-71.57
-81.38
-89.00
-91.68
-87.29
-75.20
-56.61
-34.17
-11.12
9.66
26.29
38.07
45.29
48.82
49.78
49.28
48.12
46.78
45.33
43.67
41.75
39.83
38.46
38.15
39.15
41.04
43.00
44.03
43.50
41.31
37.86
33.69
29.14
24.20
18.68
12.51
5.83
-0.83
-6.95
-12.22
-16.78
-21.05
-25.51
-30.46
-35.79
-41.22
-46.52
-51.93
-58.07
-65.68
-74.99
-85.14
-94.03
-98.81
-96.86
-86.83
-69.35
-46.81
-22.60
-0.00
18.80
33.10
43.41
50.78
56.07
59.62
61.34
61.15
59.34
56.71
54.31
52.89
52.54
52.73
52.59
51.53
49.60
47.40
45.80
45.31
45.76
46.26
45.62
42.84
37.55
30.19
21.80
13.65
6.69
1.24
-3.09
-7.17
-11.87
-17.61
-24.19
-30.89
-36.86
-41.63
-45.22
-48.19
-51.42
-55.75
-61.87
-70.06
-79.92
-90.21
-98.79
-103.04
-100.57
-90.17
-72.41
-49.58
-25.05
-2.16
16.79
30.93
40.64
47.00
51.10
53.68
55.07
55.42
54.83
53.57
52.03
50.61
49.60
49.03
48.79
48.63
48.36
47.87
47.10
46.00
44.36
41.90
38.35
33.59
27.83
21.51
15.25
9.55
4.65
0.38
-3.77
-8.37
-13.82
-20.06
-26.54
-32.40
-36.82
-39.49
-40.82
-41.82
-43.84
-48.16
-55.46
-65.61
-77.46
-88.88
-97.21
-99.85
-95.04
-82.38
-63.16
-39.93
-15.88
6.07
23.93
36.93
45.37
50.18
52.41
52.92
52.30
50.94
49.17
47.38
45.88
44.87
44.26
43.78
43.16
42.39
41.71
41.45
41.67
41.97
41.56
39.60
35.64
29.80
22.79
15.51
8.75
2.95
-1.94
-6.34
-10.78
-15.65
-21.09
-26.76
-32.10
-36.50
-39.66
-41.84
-43.79
-46.61
-51.33
-58.57
-68.16
-78.92
-88.82
-95.24
-95.72
-88.70
-74.17
-53.71
-30.20
-6.78
13.82
30.00
41.40
48.55
52.50
54.30
54.73
54.20
52.88
50.95
48.70
46.74
45.75
46.16
47.89
50.29
52.40
53.37
52.81
50.92
48.26
45.35
42.40
39.23
35.46
30.75
24.99
18.53
11.91
5.81
0.68
-3.41
-6.86
-10.32
-14.48
-19.73
-25.93
-32.57
-38.88
-44.21
-48.36
-51.56
-54.48
-57.90
-62.55
-68.86
-76.91
-86.16
-95.35
-102.49
-105.16
-101.20
-89.47
-70.53
-46.71
-21.52
1.52
19.88
32.71
40.74
45.52
48.55
50.69
52.07
52.45
51.77
50.31
48.71
47.66
47.48
48.06
48.99
49.88
50.56
51.10
51.63
52.08
52.10
51.12
48.60
44.38
38.72
32.26
25.72
19.63
14.26
9.65
5.77
2.53
-0.16
-2.59
-5.18
-8.39
-12.62
-17.98
-24.26
-30.99
-37.55
-43.37
-48.06
-51.45
-53.72
-55.47
-57.65
-61.40
-67.65
-76.71
-87.90
-99.50
-108.95
-113.37
-110.34
-98.74
-79.25
-54.36
-27.67
-2.86
17.38
31.98
41.37
46.85
49.87
51.39
51.86
51.49
50.52
49.37
48.49
48.10
48.16
48.44
48.75
49.11
49.57
50.02
50.07
49.16
46.86
43.24
38.91
34.66
31.00
27.85
24.56
20.41
15.13
9.07
3.09
-2.08
-6.20
-9.60
-12.98
-16.94
-21.67
-26.89
-32.08
-36.69
-40.46
-43.49
-46.19
-49.23
-53.26
-58.86
-66.25
-75.20
-84.84
-93.74
-99.95
-101.41
-96.46
-84.39
-65.93
-43.15
-19.09
3.09
21.00
33.56
41.09
44.81
46.22
46.45
46.00
44.85
42.85
40.08
37.05
34.56
33.34
33.69
35.39
37.71
39.83
41.11
41.30
40.44
38.73
36.23
32.90
28.59
23.27
17.13
10.65
4.50
-0.76
-4.86
-8.07
-11.01
-14.48
-19.04
-24.73
-30.99
-36.96
-41.94
-45.75
-48.97
-52.69
-58.11
-65.93
-75.91
-86.69
-96.05
-101.41
-100.54
-92.31
-77.04
-56.43
-33.15
-10.05
10.50
27.02
39.06
46.98
51.47
53.32
53.11
51.28
48.26
44.62
41.19
38.85
38.22
39.41
41.91
44.86
47.33
48.76
48.97
48.21
46.85
45.11
42.87
39.78
35.45
29.70
22.83
15.59
8.83
3.15
-1.43
-5.59
-10.27
-16.20
-23.39
-31.04
-37.95
-43.15
-46.38
-48.30
-50.18
-53.40
-58.95
-67.25
-77.87
-89.62
-100.46
-107.74
-108.78
-101.66
-86.06
-63.63
-37.62
-11.84
10.60
28.08
40.60
49.09
54.65
58.08
59.72
59.74
58.53
56.71
54.96
53.73
53.18
53.11
53.31
53.52
53.54
53.27
52.54
51.30
49.63
47.68
45.56
43.18
40.22
36.25
31.02
24.66
17.76
11.13
5.47
1.00
-2.66
-6.34
-10.88
-16.75
-23.77
-31.20
-38.01
-43.46
-47.37
-50.30
-53.41
-58.08
-65.37
-75.60
-88.08
-101.00
-111.76
-117.42
-115.55
-104.90
-85.94
-60.85
-32.98
-5.88
17.55
35.71
48.30
55.96
59.83
61.03
60.47
58.86
56.77
54.69
53.03
52.07
51.82
52.03
52.30
52.33
52.04
51.56
51.19
50.99
50.69
49.69
47.27
42.94
36.67
29.07
21.08
13.69
7.57
2.79
-1.06
-4.75
-9.06
-14.50
-21.03
-28.15
-35.02
-40.89
-45.44
-49.01
-52.52
-57.23
-64.25
-73.96
-85.55
-96.92
-105.02
-106.75
-99.91
-84.16
-61.19
-34.39
-7.69
15.59
33.61
46.02
53.64
57.63
58.99
58.43
56.40
53.40
50.13
47.35
45.70
45.46
46.36
47.77
48.89
49.17
48.51
47.25
45.84
44.54
43.11
40.94
37.44
32.42
26.37
20.21
14.83
10.58
7.08
3.40
-1.48
-8.11
-16.30
-25.26
-33.85
-41.12
-46.69
-50.85
-54.50
-58.86
-65.00
-73.40
-83.58
-93.82
-101.49
-103.62
-97.86
-83.52
-61.89
-36.03
-9.74
13.65
32.22
45.63
54.63
60.27
63.28
63.97
62.57
59.56
55.82
52.36
50.02
49.12
49.42
50.33
51.21
51.67
51.59
51.08
50.22
48.88
46.73
43.40
38.63
32.52
25.50
18.24
11.32
5.09
-0.47
-5.68
-10.92
-16.47
-22.35
-28.39
-34.20
-39.37
-43.66
-47.22
-50.76
-55.43
-62.40
-72.23
-84.30
-96.58
-106.01
-109.42
-104.47
-90.57
-69.10
-43.01
-16.01
8.41
27.92
41.71
50.39
55.40
58.26
59.95
60.75
60.49
59.02
56.59
53.85
51.59
50.33
50.07
50.42
50.85
51.01
50.83
50.33
49.35
47.51
44.34
39.61
33.58
27.03
20.96
16.06
12.41
9.42
6.15
1.82
-3.83
-10.42
-17.12
-23.15
-28.11
-32.18
-36.12
-40.95
-47.60
-56.39
-66.74
-77.03
-84.80
-87.40
-82.75
-70.14
-50.65
-26.96
-2.59
19.16
36.09
47.51
54.01
56.89
57.36
56.25
53.94
50.68
46.89
43.17
40.21
38.48
38.07
38.67
39.75
40.73
41.08
40.45
38.66
35.73
31.83
27.21
22.12
16.69
11.02
5.16
-0.76
-6.56
-12.06
-17.23
-22.15
-26.97
-31.76
-36.49
-41.13
-45.82
-51.01
-57.30
-65.02
-73.72
-81.93
-87.35
-87.52
-80.75
-66.84
-47.25
-24.73
-2.37
17.15
32.29
42.68
48.85
51.78
52.36
51.25
48.91
45.79
42.41
39.46
37.53
36.91
37.39
38.32
38.90
38.50
36.92
34.42
31.55
28.82
26.36
23.85
20.57
15.67
8.70
-0.07
-9.65
-18.59
-25.61
-30.18
-32.79
-34.77
-37.78
-43.10
-51.21
-61.48
-72.27
-81.38
-86.46
-85.51
-77.48
-62.57
-42.40
-19.67
2.55
21.62
35.94
45.20
50.12
51.90
51.75
50.47
48.47
45.92
42.97
39.90
37.05
34.74
33.03
31.76
30.70
29.71
28.86
28.34
28.20
28.14
27.47
25.23
20.63
13.44
4.16
-6.05
-15.75
-23.79
-29.71
-33.98
-37.78
-42.61
-49.63
-59.11
-70.10
-80.53
-87.75
-89.30
-83.68
-70.82
-52.11
-30.09
-7.69
12.42
28.53
40.06
47.46
51.76
53.98
54.85
54.64
53.35
50.96
47.68
43.96
40.38
37.46
35.43
34.27
33.65
33.19
32.55
31.55
30.11
28.13
25.31
21.29
15.65
8.28
-0.49
-9.85
-18.74
-26.21
-31.85
-35.94
-39.35
-43.29
-48.90
-56.81
-66.81
-77.75
-87.60
-93.86
-94.20
-87.17
-72.79
-52.56
-29.19
-5.84
14.68
30.62
41.56
48.22
51.93
53.97
55.11
55.46
54.69
52.51
49.07
45.11
41.58
39.28
38.38
38.36
38.32
37.46
35.46
32.55
29.16
25.62
21.94
17.76
12.65
6.36
-1.01
-9.04
-17.10
-24.58
-31.10
-36.53
-41.08
-45.25
-49.64
-54.91
-61.59
-69.95
-79.67
-89.66
-98.02
-102.30
-100.15
-90.13
-72.42
-48.96
-23.01
1.81
22.55
37.72
47.35
52.58
54.81
55.13
54.06
51.75
48.37
44.44
40.75
38.10
36.92
37.06
37.92
38.79
39.18
38.99
38.30
37.15
35.35
32.49
28.20
22.47
15.72
8.70
2.09
-3.88
-9.40
-14.91
-20.75
-26.89
-32.93
-38.42
-43.17
-47.35
-51.55
-56.44
-62.62
-70.40
-79.61
-89.33
-97.79
-102.51
-100.82
-90.93
-72.74
-48.25
-21.09
4.64
25.70
40.55
49.39
53.58
54.71
53.98
52.08
49.38
46.29
43.36
41.21
40.29
40.62
41.77
43.06
43.86
43.83
43.04
41.66
39.86
37.56
34.53
30.51
25.35
19.17
12.23
4.92
-2.40
-9.39
-15.79
-21.38
-26.11
-30.14
-33.81
-37.66
-42.17
-47.69
-54.44
-62.52
-71.90
-82.17
-92.22
-100.04
-103.05
-98.85
-86.28
-66.10
-41.04
-15.00
8.27
26.34
38.64
46.03
50.03
51.87
52.09
50.69
47.59
43.14
38.25
34.18
31.96
32.04
33.96
36.55
38.52
38.86
37.38
34.57
31.31
28.26
25.49
22.45
18.34
12.59
5.20
-3.18
-11.61
-19.22
-25.54
-30.63
-34.91
-38.98
-43.47
-48.91
-55.76
-64.24
-74.00
-83.79
-91.43
-94.17
-89.59
-76.62
-56.21
-31.20
-5.49
17.32
34.94
46.85
53.90
57.46
58.63
57.93
55.51
51.56
46.64
41.73
37.86
35.79
35.64
36.92
38.70
40.00
40.08
38.66
35.96
32.49
28.81
25.25
21.73
17.77
12.79
6.37
-1.35
-9.74
-17.84
-24.77
-30.14
-34.14
-37.52
-41.30
-46.40
-53.49
-62.66
-73.35
-84.13
-92.81
-96.83
-94.00
-83.25
-65.22
-42.13
-17.22
6.30
26.11
41.14
51.50
57.94
61.34
62.39
61.55
59.22
55.85
51.99
48.28
45.31
43.53
43.11
43.92
45.48
47.11
48.14
48.13
46.84
44.29
40.60
35.85
30.14
23.60
16.48
9.10
1.84
-5.10
-11.64
-17.87
-23.85
-29.57
-34.92
-39.82
-44.35
-48.86
-53.91
-60.17
-68.10
-77.65
-87.91
-97.10
-102.75
-102.32
-94.09
-77.84
-55.11
-28.81
-2.48
20.86
39.26
52.13
59.87
63.36
63.58
61.42
57.73
53.36
49.19
45.98
44.21
44.01
45.07
46.83
48.61
49.81
50.05
49.28
47.62
45.19
41.98
37.79
32.49
26.20
19.43
12.92
7.29
2.72
-1.15
-5.08
-9.83
-15.84
-23.01
-30.71
-38.03
-44.13
-48.51
-51.32
-53.39
-56.09
-60.91
-68.73
-79.24
-90.66
-100.02
-103.97
-99.94
-87.03
-66.42
-41.03
-14.61
9.33
28.47
41.92
50.07
54.00
54.91
53.77
51.22
47.69
43.66
39.68
36.40
34.36
33.82
34.65
36.39
38.33
39.80
40.30
39.67
37.99
35.56
32.60
29.09
24.75
19.13
11.95
3.41
-5.64
-14.13
-21.04
-25.99
-29.46
-32.42
-35.92
-40.55
-46.32
-52.94
-60.18
-68.03
-76.41
-84.61
-90.91
-92.81
-87.86
-74.87
-54.56
-29.68
-3.96
19.07
37.20
49.86
57.71
61.87
63.23
62.28
59.23
54.51
48.91
43.53
39.53
37.63
37.94
39.99
42.84
45.46
47.00
46.99
45.33
42.27
38.13
33.27
27.86
21.98
15.67
8.95
1.94
-5.15
-12.13
-18.74
-24.83
-30.24
-34.85
-38.70
-42.03
-45.38
-49.57
-55.45
-63.60
-73.84
-84.95
-94.69
-100.22
-98.93
-89.30
-71.56
-47.69
-20.97
4.97
27.10
43.70
54.51
60.36
62.64
62.57
60.95
58.26
54.87
51.31
48.27
46.35
45.77
46.26
47.15
47.84
47.97
47.60
47.02
46.43
45.69
44.29
41.62
37.22
31.07
23.59
15.58
7.98
1.55
-3.39
-7.17
-10.59
-14.58
-19.72
-25.92
-32.48
-38.44
-43.14
-46.59
-49.51
-53.06
-58.40
-66.14
-76.09
-87.06
-97.04
-103.47
-103.90
-96.57
-81.10
-58.79
-32.42
-5.55
18.44
37.27
50.18
57.69
61.10
61.63
60.15
57.17
53.11
48.62
44.63
41.99
41.23
42.31
44.68
47.56
50.27
52.24
53.09
52.58
50.57
47.18
42.78
37.98
33.27
28.85
24.53
19.88
14.55
8.52
2.17
-3.81
-8.82
-12.70
-15.77
-18.78
-22.50
-27.24
-32.79
-38.50
-43.62
-47.72
-50.87
-53.70
-57.09
-61.94
-68.87
-77.99
-88.64
-99.28
-107.54
-110.66
-106.21
-93.05
-71.86
-45.18
-16.68
9.86
31.57
47.06
56.42
60.68
61.23
59.28
55.69
51.11
46.20
41.76
38.63
37.52
38.60
41.51
45.36
49.03
51.63
52.63
52.04
50.18
47.50
44.24
40.43
35.83
30.21
23.57
16.32
9.24
3.26
-0.98
-3.52
-5.11
-6.93
-10.05
-14.93
-21.24
-27.98
-33.99
-38.49
-41.31
-42.97
-44.38
-46.56
-50.36
-56.37
-64.73
-75.03
-86.06
-95.75
-101.48
-100.66
-91.64
-74.38
-50.69
-23.81
2.53
25.14
42.10
52.99
58.52
59.95
58.58
55.42
51.19
46.53
42.10
38.72
37.13
37.75
40.40
44.33
48.41
51.48
52.84
52.35
50.39
47.46
43.87
39.60
34.43
28.21
21.15
13.87
7.18
1.68
-2.50
-5.77
-8.86
-12.49
-16.97
-22.13
-27.44
-32.29
-36.31
-39.58
-42.50
-45.68
-49.76
-55.27
-62.54
-71.55
-81.64
-91.32
-98.35
-100.21
-94.91
-81.72
-61.60
-36.96
-11.05
13.08
33.16
48.12
57.99
63.43
65.48
65.06
62.86
59.33
54.93
50.27
46.26
43.88
43.74
45.72
48.94
52.02
53.76
53.64
51.94
49.47
46.97
44.65
42.15
38.87
34.41
28.83
22.66
16.54
10.92
5.96
1.52
-2.62
-6.65
-10.69
-14.79
-19.12
-23.86
-29.17
-34.99
-40.96
-46.54
-51.23
-54.91
-57.92
-61.13
-65.66
-72.38
-81.41
-91.80
-101.45
-107.61
-107.49
-99.27
-82.63
-59.11
-31.72
-4.18
20.10
38.82
51.20
57.88
60.29
60.01
58.27
55.80
52.97
50.09
47.52
45.69
44.89
45.06
45.87
46.81
47.53
47.86
47.88
47.64
47.12
46.12
44.38
41.68
37.95
33.32
28.03
22.34
16.52
10.80
5.39
0.45
-3.92
-7.78
-11.37
-15.12
-19.44
-24.49
-30.08
-35.65
-40.48
-44.05
-46.36
-47.90
-49.61
-52.51
-57.39
-64.76
-74.61
-86.36
-98.55
-108.90
-114.53
-112.76
-102.01
-82.56
-56.69
-28.03
-0.52
22.69
39.92
51.02
56.86
58.74
57.91
55.36
51.93
48.36
45.37
43.54
43.08
43.88
45.46
47.27
48.85
49.94
50.51
50.60
50.21
49.30
47.72
45.29
41.82
37.12
31.08
23.82
15.81
7.85
0.91
-4.24
-7.42
-9.07
-10.14
-11.73
-14.68
-19.33
-25.48
-32.47
-39.44
-45.55
-50.26
-53.60
-56.24
-59.34
-64.21
-71.75
-81.76
-92.73
-101.95
-106.25
-103.04
-91.15
-71.30
-45.98
-18.74
6.83
27.93
43.12
52.29
56.33
56.65
54.57
51.19
47.26
43.29
39.76
37.03
35.44
35.14
35.97
37.59
39.58
41.64
43.61
45.33
46.46
46.42
44.56
40.49
34.30
26.71
18.86
11.81
6.14
1.79
-1.82
-5.46
-9.77
-15.03
-21.18
-27.85
-34.49
-40.52
-45.44
-49.05
-51.63
-54.05
-57.56
-63.38
-72.03
-82.68
-93.04
-99.82
-99.73
-90.76
-73.06
-48.92
-22.10
3.49
24.92
40.83
51.30
57.19
59.56
59.19
56.71
52.72
48.05
43.65
40.38
38.69
38.54
39.48
40.97
42.57
44.04
45.33
46.35
46.90
46.64
45.17
42.13
37.44
31.26
24.11
16.75
9.97
4.30
-0.15
-3.92
-7.89
-12.90
-19.28
-26.61
-33.93
-40.22
-44.94
-48.18
-50.70
-53.55
-57.80
-64.17
-72.88
-83.27
-93.73
-101.78
-104.63
-99.97
-86.87
-66.28
-40.88
-14.28
10.07
29.79
43.98
53.06
58.17
60.55
61.11
60.39
58.67
56.27
53.70
51.58
50.42
50.42
51.34
52.62
53.66
54.09
53.84
53.08
52.06
50.83
49.16
46.59
42.62
37.06
30.11
22.47
15.07
8.69
3.72
-0.10
-3.47
-7.25
-12.03
-17.91
-24.48
-31.09
-37.12
-42.24
-46.52
-50.40
-54.47
-59.41
-65.84
-74.07
-83.82
-93.98
-102.54
-106.89
-104.56
-94.17
-76.05
-52.33
-26.28
-1.34
19.86
36.09
47.31
54.32
58.08
59.37
58.81
56.95
54.39
51.78
49.74
48.55
48.25
48.55
49.13
49.67
49.99
49.95
49.44
48.31
46.37
43.60
40.10
36.09
31.85
27.55
23.25
19.01
14.92
11.12
7.64
4.23
0.41
-4.42
-10.57
-17.87
-25.64
-32.91
-38.72
-42.61
-44.84
-46.28
-48.25
-52.02
-58.48
-67.70
-78.74
-89.58
-97.43
-99.38
-93.32
-78.71
-56.95
-31.04
-4.68
18.80
37.23
49.91
57.29
60.48
60.68
58.96
56.19
53.13
50.30
48.02
46.22
44.60
42.74
40.31
37.31
34.08
31.24
29.51
29.40
30.95
33.53
35.97
36.95
35.55
31.60
25.77
19.10
12.49
6.23
-0.04
-6.99
-15.02
-23.88
-32.73
-40.49
-46.44
-50.48
-53.20
-55.57
-58.56
-62.88
-68.80
-76.04
-83.57
-89.73
-92.38
-89.53
-80.02
-64.08
-43.46
-20.94
0.48
18.55
32.25
41.77
48.06
52.06
54.26
54.57
52.70
48.62
43.05
37.41
33.32
31.92
33.41
36.94
41.15
44.75
46.91
47.35
46.00
42.83
37.81
31.11
23.32
15.49
8.64
3.38
-0.35
-3.22
-6.13
-9.60
-13.63
-17.78
-21.59
-24.94
-28.23
-32.22
-37.66
-44.84
-53.16
-61.23
-66.92
-68.05
-63.03
-51.40
-34.11
-13.33
8.08
27.36
42.51
52.67
58.08
59.70
58.70
56.03
52.34
48.11
44.01
40.96
40.07
42.15
47.22
54.36
61.76
67.52
70.25
69.66
66.47
62.02
57.70
54.43
52.63
52.31
53.33
55.44
58.18
60.72
61.97
60.92
57.15
51.27
44.66
38.81
34.17
29.34
21.12
5.68
-19.62
-54.59
-95.47
-135.88
-168.67
-188.20
-192.02
-181.15
-159.25
-130.97
-100.62
