1520872721.00
64.000000
-0.00
-0.00
-0.00
-0.00
-0.00
-0.00
-0.00
-0.00
-0.00
-0.00
0.00
0.01
0.01
-0.00
-0.03
-0.05
-0.05
0.00
0.13
0.36
0.66
1.01
1.37
1.72
2.06
2.40
2.79
3.24
3.80
4.42
5.06
5.66
6.20
6.68
7.15
7.68
8.31
9.14
10.09
11.04
11.88
12.56
13.14
13.76
14.65
15.96
17.91
20.32
22.90
25.38
27.58
29.57
31.68
34.32
37.81
42.54
48.15
54.10
59.83
64.97
69.58
74.14
79.34
85.71
93.76
103.00
112.62
121.73
129.77
136.75
143.30
150.75
157.77
166.64
177.95
191.79
206.97
220.57
228.25
225.36
208.53
176.87
132.76
80.05
23.07
-34.94
-92.44
-149.16
-205.23
-260.37
-313.74
-363.87
-409.83
-450.91
-486.50
-515.74
-537.23
-549.22
-549.96
-538.37
-514.21
-478.67
-433.88
-382.45
-327.02
-269.84
-212.63
-156.66
-102.95
-52.37
-5.90
35.58
71.43
101.35
125.50
144.38
158.69
169.15
176.37
180.75
182.57
182.07
179.51
175.23
169.65
163.18
156.15
148.81
141.30
133.69
126.02
118.33
110.69
103.16
95.80
88.68
81.83
75.25
68.95
62.95
57.25
51.86
46.78
42.03
37.59
33.45
29.61
26.07
22.81
19.83
17.11
14.67
12.48
10.54
8.83
7.35
6.07
4.97
4.05
3.27
2.62
2.09
1.65
1.30
1.01
0.79
0.61
0.48
0.38
0.30
0.25
0.22
0.20
0.19
0.20
0.22
0.24
0.27
0.31
0.35
0.39
0.44
0.48
0.53
0.58
0.63
0.69
0.74
0.81
0.88
0.95
1.03
1.12
1.22
1.34
1.47
1.61
1.77
1.95
2.15
2.37
2.61
2.88
3.18
3.51
3.86
4.26
4.69
5.15
5.65
6.19
6.77
7.39
8.06
8.77
9.52
10.32
11.16
12.05
12.98
13.98
15.02
16.14
17.31
18.54
19.81
21.10
22.33
23.44
24.33
24.88
24.98
24.51
23.38
21.53
18.98
15.75
11.94
7.70
3.22
-1.29
-5.62
-9.59
-13.01
-15.77
-17.81
-19.11
-19.69
-19.62
-19.00
-17.92
-16.50
-14.85
-13.05
-11.21
-9.38
-7.55
-5.78
-4.04
-2.29
-0.52
1.29
3.13
4.98
6.85
8.80
10.79
12.82
14.97
17.25
19.66
22.18
24.76
27.43
30.29
33.24
36.32
39.64
43.24
47.08
51.01
54.85
58.52
62.18
65.71
69.23
73.03
77.21
81.64
85.96
89.70
92.56
94.67
95.83
96.32
96.50
96.39
95.43
92.41
85.54
72.61
56.19
37.41
17.46
-2.54
-21.92
-40.62
-59.08
-78.06
-98.36
-120.66
-146.00
-174.48
-204.75
-233.82
-257.47
-271.44
-272.97
-261.96
-241.06
-215.10
-188.63
-164.52
-143.49
-124.77
-107.24
-90.42
-74.56
-60.18
-47.70
-36.76
-26.56
-16.42
-6.32
3.14
10.98
16.41
19.27
19.94
19.36
18.63
18.59
19.57
21.27
22.94
23.74
23.08
20.86
17.63
14.26
11.61
10.10
9.56
9.34
8.63
6.74
3.32
-1.59
-7.56
-13.81
-19.28
-22.73
-23.09
-19.75
-12.78
-3.08
7.96
18.76
28.00
34.86
39.10
40.96
40.91
39.51
37.25
34.51
31.64
28.94
26.69
25.16
24.50
24.75
25.81
27.45
29.34
31.11
32.42
33.00
32.75
31.74
30.16
28.22
26.05
23.63
20.91
17.87
14.65
11.51
8.76
6.56
4.85
3.32
1.62
-0.54
-3.21
-6.22
-9.29
-12.10
-14.50
-16.53
-18.39
-20.37
-22.80
-26.02
-30.23
-35.47
-41.41
-47.23
-51.71
-53.47
-51.32
-44.85
-34.52
-21.74
-8.36
3.79
13.44
20.05
23.81
25.32
25.36
24.57
23.47
22.38
21.57
21.29
21.71
22.93
24.84
27.16
29.44
31.31
32.56
33.26
33.64
33.99
34.34
34.51
34.09
32.70
30.21
26.82
23.05
19.48
16.53
14.24
12.37
10.50
8.35
5.90
3.42
1.28
-0.29
-1.41
-2.48
-4.03
-6.37
-9.45
-12.90
-16.16
-18.86
-20.97
-22.78
-24.80
-27.57
-31.49
-36.70
-42.95
-49.53
-55.25
-58.66
-58.40
-53.70
-44.78
-32.77
-19.45
-6.64
4.34
12.85
18.93
22.96
25.35
26.40
26.30
25.24
23.58
21.80
20.45
19.97
20.54
22.02
23.97
25.87
27.26
27.94
27.96
27.54
26.93
26.28
25.59
24.69
23.38
21.44
18.79
15.50
11.85
8.21
4.95
2.37
0.54
-0.73
-1.78
-3.01
-4.69
-6.92
-9.53
-12.24
-14.76
-16.95
-18.80
-20.47
-22.23
-24.35
-27.07
-30.60
-35.02
-40.17
-45.50
-50.00
-52.33
-51.21
-45.89
-36.52
-24.25
-10.94
1.51
11.63
18.77
23.02
25.00
25.35
24.56
22.93
20.71
18.25
16.07
14.71
14.55
15.58
17.49
19.75
21.87
23.56
24.74
25.42
25.64
25.43
24.79
23.78
22.47
20.91
19.05
16.79
14.09
11.04
7.95
5.21
3.06
1.49
0.19
-1.30
-3.31
-6.01
-9.31
-12.93
-16.58
-20.02
-23.09
-25.76
-28.05
-30.14
-32.34
-35.11
-38.92
-43.97
-49.94
-55.80
-59.97
-60.71
-56.78
-47.99
-35.34
-20.84
-6.81
4.85
13.21
18.37
21.12
22.49
23.20
23.60
23.72
23.57
23.30
23.28
23.85
25.18
27.13
29.26
31.09
32.30
32.90
33.13
33.27
33.45
33.50
33.04
31.72
29.34
26.08
22.34
18.63
15.32
12.57
10.28
8.26
6.29
4.33
2.46
0.80
-0.59
-1.85
-3.26
-5.25
-8.10
-11.83
-16.11
-20.39
-24.10
-26.91
-29.00
-30.98
-33.77
-38.22
-44.79
-53.19
-62.31
-70.34
-75.17
-75.03
-69.09
-57.85
-43.13
-27.59
-13.87
-3.85
1.90
4.08
4.24
4.14
5.14
7.97
12.65
18.76
25.68
32.81
39.61
45.60
50.27
53.07
53.52
51.48
47.37
42.27
37.69
35.02
34.97
37.14
40.05
41.66
40.22
35.04
26.83
17.48
9.24
3.86
1.84
2.38
3.74
4.08
2.22
-1.87
-7.21
-12.21
-15.43
-16.13
-14.53
-11.77
-9.51
-9.57
-13.51
-22.21
-35.42
-51.38
-66.88
-77.93
-80.93
-74.07
-58.21
-36.60
-13.79
6.07
20.51
29.13
32.98
33.56
32.00
28.89
24.63
19.96
16.05
14.19
15.16
18.66
23.24
26.63
26.67
22.22
13.73
3.27
-6.22
-11.98
-12.45
-7.73
0.60
10.14
18.52
24.05
25.93
24.24
19.54
12.60
4.21
-4.89
-13.71
-20.89
-24.71
-23.50
-16.51
-4.77
8.62
19.21
22.72
16.76
1.91
-18.39
-39.15
-55.59
-64.62
-65.45
-59.23
-48.20
-34.77
-20.86
-7.68
4.12
14.33
22.75
29.09
32.89
33.79
31.91
28.08
23.79
20.83
20.65
23.97
30.60
39.66
50.00
60.53
70.26
78.28
83.61
85.15
81.91
73.46
60.15
43.37
25.30
8.47
-4.88
-13.42
-17.00
-16.62
-14.00
-10.83
-8.35
-6.97
-6.43
-6.18
-5.75
-5.04
-4.33
-4.21
-5.36
-8.49
-14.03
-21.93
-31.39
-40.72
-47.53
-49.33
-44.34
-32.21
-14.24
6.95
28.19
46.64
60.42
68.92
72.68
73.04
71.70
70.22
69.58
69.91
70.54
70.35
68.40
64.40
58.93
53.14
48.21
44.97
43.60
43.76
44.80
45.92
46.27
45.13
42.16
37.74
33.03
29.67
28.96
31.04
34.51
36.76
34.99
27.42
13.96
-3.81
-23.40
-42.34
-58.90
-72.22
-82.17
-88.96
-92.91
-94.40
-93.79
-91.42
-87.44
-81.79
-74.19
-64.41
-52.52
-39.21
-25.85
-14.37
-6.73
-4.22
-6.97
-13.65
-21.83
-28.79
-32.53
-32.51
-29.60
-25.62
-22.25
-20.29
-19.54
-19.17
-18.40
-17.07
-15.60
-14.60
-14.47
-15.15
-16.38
-18.02
-20.40
-24.16
-29.89
-37.68
-46.86
-56.21
-64.31
-70.05
-72.83
-72.52
-69.30
-63.42
-55.28
-45.39
-34.49
-23.48
-13.20
-4.27
3.06
8.83
13.20
16.26
18.02
18.42
17.61
15.90
13.88
12.16
11.18
11.14
11.91
13.23
14.77
16.24
17.41
18.03
17.88
16.83
14.92
12.40
9.61
6.93
4.53
2.37
0.25
-2.07
-4.67
-7.41
-9.99
-12.09
-13.55
-14.48
-15.28
-16.49
-18.62
-21.97
-26.53
-31.97
-37.56
-42.32
-45.17
-45.14
-41.65
-34.67
-24.82
-13.19
-1.14
10.07
19.42
26.21
29.96
30.34
27.12
20.34
10.50
-1.27
-13.23
-23.32
-29.68
-31.25
-28.15
-21.71
-13.89
-6.59
-0.93
2.97
5.70
8.03
10.35
12.46
13.79
13.84
12.52
10.27
7.85
6.01
5.18
5.33
6.03
6.61
6.45
5.17
2.80
-0.28
-3.54
-6.52
-9.00
-11.09
-13.12
-15.51
-18.58
-22.58
-27.62
-33.65
-40.31
-46.79
-51.86
-54.09
-52.39
-46.36
-36.52
-24.21
-11.07
1.41
12.25
21.04
27.81
32.81
36.30
38.52
39.66
39.91
39.45
38.47
37.23
35.97
34.96
34.35
34.14
34.17
34.14
33.77
32.87
31.39
29.36
26.89
24.03
20.85
17.46
13.97
10.49
7.03
3.59
0.15
-3.25
-6.47
-9.37
-11.96
-14.42
-17.10
-20.38
-24.47
-29.33
-34.68
-40.02
-44.69
-47.90
-48.81
-46.69
-41.18
-32.52
-21.61
-9.85
1.30
10.80
18.28
24.00
28.54
32.36
35.56
37.87
38.93
38.66
37.41
35.86
34.78
34.60
35.21
36.09
36.59
36.25
35.04
33.28
31.34
29.47
27.62
25.51
22.82
19.34
15.07
10.21
5.07
0.03
-4.59
-8.53
-11.73
-14.36
-16.77
-19.46
-22.85
-27.16
-32.25
-37.58
-42.25
-45.15
-45.26
-41.84
-34.79
-24.67
-12.65
-0.19
11.35
21.06
28.58
34.00
37.60
39.58
39.95
38.66
35.80
31.82
27.62
24.29
22.69
23.14
25.15
27.68
29.54
29.95
28.83
26.70
24.29
22.08
20.01
17.61
14.36
10.13
5.32
0.69
-3.01
-5.46
-6.93
-8.11
-9.80
-12.59
-16.67
-21.86
-27.65
-33.36
-38.20
-41.26
-41.74
-39.11
-33.32
-24.98
-15.24
-5.47
3.11
9.80
14.51
17.57
19.42
20.42
20.70
20.29
19.34
18.17
17.22
16.84
17.14
17.91
18.78
19.35
19.41
18.94
18.06
16.91
15.57
14.01
12.17
10.00
7.49
4.70
1.73
-1.28
-4.21
-7.00
-9.62
-12.15
-14.74
-17.66
-21.22
-25.65
-30.88
-36.42
-41.27
-44.20
-44.08
-40.38
-33.35
-24.00
-13.77
-4.06
4.11
10.26
14.41
16.85
18.03
18.33
18.09
17.54
16.80
15.97
15.11
14.31
13.67
13.27
13.12
13.20
13.42
13.69
13.90
13.89
13.48
12.45
10.70
8.28
5.43
2.49
-0.22
-2.51
-4.40
-6.05
-7.66
-9.40
-11.32
-13.33
-15.32
-17.20
-18.92
-20.58
-22.37
-24.49
-27.11
-30.25
-33.67
-36.80
-38.81
-38.75
-35.84
-29.81
-21.11
-10.87
-0.59
8.31
14.95
19.13
21.20
21.77
21.34
20.19
18.41
16.10
13.52
11.11
9.43
8.83
9.33
10.53
11.81
12.60
12.63
12.04
11.21
10.53
10.11
9.73
8.92
7.27
4.61
1.17
-2.56
-6.01
-8.77
-10.67
-11.80
-12.44
-13.01
-13.90
-15.50
-18.04
-21.49
-25.41
-28.97
-31.04
-30.54
-26.89
-20.25
-11.58
-2.36
5.94
12.32
16.44
18.54
19.13
18.63
17.21
14.95
12.04
8.90
6.19
4.55
4.35
5.49
7.45
9.53
11.16
12.08
12.34
12.14
11.62
10.80
9.52
7.67
5.27
2.49
-0.39
-3.08
-5.47
-7.58
-9.47
-11.24
-12.92
-14.49
-15.91
-17.20
-18.47
-19.93
-21.82
-24.28
-27.21
-30.07
-32.00
-31.94
-29.10
-23.28
-15.04
-5.59
3.62
11.30
16.75
19.87
20.98
20.57
19.04
16.63
13.57
10.18
6.98
4.62
3.65
4.29
6.26
8.87
11.30
12.92
13.54
13.39
12.93
12.50
12.15
11.63
10.56
8.70
6.10
3.15
0.34
-1.92
-3.47
-4.47
-5.23
-6.12
-7.34
-8.91
-10.76
-12.75
-14.69
-16.42
-17.81
-18.76
-19.28
-19.63
-20.19
-21.44
-23.63
-26.64
-29.79
-31.99
-32.09
-29.25
-23.29
-14.86
-5.18
4.29
12.30
18.14
21.59
22.91
22.51
20.84
18.25
15.12
11.83
8.79
6.37
4.85
4.39
5.00
6.54
8.72
11.15
13.33
14.83
15.42
15.13
14.17
12.80
11.21
9.42
7.38
5.11
2.77
0.60
-1.17
-2.50
-3.58
-4.71
-6.17
-7.97
-9.86
-11.45
-12.39
-12.61
-12.32
-11.97
-12.02
-12.74
-14.23
-16.39
-19.09
-22.16
-25.32
-28.05
-29.53
-28.90
-25.55
-19.47
-11.38
-2.50
5.86
12.63
17.37
20.03
20.84
20.06
17.91
14.65
10.69
6.60
3.03
0.56
-0.47
-0.09
1.42
3.60
5.96
8.15
9.95
11.26
12.00
12.06
11.31
9.72
7.46
4.90
2.48
0.51
-0.96
-2.16
-3.45
-5.06
-6.99
-8.97
-10.71
-11.99
-12.87
-13.57
-14.38
-15.57
-17.29
-19.53
-22.19
-24.94
-27.16
-28.03
-26.77
-22.89
-16.51
-8.46
0.04
7.74
13.77
17.78
19.88
20.35
19.49
17.54
14.68
11.23
7.65
4.51
2.35
1.48
1.94
3.45
5.56
7.78
9.71
11.15
12.01
12.29
11.94
10.97
9.38
7.32
5.04
2.81
0.81
-0.95
-2.60
-4.31
-6.13
-8.01
-9.80
-11.38
-12.77
-14.04
-15.36
-16.86
-18.68
-20.92
-23.62
-26.60
-29.37
-31.09
-30.78
-27.67
-21.60
-13.21
-3.78
5.16
12.41
17.34
20.00
20.86
20.43
19.04
16.90
14.15
11.15
8.46
6.65
6.08
6.73
8.21
9.97
11.55
12.76
13.62
14.21
14.52
14.40
13.66
12.19
10.11
7.73
5.46
3.57
2.12
0.95
-0.22
-1.63
-3.38
-5.34
-7.31
-9.04
-10.46
-11.66
-12.89
-14.39
-16.31
-18.62
-21.21
-23.92
-26.55
-28.80
-30.16
-29.97
-27.56
-22.59
-15.28
-6.45
2.68
10.88
17.26
21.47
23.59
23.92
22.73
20.13
16.18
11.21
6.02
1.88
0.17
1.77
6.50
13.10
19.58
24.17
26.01
25.50
23.76
21.94
20.36
18.51
15.40
10.48
4.08
-2.55
-7.95
-11.12
-12.05
-11.60
-10.98
-11.12
-12.29
-14.13
-15.99
-17.42
-18.33
-19.06
-20.11
-21.89
-24.55
-28.02
-32.09
-36.44
-40.58
-43.77
-45.01
-43.35
-38.21
-29.75
-18.97
-7.44
3.24
11.88
17.99
21.71
23.45
23.63
22.58
20.51
17.74
14.73
12.00
9.99
8.91
8.72
9.16
9.86
10.47
10.82
10.90
10.83
10.77
10.77
10.72
10.28
9.16
7.17
4.35
0.94
-2.73
-6.35
-9.68
-12.52
-14.75
-16.24
-16.99
-17.15
-17.01
-17.01
-17.63
-19.28
-22.19
-26.21
-30.65
-34.39
-36.08
-34.63
-29.67
-21.70
-12.00
-2.16
6.52
13.33
18.14
21.22
22.86
23.21
22.33
20.36
17.67
14.86
12.66
11.67
12.22
14.16
16.97
19.91
22.27
23.53
23.47
22.18
19.88
16.81
13.15
9.03
4.61
0.16
-3.86
-6.97
-8.77
-9.14
-8.38
-7.10
-6.14
-6.20
-7.76
-10.94
-15.53
-21.06
-26.83
-31.91
-35.31
-36.01
-33.36
-27.34
-18.61
-8.44
1.64
10.29
16.65
20.37
21.51
20.40
17.45
13.19
8.35
3.80
0.51
-0.78
0.26
3.34
7.63
11.99
15.27
16.77
16.41
14.77
12.80
11.42
11.06
11.50
12.00
11.62
9.70
6.11
1.27
-4.03
-8.98
-12.99
-15.84
-17.66
-18.86
-20.08
-22.01
-25.16
-29.59
-34.63
-38.91
-40.71
-38.57
-32.00
-21.72
-9.53
2.36
12.10
18.80
22.54
24.06
24.22
23.52
22.12
19.96
17.17
14.21
11.82
10.70
11.26
13.41
16.63
20.30
23.90
27.12
29.84
31.93
33.11
32.97
31.12
27.37
21.94
15.37
8.43
1.89
-3.68
-8.00
-11.09
-13.26
-14.97
-16.70
-18.83
-21.44
-24.23
-26.54
-27.48
-26.28
-22.55
-16.51
-8.95
-1.01
6.22
12.00
16.09
18.65
20.05
20.63
20.55
19.86
18.62
17.01
15.48
14.56
14.77
16.31
18.96
22.04
24.62
25.92
25.59
23.79
21.16
18.41
16.06
14.17
12.44
10.36
7.56
4.02
0.04
-3.88
-7.36
-10.21
-12.58
-14.75
-17.09
-19.91
-23.53
-28.31
-34.43
-41.67
-49.06
-54.90
-57.11
-54.08
-45.39
-32.21
-16.93
-2.32
9.52
17.59
21.91
22.96
21.24
17.30
11.89
6.00
0.50
-4.56
-10.27
-18.47
-30.61
-46.35
-62.92
-75.56
-79.19
-70.38
-48.94
-18.13
16.22
47.41
69.79
80.10
78.04
65.99
48.06
28.74
11.75
-0.72
-8.09
-11.15
-11.34
-10.20
-9.01
-8.53
-9.06
-10.51
-12.60
-15.09
-17.93
-21.23
-25.12
-29.51
-33.79
-36.94
-37.72
-35.13
-28.85
-19.37
-7.87
4.14
15.26
24.50
31.31
35.47
37.00
36.12
33.28
29.26
25.02
21.55
19.62
19.54
21.16
23.87
26.90
29.45
30.97
31.24
30.40
28.85
27.08
25.44
23.97
22.40
20.26
17.14
12.95
8.02
2.98
-1.50
-4.98
-7.47
-9.29
-10.94
-12.83
-15.22
-18.24
-21.96
-26.39
-31.23
-35.79
-38.89
-39.22
-35.78
-28.43
-18.03
-6.23
5.09
14.47
21.24
25.51
27.81
28.66
28.36
27.00
24.66
21.68
18.71
16.53
15.77
16.66
18.95
21.97
24.94
27.18
28.28
28.16
26.96
24.96
22.40
19.49
16.31
12.87
9.15
5.15
0.98
-3.15
-6.98
-10.30
-13.08
-15.47
-17.78
-20.32
-23.43
-27.37
-32.33
-38.28
-44.80
-50.96
-55.31
-56.31
-52.81
-44.64
-32.78
-19.08
-5.65
5.89
14.72
20.88
24.85
27.12
28.04
27.73
26.40
24.47
22.63
21.61
21.94
23.61
26.17
28.82
30.88
32.02
32.33
32.20
32.01
31.87
31.55
30.59
28.64
25.60
21.75
17.58
13.67
10.41
7.87
5.86
3.91
1.52
-1.62
-5.51
-9.76
-13.87
-17.36
-20.17
-22.60
-25.23
-28.67
-33.30
-39.19
-46.03
-53.09
-59.22
-62.98
-62.93
-58.10
-48.48
-35.16
-20.05
-5.31
7.32
16.93
23.42
27.21
28.89
29.02
28.15
26.85
25.77
25.47
26.29
28.12
30.49
32.75
34.35
35.13
35.27
35.21
35.32
35.75
36.27
36.49
36.00
34.54
32.16
29.09
25.73
22.50
19.66
17.32
15.34
13.43
11.29
8.81
6.11
3.47
1.16
-0.78
-2.57
-4.63
-7.31
-10.74
-14.72
-18.87
-22.75
-26.07
-28.75
-30.97
-33.15
-35.87
-39.72
-45.07
-51.77
-59.00
-65.22
-68.60
-67.49
-61.11
-49.88
-35.41
-19.98
-5.84
5.45
13.39
18.33
21.18
22.78
23.67
24.00
23.78
23.10
22.35
22.08
22.83
24.83
27.85
31.27
34.31
36.38
37.29
37.30
36.92
36.57
36.40
36.13
35.29
33.50
30.68
27.16
23.46
20.16
17.55
15.64
14.13
12.62
10.77
8.43
5.71
2.89
0.34
-1.73
-3.30
-4.62
-6.13
-8.23
-11.08
-14.52
-18.12
-21.37
-23.98
-26.03
-27.95
-30.32
-33.69
-38.33
-44.18
-50.75
-57.17
-62.26
-64.62
-63.05
-56.92
-46.55
-33.23
-18.92
-5.63
5.16
12.87
17.68
20.22
21.15
20.94
19.87
18.24
16.46
15.05
14.50
15.10
16.84
19.43
22.42
25.39
28.01
30.12
31.67
32.62
32.93
32.46
31.13
28.97
26.16
22.98
19.71
16.54
13.49
10.49
7.48
4.50
1.69
-0.83
-3.02
-4.95
-6.74
-8.52
-10.35
-12.23
-14.17
-16.19
-18.27
-20.37
-22.43
-24.41
-26.51
-29.06
-32.54
-37.28
-43.13
-49.32
-54.48
-57.01
-55.57
-49.60
-39.56
-26.82
-13.25
-0.63
9.77
17.42
22.47
25.34
26.51
26.34
25.02
22.78
19.99
17.22
15.13
14.27
14.85
16.75
19.53
22.60
25.39
27.52
28.76
29.07
28.53
27.35
25.74
23.93
22.04
20.10
17.96
15.45
12.49
9.15
5.69
2.43
-0.33
-2.51
-4.20
-5.66
-7.21
-9.14
-11.59
-14.48
-17.62
-20.71
-23.51
-25.93
-28.06
-30.23
-32.86
-36.43
-41.27
-47.33
-54.01
-60.07
-63.82
-63.58
-58.35
-48.24
-34.58
-19.56
-5.46
6.01
14.13
19.09
21.63
22.54
22.39
21.50
20.08
18.36
16.70
15.58
15.39
16.36
18.42
21.18
24.10
26.64
28.41
29.33
29.55
29.29
28.74
27.93
26.78
25.18
23.05
20.43
17.48
14.41
11.45
8.78
6.48
4.52
2.77
1.06
-0.73
-2.66
-4.71
-6.88
-9.18
-11.70
-14.49
-17.48
-20.51
-23.38
-25.98
-28.44
-31.15
-34.63
-39.22
-44.85
-50.78
-55.71
-58.05
-56.44
-50.25
-39.93
-26.85
-12.99
-0.23
10.10
17.44
21.91
24.04
24.43
23.58
21.93
19.89
17.90
16.44
15.86
16.36
17.87
20.12
22.71
25.25
27.41
28.96
29.76
29.75
28.94
27.49
25.54
23.26
20.79
18.16
15.41
12.58
9.82
7.33
5.24
3.53
1.99
0.33
-1.66
-4.00
-6.52
-8.94
-11.09
-12.93
-14.59
-16.32
-18.35
-20.95
-24.25
-28.42
-33.46
-39.26
-45.40
-51.05
-55.03
-56.04
-53.08
-45.87
-35.11
-22.33
-9.46
1.81
10.50
16.43
19.97
21.63
21.72
20.40
17.86
14.59
11.41
9.25
8.81
10.22
13.07
16.52
19.66
21.93
23.17
23.62
23.65
23.51
23.09
22.03
19.94
16.78
12.86
8.87
5.48
3.01
1.31
-0.18
-2.09
-4.78
-8.18
-11.87
-15.30
-18.12
-20.25
-21.96
-23.68
-25.84
-28.78
-32.74
-37.69
-43.35
-48.98
-53.46
-55.42
-53.67
-47.67
-37.79
-25.35
-12.19
-0.09
9.72
16.78
21.27
23.66
24.35
23.60
21.65
18.91
16.02
13.84
13.07
14.03
16.45
19.61
22.58
24.67
25.62
25.66
25.27
24.87
24.57
24.05
22.84
20.59
17.32
13.49
9.76
6.67
4.39
2.60
0.69
-1.88
-5.33
-9.43
-13.64
-17.38
-20.34
-22.62
-24.70
-27.13
-30.46
-34.98
-40.67
-47.21
-53.86
-59.53
-62.90
-62.71
-58.21
-49.48
-37.54
-24.09
-10.95
0.38
9.12
15.17
18.90
20.85
21.53
21.37
20.73
19.99
19.52
19.65
20.53
22.15
24.21
26.32
28.09
29.27
29.85
30.00
29.95
29.78
29.34
28.27
26.24
23.11
19.11
14.77
10.76
7.61
5.47
4.07
2.82
1.09
-1.50
-4.95
-8.83
-12.53
-15.56
-17.78
-19.49
-21.38
-24.23
-28.66
-34.83
-42.21
-49.64
-55.45
-57.92
-55.85
-48.99
-38.15
-25.06
-11.74
0.07
9.33
15.85
20.02
22.44
23.59
23.74
23.06
21.82
20.49
19.66
19.85
21.27
23.67
26.47
28.98
30.71
31.54
31.73
31.69
31.70
31.70
31.32
30.08
27.64
24.04
19.74
15.39
11.65
8.84
6.85
5.19
3.26
0.63
-2.76
-6.59
-10.34
-13.53
-16.01
-17.98
-19.97
-22.56
-26.28
-31.42
-37.82
-44.93
-51.62
-56.44
-57.91
-55.00
-47.55
-36.41
-23.24
-9.99
1.67
10.77
17.06
20.86
22.64
22.86
21.96
20.37
18.69
17.54
17.47
18.71
21.11
24.17
27.25
29.81
31.53
32.41
32.61
32.32
31.60
30.35
28.40
25.60
21.96
17.71
13.31
9.26
5.96
3.51
1.67
-0.07
-2.24
-5.13
-8.70
-12.56
-16.20
-19.24
-21.61
-23.59
-25.68
-28.45
-32.36
-37.61
-44.05
-51.04
-57.39
-61.60
-62.19
-58.22
-49.68
-37.63
-23.87
-10.43
1.10
9.91
16.06
20.17
22.96
24.91
26.22
26.91
27.05
26.93
26.99
27.64
29.05
31.03
33.13
34.86
35.88
36.21
36.08
35.76
35.32
34.58
33.26
31.17
28.38
25.25
22.24
19.72
17.71
16.00
14.17
11.95
9.29
6.43
3.73
1.50
-0.20
-1.57
-3.06
-5.15
-8.09
-11.86
-16.11
-20.34
-24.18
-27.56
-30.73
-34.17
-38.44
-43.93
-50.67
-58.23
-65.61
-71.38
-73.90
-71.87
-64.79
-53.28
-39.05
-24.35
-11.24
-0.94
6.41
11.51
15.42
18.94
22.43
25.75
28.67
30.98
32.78
34.30
35.84
37.55
39.44
41.35
43.09
44.51
45.52
46.11
46.30
46.08
45.39
44.15
42.33
39.98
37.25
34.43
31.83
29.62
27.83
26.31
24.82
23.17
21.26
19.13
16.81
14.33
11.66
8.81
5.85
2.97
0.36
-1.89
-3.89
-5.93
-8.39
-11.49
-15.16
-19.06
-22.71
-25.75
-28.07
-29.91
-31.71
-33.97
-37.10
-41.35
-46.78
-53.10
-59.57
-64.97
-67.73
-66.40
-60.21
-49.56
-35.95
-21.62
-8.71
1.40
8.37
12.72
15.41
17.24
18.65
19.70
20.32
20.55
20.62
20.90
21.76
23.32
25.43
27.72
29.74
31.17
31.93
32.16
32.05
31.68
30.94
29.61
27.57
24.94
22.07
19.42
17.28
15.65
14.23
12.67
10.74
8.53
6.36
4.57
3.27
2.25
1.07
-0.76
-3.46
-6.95
-10.84
-14.66
-18.05
-20.93
-23.48
-26.08
-29.22
-33.29
-38.46
-44.57
-50.89
-56.18
-58.91
-57.70
-51.88
-41.84
-28.98
-15.33
-2.86
7.14
14.24
18.82
21.57
23.11
23.77
23.67
22.89
21.67
20.45
19.75
19.93
21.08
23.01
25.31
27.56
29.42
30.78
31.67
32.17
32.29
31.95
30.93
29.06
26.32
22.97
19.42
16.06
13.12
10.51
7.97
5.27
2.37
-0.55
-3.15
-5.19
-6.66
-7.84
-9.11
-10.85
-13.26
-16.35
-19.92
-23.61
-27.03
-29.84
-31.89
-33.35
-34.77
-36.94
-40.64
-46.24
-53.29
-60.41
-65.58
-66.69
-62.40
-52.69
-38.94
-23.54
-8.99
2.82
11.11
16.13
18.80
20.11
20.76
21.09
21.24
21.40
21.83
22.84
24.58
26.92
29.42
31.49
32.70
32.88
32.31
31.47
30.82
30.60
30.69
30.72
30.27
29.09
27.18
24.76
22.21
19.86
17.95
16.48
15.30
14.14
12.69
10.70
8.12
5.12
2.04
-0.67
-2.69
-3.96
-4.75
-5.54
-6.94
-9.32
-12.71
-16.72
-20.76
-24.25
-26.88
-28.71
-30.18
-31.86
-34.33
-37.98
-42.93
-48.83
-54.88
-59.78
-61.99
-60.15
-53.65
-42.92
-29.46
-15.39
-2.74
7.11
13.71
17.39
18.89
18.94
18.10
16.73
15.17
13.86
13.28
13.80
15.50
18.09
20.98
23.52
25.25
26.02
26.09
25.87
25.73
25.77
25.73
25.23
23.91
21.76
19.11
16.50
14.39
12.91
11.80
10.60
8.88
6.57
3.93
1.42
-0.59
-2.06
-3.30
-4.76
-6.85
-9.67
-12.98
-16.35
-19.34
-21.73
-23.62
-25.37
-27.47
-30.34
-34.29
-39.34
-45.27
-51.48
-56.97
-60.46
-60.61
-56.44
-47.78
-35.51
-21.35
-7.42
4.48
13.33
19.06
22.26
23.76
24.19
23.82
22.76
21.13
19.28
17.77
17.12
17.67
19.32
21.64
24.04
26.06
27.45
28.23
28.54
28.46
27.98
26.95
25.24
22.87
20.07
17.23
14.74
12.85
11.51
10.51
9.47
8.08
6.18
3.85
1.29
-1.20
-3.39
-5.21
-6.79
-8.47
-10.59
-13.37
-16.72
-20.33
-23.69
-26.42
-28.44
-30.04
-31.81
-34.43
-38.42
-43.92
-50.46
-56.92
-61.62
-62.86
-59.36
-50.88
-38.41
-23.87
-9.49
2.92
12.46
19.11
23.42
26.08
27.65
28.48
28.82
28.90
28.99
29.34
30.16
31.50
33.37
35.63
38.13
40.67
43.03
45.09
46.78
48.09
49.06
49.70
50.00
49.92
49.35
48.12
46.04
42.91
38.52
32.73
25.40
16.59
6.55
-4.05
-14.21
-22.72
-28.52
-31.21
-31.31
-30.09
-29.24
-30.15
-33.38
-38.57
-44.65
-50.38
-54.82
-57.62
-58.95
-59.35
-59.47
-59.93
-61.22
-63.50
-66.39
-68.90
-69.50
-66.65
-59.31
-47.51
-32.43
-16.18
-1.04
11.11
19.36
23.79
25.21
24.64
22.99
20.85
18.54
16.38
14.77
14.20
15.01
17.25
20.48
23.97
26.94
28.85
29.61
29.45
28.75
27.76
26.52
24.81
22.39
19.18
15.37
11.36
7.72
4.84
2.85
1.54
0.42
-1.00
-3.06
-5.76
-8.86
-11.96
-14.79
-17.28
-19.60
-22.07
-25.06
-28.81
-33.40
-38.61
-43.85
-48.11
-50.14
-48.80
-43.45
-34.33
-22.69
-10.38
0.69
9.20
14.75
17.75
19.06
19.39
19.18
18.55
17.54
16.35
15.35
14.97
15.47
16.86
18.92
21.34
23.83
26.16
28.09
29.27
29.36
28.14
25.63
22.18
18.31
14.49
11.08
8.22
5.95
4.42
3.80
4.22
5.38
6.47
6.31
3.63
-2.42
-12.02
-24.75
-39.70
-55.57
-70.66
-82.81
-89.61
-88.93
-79.71
-62.69
-40.55
-17.41
2.49
16.06
22.26
22.15
18.20
13.14
8.93
6.43
5.49
5.56
6.24
7.46
9.35
11.91
14.81
17.50
19.53
20.79
21.57
22.34
23.41
24.69
25.68
25.67
23.99
20.31
14.79
8.07
1.16
-4.95
-9.53
-12.46
-14.22
-15.68
-17.75
-20.97
-25.35
-30.27
-34.77
-37.65
-37.93
-35.05
-29.05
-20.60
-10.81
-0.95
7.81
14.71
19.45
22.11
23.02
22.60
21.28
19.44
17.48
15.77
14.68
14.47
15.19
16.66
18.49
20.18
21.33
21.73
21.43
20.65
19.59
18.28
16.56
14.13
10.79
6.60
1.97
-2.48
-6.12
-8.59
-9.96
-10.72
-11.56
-13.13
-15.84
-19.86
-25.04
-30.96
-36.83
-41.49
-43.63
-42.08
-36.33
-26.86
-15.02
-2.72
8.26
16.74
22.41
25.59
26.95
27.08
26.39
25.05
23.26
21.30
19.59
18.56
18.49
19.32
20.70
22.13
23.20
23.73
23.78
23.52
23.04
22.25
20.99
19.09
16.56
13.57
10.37
7.14
3.96
0.85
-2.21
-5.16
-8.00
-10.71
-13.38
-16.09
-18.91
-21.86
-24.90
-28.08
-31.48
-35.15
-38.87
-41.99
-43.37
-41.78
-36.32
-26.99
-14.92
-2.09
9.30
17.60
22.29
23.93
23.70
22.77
21.78
20.84
19.78
18.51
17.24
16.42
16.45
17.53
19.54
22.10
24.69
26.84
28.07
28.06
26.62
23.83
20.06
15.89
11.92
8.55
5.82
3.45
1.03
-1.76
-4.94
-8.25
-11.26
-13.60
-15.17
-16.16
-17.00
-18.25
-20.37
-23.69
-28.44
-34.66
-42.13
-50.16
-57.47
-62.21
-62.49
-57.11
-46.18
-31.42
-15.65
-1.79
8.19
13.95
16.61
17.88
19.14
20.82
22.44
23.24
22.89
21.75
20.72
20.69
22.03
24.44
27.14
29.39
30.79
31.41
31.58
31.59
31.42
30.83
29.47
27.21
24.18
20.76
17.40
14.45
11.98
9.82
7.64
5.17
2.30
-0.82
-3.80
-6.24
-7.96
-9.11
-10.19
-11.84
-14.51
-18.17
-22.38
-26.50
-29.99
-32.69
-34.90
-37.28
-40.57
-45.38
-51.74
-58.98
-65.62
-69.66
-69.17
-63.03
-51.41
-35.93
-19.14
-3.66
8.63
17.08
22.17
24.95
26.44
27.29
27.68
27.59
27.14
26.69
26.74
27.69
29.62
32.16
34.72
36.70
37.81
38.10
37.87
37.46
37.04
36.52
35.59
33.93
31.42
28.19
24.65
21.34
18.67
16.78
15.49
14.30
12.67
10.27
7.15
3.72
0.56
-1.89
-3.52
-4.65
-5.83
-7.58
-10.21
-13.64
-17.54
-21.42
-24.91
-27.81
-30.19
-32.29
-34.54
-37.43
-41.41
-46.70
-52.98
-59.24
-63.82
-64.89
-61.10
-52.16
-39.11
-24.03
-9.32
3.10
12.29
18.33
21.92
23.82
24.59
24.45
23.56
22.17
20.79
20.00
20.29
21.83
24.35
27.30
30.02
32.01
33.11
33.51
33.53
33.37
33.00
32.10
30.34
27.58
24.09
20.45
17.31
15.12
13.85
13.07
12.12
10.48
7.95
4.81
1.63
-1.01
-2.80
-3.82
-4.54
-5.59
-7.46
-10.30
-13.88
-17.75
-21.40
-24.50
-26.98
-29.08
-31.22
-33.91
-37.57
-42.33
-47.81
-53.02
-56.53
-56.75
-52.54
-43.69
-31.08
-16.50
-2.09
10.28
19.58
25.58
28.73
29.68
28.98
27.01
24.07
20.65
17.44
15.26
14.71
16.03
18.90
22.61
26.30
29.25
31.00
31.46
30.78
29.21
27.08
24.62
22.03
19.44
16.92
14.53
12.28
10.19
8.17
6.09
3.84
1.41
-1.07
-3.37
-5.31
-6.91
-8.44
-10.31
-12.84
-16.08
-19.78
-23.53
-26.92
-29.81
-32.31
-34.78
-37.72
-41.58
-46.68
-52.91
-59.55
-65.22
-68.11
-66.48
-59.42
-47.27
-31.70
-15.18
-0.17
11.65
19.69
24.36
26.54
27.16
26.85
26.01
24.92
23.92
23.40
23.66
24.81
26.67
28.89
31.04
32.82
34.13
35.02
35.60
35.94
35.94
35.39
34.07
31.87
28.89
25.42
21.87
18.60
15.86
13.68
11.91
10.26
8.39
6.12
3.48
0.70
-1.84
-3.84
-5.29
-6.46
-7.87
-9.97
-12.97
-16.70
-20.72
-24.54
-27.82
-30.52
-32.88
-35.38
-38.55
-42.89
-48.67
-55.61
-62.79
-68.58
-71.07
-68.65
-60.66
-47.78
-31.88
-15.44
-0.76
10.72
18.58
23.22
25.47
26.12
25.77
24.82
23.63
22.57
22.04
22.40
23.81
26.14
28.98
31.73
33.84
35.03
35.38
35.27
35.09
35.03
34.91
34.28
32.67
29.95
26.42
22.72
19.53
17.27
15.89
14.93
13.81
12.05
9.53
6.49
3.39
0.70
-1.33
-2.76
-3.92
-5.28
-7.25
-10.02
-13.52
-17.40
-21.25
-24.65
-27.42
-29.58
-31.40
-33.32
-35.88
-39.55
-44.56
-50.67
-56.99
-62.02
-63.99
-61.47
-53.88
-41.86
-27.12
-11.87
1.84
12.69
20.26
24.80
26.86
26.97
25.52
22.91
19.64
16.41
13.98
12.95
13.58
15.67
18.69
22.00
25.05
27.50
29.24
30.29
30.66
30.33
29.26
27.45
25.07
22.33
19.51
16.78
14.19
11.71
9.28
6.87
4.55
2.39
0.49
-1.19
-2.72
-4.26
-5.98
-8.07
-10.58
-13.45
-16.48
-19.42
-22.06
-24.43
-26.78
-29.65
-33.62
-39.08
-45.86
-53.12
-59.35
-62.76
-61.78
-55.67
-44.79
-30.59
-15.15
-0.62
11.37
20.00
25.18
27.27
26.84
24.54
21.20
17.89
15.80
15.99
19.05
24.83
32.54
40.96
48.82
55.04
58.72
59.14
55.72
48.10
36.31
20.96
3.24
-15.16
-32.19
-45.59
-53.18
-53.25
-45.08
-29.35
-8.43
13.91
33.12
44.87
46.10
35.82
15.35
-11.91
-41.41
-68.44
-89.15
-101.18
-103.89
-98.10
-85.75
-69.46
-52.04
-36.15
-23.63
-15.01
-9.12
-3.42
5.21
19.04
38.30
60.62
81.71
96.76
102.42
98.08
86.01
70.38
55.50
44.36
38.00
35.77
36.12
37.31
37.70
35.79
30.38
20.96
8.25
-5.65
-17.83
-25.72
-28.22
-26.08
-21.55
-17.27
-15.29
-16.64
-21.29
-28.62
-37.60
-46.78
-54.36
-58.46
-57.60
-51.47
-41.19
-28.96
-17.39
-8.63
-3.78
-2.82
-4.83
-8.29
-11.46
-12.78
-11.31
-7.00
-0.89
5.20
9.34
10.30
8.28
5.01
3.05
4.64
10.53
19.45
28.59
34.74
35.72
31.09
22.07
10.59
-1.74
-14.29
-27.21
-40.72
-54.32
-66.42
-74.81
-77.52
-73.63
-63.72
-49.57
-33.42
-17.11
-1.50
13.47
28.31
43.15
57.21
68.79
75.76
76.42
70.09
57.43
40.04
19.84
-1.43
-22.52
-42.51
-60.55
-75.78
-87.33
-94.69
-97.96
-97.98
-96.35
-95.12
-96.42
-102.10
-113.23
-129.66
-149.76
-170.56
-188.32
-199.54
-201.97
-195.29
-181.09
-162.15
-141.35
-120.74
-101.11
-82.24
-63.54
-44.82
-26.62
-10.09
3.51
13.39
19.62
23.10
25.37
28.21
33.21
41.43
53.16
67.75
83.77
99.31
112.62
122.53
128.69
131.36
130.91
127.50
121.07
111.66
99.82
86.80
74.18
63.35
54.87
48.29
42.41
35.69
26.73
14.45
-1.79
-22.06
-45.61
-70.62
-94.41
-114.24
-128.17
-135.87
-138.50
-137.79
-134.62
-128.12
-116.04
-96.05
-67.62
-33.07
2.72
33.96
55.88
66.22
65.47
56.14
41.80
26.30
13.28
5.88
6.17
14.38
28.30
43.74
56.24
63.31
66.00
68.51
75.94
91.17
112.66
134.68
149.73
152.16
140.68
118.65
92.12
66.93
46.59
31.90
22.08
16.13
13.50
13.63
15.32
16.41
14.50
7.92
-3.29
-17.34
-31.51
-43.35
-51.66
-56.78
-60.31
-64.33
-70.67
-80.20
-92.43
-105.53
-116.56
-122.36
-120.51
-110.20
-92.55
-70.25
-46.61
-24.61
-6.11
8.31
19.02
26.84
32.49
36.40
38.77
39.80
39.93
39.85
40.36
42.14
45.52
50.43
56.47
63.08
69.66
75.64
80.51
83.86
85.39
84.98
82.67
78.67
73.25
66.66
59.09
50.72
41.75
32.41
23.01
13.90
5.34
-2.50
-9.69
-16.54
-23.58
-31.43
-40.63
-51.25
-62.66
-73.32
-81.07
-83.61
-79.30
-67.74
-50.04
-28.48
-5.86
15.39
33.68
48.42
59.79
68.25
74.34
78.56
81.36
83.34
85.11
87.14
89.62
92.39
95.05
97.14
98.38
98.74
98.33
97.34
95.83
93.75
90.96
87.29
82.69
77.18
70.94
64.16
57.04
49.67
42.00
33.88
25.17
15.83
6.04
-3.86
-13.42
-22.28
-30.33
-37.81
-45.24
-53.38
-62.88
-74.03
-86.42
-98.78
-109.10
-115.04
-114.59
-106.74
-91.88
-71.80
-49.16
-26.78
-6.91
9.25
21.58
30.71
37.51
42.78
46.96
50.31
52.97
55.20
57.30
59.49
61.82
64.09
66.04
67.48
68.47
69.30
70.27
71.54
72.95
74.03
74.19
72.96
70.19
66.13
61.35
56.39
51.62
46.97
42.00
36.19
29.19
21.09
12.42
3.91
-3.86
-10.68
-16.84
-23.05
-30.18
-38.93
-49.56
-61.53
-73.45
-83.26
-88.68
-87.86
-80.02
-65.74
-46.83
-25.82
-5.25
12.97
27.81
39.15
47.47
53.50
57.89
61.00
62.99
63.91
63.91
63.32
62.66
62.43
63.01
64.49
66.68
69.12
71.21
72.34
72.00
69.83
65.72
59.75
52.16
43.23
33.16
22.14
10.39
-1.69
-13.49
-24.37
-33.83
-41.83
-48.72
-55.24
-62.17
-70.13
-79.34
-89.55
-99.94
-109.18
-115.58
-117.44
-113.52
-103.49
-88.17
-69.42
-49.52
-30.60
-14.12
-0.69
9.70
17.29
22.36
25.12
25.90
25.24
23.92
22.80
22.55
23.42
25.21
27.43
29.56
31.27
32.48
33.35
34.00
34.43
34.38
33.40
31.02
27.00
21.46
14.89
8.04
1.66
-3.81
-8.33
-12.35
-16.56
-21.73
-28.47
-37.00
-46.98
-57.48
-67.00
-73.68
-75.79
-72.23
-62.94
-49.03
-32.48
-15.51
-0.03
12.85
22.75
29.87
34.61
37.34
38.32
37.84
36.25
34.01
31.67
29.72
28.53
28.25
28.84
30.08
31.58
32.97
33.88
34.11
33.63
32.56
31.06
29.24
27.03
24.22
20.53
15.78
9.98
3.38
-3.58
-10.42
-16.82
-22.67
-28.11
-33.44
-39.00
-45.19
-52.29
-60.42
-69.29
-78.01
-85.13
-88.82
-87.43
-80.07
-67.06
-49.94
-31.03
-12.74
3.03
15.35
24.11
29.75
32.88
34.06
33.77
32.46
30.67
29.00
27.99
27.99
29.09
31.09
33.60
36.19
38.46
40.18
41.26
41.74
41.64
40.97
39.60
37.35
34.11
29.89
24.96
19.78
14.79
10.22
5.98
1.73
-3.00
-8.48
-14.65
-21.11
-27.28
-32.68
-37.16
-40.90
-44.45
-48.50
-53.75
-60.69
-69.40
-79.32
-89.16
-97.05
-100.91
-99.09
-91.01
-77.37
-60.01
-41.32
-23.51
-8.09
4.31
13.72
20.46
24.83
27.02
27.27
25.93
23.64
21.18
19.34
18.64
19.24
20.97
23.44
26.19
28.88
31.24
33.08
34.18
34.29
33.21
30.90
27.55
23.58
19.43
15.40
11.58
7.77
3.70
-0.84
-5.87
-11.17
-16.40
-21.28
-25.69
-29.78
-33.95
-38.76
-44.79
-52.35
-61.21
-70.40
-78.32
-82.97
-82.58
-76.17
-64.00
-47.56
-29.12
-11.08
4.72
17.33
26.69
33.14
37.12
38.93
38.76
36.92
33.99
30.79
28.20
26.82
26.82
27.97
29.85
32.07
34.42
36.82
39.14
41.06
42.12
41.81
39.86
36.40
31.88
26.95
22.14
17.68
13.39
8.93
3.88
-1.93
-8.38
-15.14
-21.75
-27.85
-33.27
-38.18
-43.04
-48.54
-55.35
-63.80
-73.52
-83.27
-91.08
-94.75
-92.53
-83.78
-69.21
-50.74
-30.83
-11.86
4.53
17.57
27.18
33.72
37.61
39.28
39.11
37.59
35.31
32.91
31.05
30.20
30.59
32.12
34.49
37.24
39.95
42.32
44.19
45.51
46.21
46.19
45.30
43.35
40.31
36.27
31.51
26.41
21.36
16.67
12.44
8.55
4.71
0.55
-4.24
-9.71
-15.67
-21.68
-27.28
-32.12
-36.18
-39.76
-43.47
-48.07
-54.26
-62.41
-72.27
-82.85
-92.40
-98.77
-99.99
-94.86
-83.43
-66.99
-47.73
-28.07
-10.07
4.97
16.54
24.73
29.97
32.76
33.65
33.17
31.95
30.59
29.63
29.45
30.22
31.86
34.17
36.90
39.80
42.73
45.55
48.14
50.26
51.64
51.96
51.03
48.82
45.53
41.56
37.37
33.35
29.71
26.34
22.96
19.26
15.07
10.44
5.64
0.92
-3.60
-8.04
-12.68
-17.73
-23.22
-28.88
-34.37
-39.44
-44.06
-48.48
-53.11
-58.47
-65.00
-72.98
-82.33
-92.38
-101.74
-108.42
-110.29
-105.79
-94.50
-77.44
-56.80
-35.23
-15.14
1.86
15.14
24.76
31.20
35.02
36.77
36.94
36.07
34.80
33.76
33.51
34.36
36.34
39.18
42.44
45.71
48.73
51.41
53.73
55.60
56.77
56.96
55.92
53.65
50.47
46.88
43.34
40.09
37.04
33.88
30.25
25.94
21.02
15.76
10.53
5.68
1.38
-2.46
-6.18
-10.21
-14.91
-20.40
-26.49
-32.73
-38.63
-43.91
-48.56
-52.90
-57.49
-62.96
-69.82
-78.23
-87.74
-97.18
-104.71
-108.17
-105.77
-96.69
-81.52
-62.11
-41.01
-20.75
-3.13
10.94
21.40
28.60
33.03
35.10
35.29
34.17
32.45
30.93
30.24
30.76
32.49
35.20
38.46
41.94
45.37
48.60
51.50
53.90
55.57
56.26
55.84
54.32
51.91
48.90
45.59
42.15
38.59
34.81
30.67
26.13
21.31
16.39
11.62
7.09
2.75
-1.62
-6.28
-11.42
-17.05
-23.00
-28.96
-34.67
-39.95
-44.88
-49.75
-55.07
-61.41
-69.18
-78.31
-87.97
-96.56
-101.97
-102.27
-96.28
-84.09
-67.07
-47.44
-27.63
-9.65
5.23
16.54
24.39
29.15
31.29
31.34
29.83
27.38
24.66
22.33
20.89
20.59
21.48
23.35
25.92
28.87
31.92
34.84
37.37
39.25
40.18
39.93
38.39
35.69
32.15
28.22
24.32
20.67
17.22
13.67
9.63
4.81
-0.79
-6.88
-12.97
-18.54
-23.29
-27.24
-30.77
-34.55
-39.29
-45.53
-53.38
-62.25
-70.89
-77.48
-80.15
-77.53
-69.23
-56.03
-39.66
-22.28
-5.82
8.38
19.70
28.01
33.43
36.11
36.23
34.11
30.38
25.93
21.78
18.82
17.57
18.09
20.07
22.97
26.25
29.49
32.42
34.86
36.56
37.22
36.58
34.51
31.17
27.01
22.56
18.22
14.08
9.83
5.06
-0.58
-7.04
-13.93
-20.62
-26.61
-31.69
-36.08
-40.35
-45.19
-51.30
-59.03
-68.23
-78.05
-86.93
-92.85
-93.86
-88.72
-77.41
-61.19
-42.26
-23.08
-5.72
8.57
19.37
26.86
31.50
33.80
34.21
33.21
31.35
29.24
27.51
26.68
27.04
28.59
31.06
33.99
36.89
39.44
41.50
43.10
44.26
44.90
44.71
43.31
40.46
36.15
30.78
24.95
19.33
14.38
10.23
6.60
3.02
-1.07
-6.02
-11.92
-18.54
-25.38
-31.92
-37.72
-42.69
-47.12
-51.71
-57.35
-64.77
-74.16
-84.90
-95.42
-103.54
-107.04
-104.32
-95.00
-80.04
-61.44
-41.62
-22.74
-6.22
7.33
17.91
25.86
31.62
35.61
38.29
40.12
41.57
43.03
44.74
46.79
49.19
51.88
54.81
57.89
60.97
63.85
66.29
68.06
68.94
68.75
67.39
64.88
61.43
57.39
53.17
49.11
45.34
41.68
37.84
33.45
28.38
22.79
17.08
11.69
6.93
2.77
-1.15
-5.37
-10.30
-16.08
-22.48
-29.04
-35.31
-41.04
-46.32
-51.60
-57.48
-64.61
-73.34
-83.45
-93.95
-103.06
-108.59
-108.54
-101.78
-88.55
-70.41
-49.85
-29.48
-11.39
3.30
14.38
22.26
27.59
30.96
32.82
33.56
33.64
33.57
33.84
34.82
36.60
39.06
41.89
44.79
47.57
50.19
52.65
54.90
56.74
57.85
57.88
56.68
54.32
51.13
47.55
43.93
40.42
36.91
33.17
28.99
24.37
19.54
14.80
10.45
6.55
2.95
-0.72
-4.83
-9.62
-15.08
-20.97
-26.89
-32.43
-37.45
-42.08
-46.80
-52.25
-59.06
-67.49
-77.19
-87.02
-95.18
-99.61
-98.58
-91.24
-77.99
-60.40
-40.73
-21.35
-4.11
9.93
20.46
27.65
31.91
33.72
33.63
32.28
30.44
28.91
28.37
29.20
31.41
34.68
38.42
42.06
45.15
47.49
49.11
50.16
50.71
50.69
49.86
47.94
44.80
40.57
35.63
30.52
25.74
21.56
17.95
14.59
11.03
6.89
1.99
-3.58
-9.50
-15.35
-20.78
-25.68
-30.15
-34.47
-39.03
-44.26
-50.56
-58.21
-67.15
-76.79
-85.87
-92.58
-94.96
-91.55
-81.99
-67.15
-48.99
-29.89
-11.98
3.33
15.47
24.54
30.92
35.02
37.21
37.81
37.28
36.16
35.05
34.50
34.85
36.16
38.27
40.88
43.64
46.28
48.58
50.41
51.64
52.12
51.72
50.37
48.14
45.21
41.85
38.31
34.72
31.06
27.18
22.99
18.47
13.78
9.16
4.79
0.64
-3.52
-8.03
-13.13
-18.86
-24.95
-31.00
-36.65
-41.79
-46.58
-51.44
-56.95
-63.66
-71.89
-81.48
-91.57
-100.63
-106.66
-107.70
-102.54
-91.12
-74.68
-55.37
-35.62
-17.47
-2.15
9.93
19.00
25.54
30.08
33.03
34.77
35.71
36.25
36.82
37.79
39.35
41.48
44.01
46.68
49.27
51.62
53.71
55.55
57.09
58.17
58.50
57.75
55.71
52.43
48.30
43.89
39.80
36.32
33.39
30.57
27.34
23.33
18.56
13.42
8.44
4.06
0.35
-2.96
-6.38
-10.37
-15.13
-20.56
-26.26
-31.80
-36.89
-41.51
-45.94
-50.69
-56.38
-63.55
-72.40
-82.51
-92.71
-101.13
-105.62
-104.32
-96.35
-82.21
-63.66
-43.25
-23.50
-6.29
7.48
17.75
24.95
29.60
32.14
32.97
32.57
31.56
30.61
30.30
30.94
32.50
34.74
37.33
40.03
42.70
45.24
47.54
49.40
50.56
50.78
49.93
48.05
45.31
42.00
38.44
34.84
31.30
27.75
24.09
20.22
16.12
11.92
7.78
3.81
0.02
-3.77
-7.79
-12.23
-17.08
-22.19
-27.26
-32.03
-36.43
-40.55
-44.78
-49.62
-55.59
-63.00
-71.70
-80.85
-88.88
-93.82
-93.77
-87.64
-75.52
-58.79
-39.64
-20.45
-3.18
11.03
21.77
29.15
33.54
35.34
34.99
33.04
30.20
27.29
25.15
24.42
25.46
28.21
32.25
36.90
41.48
45.38
48.23
49.85
50.28
49.68
48.23
46.12
43.49
40.41
36.91
33.01
28.75
24.23
19.60
14.98
10.43
5.91
1.32
-3.53
-8.76
-14.40
-20.28
-26.13
-31.62
-36.52
-40.83
-44.81
-48.97
-53.97
-60.41
-68.67
-78.66
-89.60
-99.94
-107.58
-110.32
-106.54
-95.76
-78.93
-58.17
-36.23
-15.63
1.84
15.40
25.15
31.65
35.65
37.84
38.79
38.95
38.75
38.52
38.59
39.21
40.53
42.60
45.32
48.49
51.86
55.13
57.98
60.10
61.18
61.05
59.67
57.20
53.95
50.26
46.30
42.12
37.58
32.59
27.19
21.60
16.13
10.99
6.23
1.62
-3.20
-8.58
-14.72
-21.54
-28.75
-35.88
-42.48
-48.29
-53.36
-58.10
-63.18
-69.41
-77.39
-87.26
-98.35
-109.08
-117.18
-120.27
-116.55
-105.46
-88.02
-66.47
-43.63
-22.14
-3.80
10.62
21.19
28.47
33.17
35.97
37.49
38.25
38.76
39.41
40.50
42.17
44.37
46.92
49.59
52.21
54.70
57.12
59.51
61.78
63.62
64.57
64.14
62.11
58.63
54.20
49.49
45.09
41.25
37.82
34.42
30.62
26.16
21.08
15.63
10.17
4.95
0.02
-4.81
-9.82
-15.31
-21.36
-27.82
-34.35
-40.59
-46.32
-51.60
-56.87
-62.80
-70.17
-79.44
-90.41
-101.96
-112.11
-118.41
-118.65
-111.61
-97.52
-78.02
-55.70
-33.33
-13.17
3.43
16.04
24.91
30.62
33.77
34.94
34.64
33.36
31.74
30.45
30.16
31.33
34.07
38.08
42.72
47.29
51.21
54.22
56.29
57.53
57.98
57.52
55.93
53.07
49.00
44.04
38.70
33.48
28.73
24.50
20.54
16.43
11.77
6.26
-0.10
-7.04
-14.10
-20.81
-26.78
-31.91
-36.41
-40.76
-45.64
-51.77
-59.69
-69.55
-80.82
-92.26
-101.85
-107.32
-106.65
-98.75
-83.94
-63.87
-41.17
-18.65
1.38
17.59
29.60
37.76
42.70
45.11
45.57
44.68
43.09
41.51
40.65
40.98
42.68
45.55
49.17
53.04
56.74
60.01
62.70
64.72
65.91
66.09
65.08
62.84
59.50
55.32
50.67
45.80
40.84
35.76
30.49
25.01
19.41
13.92
8.72
3.83
-0.91
-5.87
-11.41
-17.75
-24.77
-32.13
-39.30
-45.86
-51.65
-56.90
-62.20
-68.37
-76.21
-86.21
-98.12
-110.76
-122.03
-129.29
-130.08
-122.89
-107.80
-86.47
-61.74
-36.73
-14.08
4.61
18.84
28.93
35.64
39.80
42.15
43.30
43.78
44.07
44.62
45.78
47.75
50.51
53.86
57.48
61.10
64.50
67.60
70.37
72.66
74.16
74.48
73.22
70.23
65.75
60.33
54.66
49.36
44.69
40.53
36.48
32.09
27.07
21.48
15.65
10.04
5.01
0.67
-3.24
-7.22
-11.83
-17.46
-24.18
-31.69
-39.47
-46.95
-53.74
-59.85
-65.67
-72.00
-79.72
-89.51
-101.29
-114.00
-125.51
-133.04
-133.95
-126.61
-111.02
-88.90
-63.17
-37.14
-13.57
5.87
20.64
31.11
38.07
42.38
44.75
45.78
45.98
45.84
45.79
46.22
47.33
49.18
51.69
54.68
57.93
61.17
64.12
66.50
68.05
68.56
67.91
66.09
63.17
59.32
54.78
49.80
44.63
39.43
34.28
29.17
24.06
18.96
13.88
8.84
3.80
-1.32
-6.68
-12.34
-18.26
-24.29
-30.21
-35.87
-41.24
-46.49
-51.98
-58.19
-65.62
-74.64
-85.14
-96.28
-106.32
-112.86
-113.41
-106.32
-91.44
-70.39
-46.08
-21.90
-0.61
16.26
28.52
36.83
42.09
44.92
45.65
44.52
42.05
39.11
36.80
36.04
37.24
40.21
44.25
48.50
52.29
55.31
57.64
59.46
60.85
61.66
61.49
59.89
56.60
51.70
45.63
39.05
32.58
26.63
21.28
16.36
11.58
6.66
1.40
-4.30
-10.45
-16.97
-23.65
-30.23
-36.46
-42.15
-47.32
-52.17
-57.21
-63.12
-70.66
-80.31
-91.85
-104.08
-114.73
-120.96
-120.20
-111.04
-93.87
-70.79
-44.99
-19.74
2.40
20.08
33.02
41.61
46.57
48.62
48.51
46.98
44.92
43.19
42.50
43.25
45.41
48.56
52.12
55.57
58.62
61.31
63.79
66.12
68.07
69.10
68.63
66.28
62.16
56.87
51.28
46.14
41.75
37.89
34.00
29.48
24.06
17.94
11.63
5.71
0.49
-4.14
-8.63
-13.59
-19.43
-26.20
-33.61
-41.11
-48.18
-54.51
-60.11
-65.37
-70.98
-77.78
-86.51
-97.44
-110.00
-122.50
-132.28
-136.33
-132.23
-119.07
-97.92
-71.59
-43.78
-17.93
3.65
20.13
31.84
39.73
44.76
47.64
48.90
49.09
48.88
48.96
49.84
51.68
54.27
57.11
59.76
61.97
63.82
65.57
67.42
69.36
71.07
72.04
71.72
69.72
66.02
60.95
55.18
49.45
44.35
40.08
36.35
32.59
28.20
22.88
16.79
10.50
4.64
-0.36
-4.50
-8.25
-12.26
-17.14
-23.16
-30.19
-37.76
-45.26
-52.14
-58.12
-63.28
-68.07
-73.26
-79.74
-88.28
-99.12
-111.61
-124.02
-133.68
-137.59
-133.38
-120.18
-99.05
-72.76
-44.90
-18.83
3.15
20.10
32.23
40.29
45.16
47.48
47.79
46.65
44.77
43.05
42.31
43.09
45.45
48.96
52.95
56.78
60.11
62.96
65.57
68.08
70.34
71.87
72.06
70.45
66.96
61.96
56.15
50.29
44.97
40.42
36.51
32.83
28.91
24.45
19.38
13.97
8.67
3.88
-0.21
-3.81
-7.47
-11.88
-17.54
-24.55
-32.46
-40.47
-47.75
-53.78
-58.60
-62.79
-67.30
-73.16
-81.15
-91.47
-103.46
-115.51
-125.11
-129.46
-126.17
-114.19
-94.26
-68.81
-41.26
-15.02
7.41
24.79
37.08
44.89
49.08
50.42
49.65
47.52
44.89
42.60
41.33
41.40
42.79
45.19
48.17
51.38
54.59
57.69
60.66
63.37
65.61
67.03
67.24
65.85
62.68
57.87
51.89
45.48
39.43
34.27
30.12
26.57
22.98
18.68
13.41
7.37
1.13
-4.62
-9.47
-13.43
-17.00
-20.86
-25.59
-31.43
-38.11
-45.07
-51.63
-57.31
-61.99
-65.99
-70.04
-75.10
-82.09
-91.57
-103.24
-115.74
-126.59
-132.72
-131.31
-120.81
-101.61
-76.06
-47.75
-20.46
2.98
21.17
34.09
42.54
47.48
49.61
49.42
47.42
44.37
41.33
39.35
39.13
40.79
43.87
47.60
51.28
54.55
57.39
59.96
62.34
64.40
65.73
65.85
64.40
61.29
56.80
51.48
45.99
40.88
36.40
32.46
28.67
24.59
19.94
14.72
9.25
4.00
-0.65
-4.55
-7.97
-11.41
-15.49
-20.62
-26.83
-33.75
-40.71
-47.03
-52.31
-56.59
-60.44
-64.75
-70.47
-78.31
-88.40
-99.99
-111.34
-119.90
-122.92
-118.22
-105.01
-84.29
-58.67
-31.54
-6.14
15.29
31.76
43.32
50.56
54.14
54.62
52.57
48.72
44.07
39.75
36.81
35.93
37.25
40.41
44.73
49.44
53.91
57.76
60.84
63.08
64.37
64.50
63.24
60.47
56.39
51.44
46.29
41.52
37.39
33.73
29.97
25.50
19.97
13.50
6.64
0.20
-5.22
-9.45
-12.88
-16.24
-20.32
-25.64
-32.19
-39.53
-46.94
-53.76
-59.60
-64.54
-69.11
-74.16
-80.61
-89.20
-100.01
-112.17
-123.70
-131.80
-133.50
-126.68
-110.85
-87.50
-59.71
-31.26
-5.45
15.58
31.12
41.54
47.72
50.60
51.00
49.67
47.36
44.90
43.09
42.57
43.63
46.21
49.91
54.18
58.46
62.34
65.62
68.28
70.30
71.52
71.61
70.17
66.97
62.13
56.20
49.99
44.27
39.44
35.47
31.83
27.88
23.11
17.38
11.01
4.58
-1.27
-6.14
-10.02
-13.37
-16.89
-21.26
-26.83
-33.45
-40.52
-47.30
-53.21
-58.12
-62.48
-67.11
-72.98
-80.85
-91.02
-103.06
-115.60
-126.43
-132.77
-132.07
-122.72
-104.82
-80.29
-52.40
-24.81
-0.51
18.79
32.76
41.97
47.33
49.64
49.47
47.42
44.24
40.92
38.47
37.65
38.71
41.38
45.04
49.01
52.81
56.20
59.12
61.51
63.22
63.99
63.58
61.87
58.95
55.07
50.58
45.76
40.78
35.66
30.34
24.83
19.20
13.68
8.44
3.60
-0.89
-5.25
-9.78
-14.71
-20.13
-25.92
-31.77
-37.34
-42.44
-47.14
-51.89
-57.45
-64.62
-73.94
-85.18
-97.09
-107.48
-113.68
-113.22
-104.69
-88.22
-65.52
-39.44
-13.17
10.48
29.64
43.51
52.18
56.27
56.61
54.10
49.67
44.35
39.25
35.43
33.69
34.33
37.10
41.33
46.17
50.89
55.03
58.36
60.73
62.01
61.98
60.50
57.65
53.72
49.15
44.39
39.68
34.99
30.16
24.93
19.21
13.12
6.97
1.13
-4.15
-8.86
-13.29
-17.92
-23.24
-29.46
-36.43
-43.67
-50.60
-56.81
-62.31
-67.55
-73.33
-80.59
-90.03
-101.72
-114.74
-127.09
-135.92
-138.27
-132.00
-116.62
-93.64
-66.14
-37.84
-12.01
9.28
25.37
36.65
44.03
48.45
50.66
51.26
50.91
50.32
50.19
51.09
53.25
56.47
60.31
64.24
67.85
71.00
73.81
76.41
78.77
80.57
81.25
80.24
77.27
72.50
66.51
60.10
54.02
48.69
44.10
39.90
35.57
30.66
24.97
18.66
12.21
6.20
1.13
-2.83
-5.99
-9.01
-12.72
-17.77
-24.38
-32.24
-40.65
-48.79
-56.01
-62.10
-67.33
-72.48
-78.54
-86.53
-97.04
-109.80
-123.32
-134.95
-141.45
-139.91
-128.84
-108.80
-82.34
-53.18
-25.08
-0.85
18.15
31.87
41.08
46.77
49.83
51.00
50.90
50.19
49.54
49.56
50.66
52.93
56.15
59.82
63.41
66.49
68.97
71.01
72.87
74.63
76.03
76.51
75.45
72.50
67.82
62.03
55.98
50.44
45.78
41.89
38.31
34.49
30.01
24.82
19.15
13.46
8.24
3.73
-0.08
-3.58
-7.35
-11.94
-17.64
-24.36
-31.62
-38.75
-45.18
-50.67
-55.42
-60.06
-65.51
-72.65
-82.00
-93.35
-105.50
-116.34
-123.15
-123.41
-115.59
-99.72
-77.54
-51.99
-26.36
-3.47
15.04
28.68
37.82
43.22
45.59
45.53
43.59
40.46
37.05
34.38
33.32
34.31
37.29
41.71
46.80
51.79
56.13
59.48
61.73
62.85
62.81
61.63
59.33
56.02
51.89
47.20
42.18
37.02
31.78
26.43
20.94
15.34
9.74
4.32
-0.84
-5.79
-10.78
-16.11
-21.97
-28.30
-34.80
-41.00
-46.56
-51.49
-56.23
-61.60
-68.53
-77.68
-88.99
-101.45
-113.02
-121.05
-122.93
-116.88
-102.63
-81.57
-56.43
-30.48
-6.72
12.86
27.45
37.27
43.13
46.03
46.87
46.43
45.36
44.24
43.54
43.61
44.66
46.64
49.37
52.57
55.92
59.20
62.27
65.01
67.28
68.77
69.11
67.90
64.94
60.38
54.73
48.72
43.06
38.13
33.93
30.06
25.99
21.29
15.85
9.91
3.97
-1.47
-6.11
-10.13
-14.04
-18.49
-24.00
-30.66
-38.08
-45.56
-52.46
-58.44
-63.65
-68.68
-74.42
-81.75
-91.24
-102.76
-115.19
-126.37
-133.45
-133.57
-124.93
-107.42
-82.93
-54.80
-26.83
-2.20
17.30
31.36
40.75
46.66
50.14
51.90
52.34
51.88
51.03
50.43
50.66
52.00
54.34
57.25
60.20
62.85
65.10
67.12
69.07
70.93
72.38
72.87
71.86
69.09
64.64
59.00
52.85
46.88
41.56
37.05
33.10
29.28
25.07
20.15
14.52
8.53
2.74
-2.35
-6.49
-9.88
-13.12
-16.95
-22.01
-28.46
-35.95
-43.71
-50.87
-56.83
-61.56
-65.61
-69.98
-75.76
-83.78
-94.22
-106.36
-118.48
-128.05
-132.25
-128.79
-116.66
-96.61
-71.10
-43.56
-17.41
4.74
21.59
33.07
39.95
43.31
44.23
43.58
42.08
40.32
38.88
38.25
38.74
40.45
43.16
46.44
49.77
52.79
55.28
57.24
58.67
59.52
59.57
58.57
56.32
52.74
47.99
42.33
36.15
29.87
23.88
18.42
13.60
9.26
5.05
0.55
-4.59
-10.46
-16.81
-23.21
-29.14
-34.33
-38.79
-42.87
-47.11
-52.10
-58.34
-66.18
-75.66
-86.40
-97.29
-106.44
-111.44
-109.96
-100.62
-83.61
-60.82
-35.32
-10.42
11.25
28.29
40.47
48.26
52.38
53.41
51.91
48.52
44.13
39.80
36.58
35.18
35.84
38.29
41.98
46.26
50.60
54.58
57.96
60.50
61.95
62.09
60.79
58.08
54.27
49.78
45.09
40.48
36.01
31.47
26.63
21.36
15.76
10.12
4.77
-0.13
-4.72
-9.39
-14.59
-20.64
-27.54
-34.98
-42.38
-49.22
-55.20
-60.44
-65.45
-71.09
-78.33
-87.91
-99.88
-113.26
-125.87
-134.70
-136.69
-129.77
-113.65
-90.05
-62.22
-33.95
-8.49
12.18
27.47
37.80
44.11
47.39
48.50
48.22
47.25
46.28
45.87
46.35
47.76
49.89
52.36
54.87
57.24
59.49
61.70
63.92
66.01
67.61
68.24
67.43
64.99
61.02
55.97
50.48
45.16
40.39
36.16
32.12
27.72
22.51
16.39
9.70
3.06
-2.86
-7.75
-11.77
-15.52
-19.77
-25.13
-31.79
-39.45
-47.45
-55.07
-61.86
-67.70
-72.96
-78.38
-84.85
-93.20
-103.67
-115.54
-126.92
-134.90
-136.28
-128.61
-111.13
-85.19
-53.95
-21.33
9.11
35.06
55.72
71.51
83.35
92.21
98.84
103.80
107.71
111.33
115.53
121.15
128.68
138.02
148.33
158.13
165.64
169.20
167.81
161.36
150.62
136.92
121.73
106.25
91.26
77.09
63.92
51.86
41.12
31.89
24.19
17.76
12.12
6.69
1.04
-5.02
-11.55
-18.66
-26.66
-35.98
-46.87
-59.01
-71.48
-82.99
-92.54
-99.98
-106.19
-112.77
-121.26
-132.37
-145.74
-160.04
-173.72
-185.56
-195.09
-202.45
-208.12
-212.58
-216.20
-219.19
-221.64
-223.41
-224.04
-222.64
-218.03
-208.98
-194.72
-175.19
-151.22
-124.36
-96.50
-69.52
-44.90
-23.60
-6.04
7.86
18.52
26.55
32.66
37.44
41.37
44.66
47.30
49.12
49.88
49.38
47.52
44.33
39.88
34.31
27.78
20.52
12.78
4.82
-3.19
-11.21
-19.41
-28.11
-37.71
-48.69
-61.41
-75.85
-91.41
-106.61
-119.17
-126.45
-126.18
-117.26
-100.28
-77.38
-51.66
-26.19
-3.17
16.34
32.18
44.64
53.97
60.33
64.04
65.90
67.19
69.39
73.58
79.98
87.81
95.65
102.02
106.00
107.60
107.54
106.90
106.53
106.70
107.01
106.71
105.08
101.78
97.06
91.57
86.00
80.76
75.72
70.39
64.13
56.60
47.90
38.56
29.29
20.65
12.83
5.57
-1.66
-9.58
-18.85
-29.89
-42.67
-56.48
-69.82
-80.52
-86.20
-84.97
-76.08
-60.33
-39.90
-17.70
3.44
21.53
35.75
46.29
53.91
59.43
63.42
66.22
68.10
69.47
70.92
73.05
76.20
80.21
84.48
88.17
90.61
91.59
91.48
91.05
91.05
91.89
93.38
94.81
95.20
93.71
89.97
84.27
77.41
70.39
64.10
58.98
54.94
51.48
47.96
43.81
38.73
32.74
26.06
19.02
11.96
5.11
-1.45
-7.72
-13.87
-20.11
-26.65
-33.66
-41.24
-49.48
-58.54
-68.60
-79.73
-91.55
-103.04
-112.42
-117.58
-116.69
-108.88
-94.63
-75.67
-54.41
-33.22
-13.92
2.47
15.54
25.23
31.63
34.92
35.57
34.34
32.34
30.81
30.81
32.98
37.35
43.35
50.04
56.37
61.49
64.90
66.51
66.60
65.61
64.04
62.21
60.21
57.87
54.85
50.79
45.54
39.29
32.57
26.10
20.48
16.01
12.54
9.59
6.54
2.90
-1.52
-6.64
-12.16
-17.77
-23.24
-28.55
-33.92
-39.72
-46.46
-54.53
-63.98
-74.24
-84.07
-91.57
-94.73
-91.94
-82.58
-67.32
-47.97
-27.09
-7.18
9.84
23.02
32.36
38.44
42.06
43.90
44.44
44.07
43.19
42.31
41.99
42.61
44.33
47.01
50.29
53.75
57.02
59.85
62.08
63.53
64.07
63.53
61.88
59.15
55.53
51.20
46.37
41.16
35.60
29.72
23.62
17.43
11.41
5.75
0.49
-4.48
-9.43
-14.67
-20.35
-26.49
-32.88
-39.27
-45.35
-50.98
-56.17
-61.21
-66.60
-73.03
-81.08
-90.81
-101.46
-111.28
-117.92
-119.05
-113.20
-100.37
-82.04
-60.70
-39.11
-19.48
-3.11
9.64
19.01
25.51
29.66
31.96
32.89
32.96
32.71
32.61
33.05
34.25
36.25
38.91
42.01
45.29
48.52
51.55
54.28
56.52
58.05
58.52
57.67
55.43
52.00
47.81
43.35
38.97
34.77
30.62
26.31
21.75
16.99
12.22
7.61
3.22
-1.04
-5.41
-10.08
-15.14
-20.51
-25.97
-31.24
-36.11
-40.54
-44.73
-49.07
-54.09
-60.26
-67.86
-76.73
-86.08
-94.47
-100.02
-100.90
-95.83
-84.64
-68.35
-48.94
-28.79
-10.02
5.94
18.42
27.43
33.35
36.64
37.77
37.18
35.38
32.96
30.60
28.94
28.47
29.42
31.64
34.75
38.18
41.45
44.25
46.39
47.79
48.34
47.91
46.42
43.91
40.60
36.80
32.82
28.84
24.90
20.92
16.82
12.57
8.23
3.92
-0.28
-4.40
-8.54
-12.89
-17.61
-22.76
-28.23
-33.79
-39.14
-44.06
-48.58
-53.01
-57.90
-63.87
-71.35
-80.26
-89.86
-98.66
-104.69
-105.96
-101.08
-89.79
-73.17
-53.36
-33.03
-14.55
0.56
11.80
19.53
24.53
27.59
29.29
30.01
30.09
29.93
29.99
30.68
32.20
34.47
37.25
40.21
43.15
46.00
48.72
51.25
53.38
54.78
55.09
54.09
51.74
48.28
44.12
39.74
35.54
31.66
28.02
24.32
20.28
15.72
10.75
5.70
0.96
-3.16
-6.58
-9.46
-12.16
-14.98
-18.11
-21.51
-24.97
-28.32
-31.50
-34.76
-38.61
-43.67
-50.49
-59.26
-69.55
-80.15
-89.22
-94.59
-94.37
-87.58
-74.59
-57.08
-37.53
-18.51
-1.94
11.24
20.92
27.49
31.39
32.94
32.45
30.33
27.27
24.15
21.81
20.84
21.47
23.58
26.77
30.53
34.33
37.71
40.38
42.24
43.31
43.65
43.26
42.00
39.73
36.37
32.06
27.18
22.24
17.64
13.54
9.80
6.06
1.92
-2.84
-8.18
-13.80
-19.30
-24.31
-28.63
-32.27
-35.47
-38.58
-42.03
-46.28
-51.72
-58.54
-66.47
-74.55
-81.21
-84.52
-82.79
-75.19
-62.14
-45.20
-26.65
-8.71
6.96
19.50
28.75
34.87
38.11
38.69
36.95
33.45
29.07
24.83
21.67
20.21
20.57
22.43
25.15
28.15
30.98
33.47
35.58
37.23
38.20
38.08
36.50
33.30
28.67
23.19
17.61
12.54
8.20
4.37
0.48
-4.05
-9.62
-16.14
-23.13
-29.89
-35.81
-40.64
-44.56
-48.17
-52.25
-57.58
-64.63
-73.37
-83.06
-92.26
-99.05
-101.38
-97.76
-87.73
-72.16
-53.02
-32.82
-13.91
2.13
14.64
23.72
29.86
33.58
35.27
35.24
33.87
31.78
29.75
28.59
28.86
30.66
33.63
37.09
40.33
42.91
44.76
46.08
47.13
47.98
48.42
48.02
46.40
43.41
39.22
34.27
29.11
24.15
19.59
15.35
11.17
6.64
1.46
-4.53
-11.19
-18.16
-24.89
-30.92
-36.07
-40.53
-44.85
-49.72
-55.83
-63.58
-72.89
-83.11
-92.93
-100.54
-103.96
-101.58
-92.69
-77.85
-58.79
-37.99
-17.94
-0.55
13.26
23.44
30.51
35.14
37.93
39.32
39.67
39.43
39.03
38.92
39.41
40.61
42.45
44.77
47.30
49.81
52.05
53.79
54.84
55.11
54.61
53.39
51.49
48.89
45.53
41.42
36.68
31.62
26.61
21.95
17.73
13.77
9.69
5.11
-0.14
-5.97
-12.00
-17.83
-23.14
-27.88
-32.23
-36.54
-41.16
-46.44
-52.67
-60.10
-68.79
-78.32
-87.62
-94.97
-98.30
-95.89
-86.97
-72.11
-53.17
-32.66
-13.09
3.75
17.00
26.69
33.27
37.34
39.36
39.71
38.79
37.14
35.45
34.40
34.49
35.84
38.23
41.22
44.37
47.34
49.96
52.13
53.76
54.70
54.76
53.82
51.88
49.07
45.60
41.67
37.46
33.10
28.71
24.40
20.25
16.27
12.35
8.26
3.73
-1.38
-7.04
-12.98
-18.85
-24.30
-29.19
-33.60
-37.84
-42.39
-47.75
-54.44
-62.71
-72.39
-82.61
-91.74
-97.69
-98.52
-93.11
-81.66
-65.71
-47.60
-29.72
-13.85
-0.86
9.17
16.55
21.66
24.82
26.30
26.53
26.07
25.60
25.70
26.77
28.89
31.88
35.39
39.08
42.68
46.02
49.03
51.61
53.59
54.74
54.82
53.76
51.67
48.82
45.52
41.98
38.29
34.44
30.46
26.42
22.40
18.42
14.41
10.18
5.60
0.65
-4.50
-9.57
-14.35
-18.75
-22.82
-26.77
-30.86
-35.40
-40.76
-47.29
-55.28
-64.63
-74.57
-83.66
-89.93
-91.48
-87.07
-76.68
-61.57
-43.88
-25.99
-9.80
3.57
13.88
21.37
26.47
29.52
30.75
30.42
28.94
26.97
25.31
24.69
25.48
27.65
30.70
33.95
36.80
38.96
40.47
41.59
42.53
43.23
43.40
42.60
40.54
37.19
32.82
27.93
23.07
18.64
14.78
11.36
8.06
4.44
0.21
-4.72
-10.08
-15.41
-20.21
-24.15
-27.26
-29.85
-32.51
-35.88
-40.55
-46.86
-54.73
-63.53
-71.94
-78.23
-80.58
-77.66
-69.09
-55.61
-38.86
-20.93
-3.76
11.20
23.13
31.76
37.18
39.72
39.85
38.16
35.35
32.22
29.56
28.05
28.07
29.64
32.39
35.69
38.85
41.38
43.08
44.04
44.44
44.38
43.73
42.17
39.36
35.19
29.91
24.05
18.31
13.23
9.02
5.44
1.95
-2.05
-6.94
-12.69
-18.93
-25.13
-30.82
-35.83
-40.25
-44.40
-48.66
-53.47
-59.21
-66.17
-74.32
-83.06
-91.17
-96.85
-98.26
-94.06
-83.96
-68.84
-50.55
-31.34
-13.25
2.29
14.55
23.42
29.20
32.33
33.39
32.95
31.63
30.01
28.66
28.02
28.40
29.88
32.30
35.26
38.29
40.95
42.98
44.30
44.93
44.84
43.88
41.86
38.67
34.47
29.67
24.85
20.43
16.50
12.78
8.78
4.06
-1.49
-7.65
-13.95
-19.87
-25.11
-29.74
-34.15
-38.96
-44.82
-52.16
-60.96
-70.55
-79.58
-86.24
-88.65
-85.45
-76.29
-61.97
-44.32
-25.67
-8.16
6.76
18.45
27.02
32.96
36.73
38.68
39.03
38.13
36.49
34.83
33.87
34.04
35.44
37.72
40.38
42.95
45.13
46.77
47.86
48.37
48.21
47.30
45.53
42.88
39.40
35.22
30.55
25.58
20.49
15.40
10.40
5.56
0.90
-3.58
-8.00
-12.55
-17.43
-22.77
-28.54
-34.49
-40.33
-45.79
-50.84
-55.65
-60.60
-66.18
-72.79
-80.61
-89.38
-98.18
-105.44
-109.18
-107.58
-99.53
-85.20
-65.99
-44.17
-22.23
-2.25
14.53
27.69
37.40
44.13
48.38
50.62
51.34
51.04
50.27
49.52
49.12
49.26
49.96
51.13
52.65
54.38
56.20
57.92
59.33
60.15
60.16
59.19
57.25
54.48
51.07
47.21
43.04
38.65
34.11
29.50
24.92
20.51
16.29
12.19
8.00
3.51
-1.45
-6.87
-12.55
-18.18
-23.44
-28.14
-32.30
-36.17
-40.17
-44.88
-50.82
-58.34
-67.34
-77.08
-86.11
-92.48
-94.25
-90.08
-79.78
-64.45
-46.14
-27.28
-9.97
4.45
15.53
23.46
28.74
31.97
33.63
34.19
34.09
33.80
33.72
34.15
35.19
36.74
38.60
40.56
42.43
44.11
45.54
46.66
47.36
47.54
47.06
45.81
43.73
40.78
37.02
32.63
27.86
23.09
18.63
14.64
11.03
7.52
3.76
-0.48
-5.20
-10.21
-15.16
-19.76
-23.87
-27.56
-31.07
-34.77
-39.07
-44.35
-50.85
-58.53
-66.85
-74.76
-80.72
-83.06
-80.48
-72.45
-59.54
-43.25
-25.66
-8.82
5.73
17.22
25.58
31.16
34.46
35.92
35.93
34.85
33.16
31.41
30.19
29.93
30.84
32.80
35.45
38.32
40.97
43.05
44.40
44.97
44.80
43.91
42.34
40.10
37.18
33.61
29.49
25.00
20.35
15.78
11.44
7.36
3.47
-0.42
-4.51
-9.00
-13.96
-19.28
-24.72
-29.92
-34.61
-38.70
-42.39
-46.13
-50.56
-56.27
-63.62
-72.46
-82.00
-90.83
-97.08
-98.90
-94.99
-85.06
-70.00
-51.67
-32.42
-14.42
0.83
12.67
21.21
27.01
30.75
33.00
34.18
34.63
34.69
34.73
35.12
36.08
37.63
39.59
41.69
43.70
45.55
47.23
48.73
49.94
50.61
50.46
49.31
47.21
44.40
41.21
37.95
34.77
31.62
28.34
24.80
20.94
16.86
12.71
8.68
4.88
1.31
-2.19
-5.81
-9.79
-14.23
-19.08
-24.16
-29.21
-34.03
-38.58
-43.01
-47.69
-53.10
-59.71
-67.73
-76.86
-86.08
-93.73
-97.87
-96.84
-89.80
-77.14
-60.39
-41.76
-23.49
-7.29
5.95
16.06
23.35
28.36
31.61
33.57
34.63
35.14
35.48
35.91
36.66
37.82
39.36
41.16
43.10
45.05
46.93
48.64
50.04
50.97
51.22
50.62
49.12
46.79
43.80
40.37
36.75
33.11
29.58
26.23
23.05
20.05
17.24
14.64
12.24
9.97
7.63
4.91
1.57
-2.55
-7.34
-12.54
-17.85
-23.10
-28.38
-34.00
-40.42
-47.98
-56.75
-66.32
-75.72
-83.57
-88.23
-88.29
-82.94
-72.33
-57.58
-40.57
-23.41
-7.89
4.82
14.34
20.82
24.70
26.42
26.37
24.98
22.81
20.59
19.07
18.84
20.09
22.60
25.86
29.30
32.51
35.31
37.69
39.62
40.94
41.39
40.76
39.03
36.43
33.29
29.96
26.60
23.18
19.58
15.70
11.55
7.28
3.09
-0.85
-4.47
-7.79
-10.96
-14.16
-17.60
-21.43
-25.64
-30.08
-34.43
-38.48
-42.14
-45.67
-49.63
-54.70
-61.41
-69.77
-79.05
-87.75
-93.92
-95.67
-91.75
-81.97
-67.26
-49.40
-30.54
-12.69
2.67
14.77
23.45
29.08
32.28
33.80
34.37
34.54
34.72
35.13
35.89
37.03
38.51
40.25
42.17
44.15
46.10
47.97
49.65
51.00
51.79
51.80
50.86
48.90
46.06
42.58
38.77
34.88
31.04
27.23
23.31
19.19
14.88
10.53
6.37
2.60
-0.79
-4.05
-7.56
-11.64
-16.35
-21.47
-26.50
-31.03
-34.87
-38.25
-41.69
-45.86
-51.34
-58.30
-66.42
-74.68
-81.59
-85.40
-84.53
-78.14
-66.41
-50.60
-32.74
-15.06
0.63
13.24
22.49
28.66
32.34
34.12
34.51
33.96
32.91
31.81
31.04
30.89
31.49
32.77
34.53
36.50
38.44
40.18
41.62
42.70
43.34
43.41
42.75
41.25
38.89
35.82
32.23
28.37
24.41
20.47
16.55
12.65
8.76
4.87
1.00
-2.85
-6.75
-10.75
-14.91
-19.23
-23.61
-27.90
-31.95
-35.69
-39.24
-42.92
-47.16
-52.40
-58.94
-66.71
-75.09
-82.95
-88.72
-90.77
-87.87
-79.59
-66.54
-50.19
-32.52
-15.48
-0.59
11.26
19.79
25.12
27.62
27.82
26.36
23.95
21.41
19.45
18.65
19.25
21.21
24.16
27.63
31.16
34.43
37.27
39.60
41.37
42.43
42.61
41.70
39.62
36.47
32.57
28.31
24.03
19.88
15.77
11.44
6.66
1.35
-4.33
-10.05
-15.44
-20.24
-24.42
-28.18
-31.94
-36.23
-41.59
-48.38
-56.60
-65.63
-74.20
-80.57
-82.94
-80.04
-71.56
-58.30
-41.94
-24.58
-8.17
5.94
17.07
25.17
30.53
33.56
34.67
34.27
32.81
30.83
28.96
27.76
27.68
28.85
31.14
34.13
37.32
40.27
42.71
44.51
45.67
46.17
45.92
44.85
42.91
40.15
36.70
32.77
28.52
24.06
19.52
15.03
10.72
6.68
2.91
-0.76
-4.60
-8.84
-13.56
-18.65
-23.89
-28.98
-33.73
-38.10
-42.25
-46.57
-51.59
-57.81
-65.53
-74.56
-83.98
-92.25
-97.45
-97.85
-92.49
-81.46
-65.99
-48.06
-29.83
-13.08
1.11
12.36
20.84
26.95
31.12
33.74
35.18
35.87
36.22
36.67
37.54
38.96
40.91
43.22
45.69
48.15
50.53
52.81
54.92
56.73
57.98
58.31
57.41
55.16
51.70
47.45
42.97
38.73
35.01
31.73
28.58
25.19
21.28
16.82
12.03
7.28
2.88
-1.00
-4.48
-7.85
-11.52
-15.76
-20.62
-25.90
-31.21
-36.19
-40.63
-44.60
-48.45
-52.78
-58.22
-65.23
-73.75
-83.05
-91.65
-97.59
-98.98
-94.56
-84.16
-68.81
-50.46
-31.40
-13.65
1.39
13.10
21.43
26.75
29.54
30.36
29.81
28.50
27.06
26.07
25.98
27.06
29.28
32.39
35.95
39.51
42.69
45.35
47.47
49.12
50.23
50.66
50.15
48.53
45.77
42.04
37.66
33.01
28.38
23.98
19.90
16.11
12.50
8.85
4.93
0.59
-4.16
-9.10
-13.91
-18.29
-22.16
-25.67
-29.25
-33.44
-38.78
-45.61
-53.93
-63.23
-72.44
-79.97
-84.08
-83.31
-76.94
-65.39
-50.03
-32.87
-15.96
-0.85
11.58
21.09
27.87
32.21
34.44
34.93
34.12
32.55
30.82
29.52
29.07
29.70
31.39
33.95
37.02
40.20
43.14
45.56
47.33
48.39
48.70
48.15
46.63
44.14
40.82
37.05
33.25
29.74
26.61
23.66
20.57
17.08
13.15
8.99
4.89
1.03
-2.60
-6.26
-10.24
-14.77
-19.85
-25.26
-30.67
-35.76
-40.34
-44.49
-48.57
-53.10
-58.71
-65.82
-74.43
-83.86
-92.70
-99.02
-100.92
-97.08
-87.26
-72.39
-54.34
-35.36
-17.47
-2.10
10.08
19.01
25.05
28.72
30.58
31.19
31.14
30.95
31.12
31.98
33.68
36.13
39.03
42.01
44.76
47.09
48.97
50.45
51.56
52.20
52.25
51.54
50.03
47.81
45.04
41.94
38.66
35.27
31.74
27.99
23.99
19.80
15.56
11.48
7.75
4.40
1.31
-1.85
-5.40
-9.59
-14.42
-19.63
-24.83
-29.66
-33.92
-37.73
-41.47
-45.72
-51.08
-57.90
-66.09
-74.91
-82.96
-88.40
-89.46
-84.94
-74.67
-59.67
-41.83
-23.41
-6.42
7.81
18.80
26.65
31.82
34.78
35.93
35.59
34.15
32.15
30.18
28.89
28.72
29.84
32.10
35.13
38.46
41.62
44.31
46.36
47.70
48.30
48.11
47.05
45.04
42.11
38.39
34.14
29.63
25.08
20.58
16.15
11.81
7.62
3.67
-0.04
-3.62
-7.37
-11.57
-16.33
-21.53
-26.84
-31.87
-36.43
-40.60
-44.73
-49.28
-54.71
-61.36
-69.27
-78.04
-86.68
-93.69
-97.29
-95.90
-88.72
-76.09
-59.45
-40.96
-22.83
-6.83
6.10
15.79
22.61
27.23
30.32
32.50
34.21
35.80
37.40
39.10
40.89
42.74
44.64
46.61
48.69
50.92
53.22
55.47
57.42
58.78
59.24
58.59
56.73
53.78
50.04
45.93
41.85
37.98
34.25
30.39
26.11
21.26
15.97
10.60
5.56
1.13
-2.69
-6.18
-9.79
-13.91
-18.69
-24.02
-29.55
-34.91
-39.91
-44.60
-49.34
-54.69
-61.16
-68.97
-77.75
-86.46
-93.50
-97.02
-95.51
-88.24
-75.63
-59.16
-40.94
-23.13
-7.40
5.35
14.95
21.70
26.11
28.68
29.83
29.97
29.54
29.05
29.00
29.79
31.52
34.04
36.93
39.69
41.94
43.57
44.65
45.41
45.97
46.25
46.03
45.04
43.11
40.26
36.67
32.59
28.29
23.99
19.90
16.14
12.74
9.58
6.36
2.76
-1.43
-6.13
-11.06
-15.79
-20.04
-23.83
-27.51
-31.64
-36.83
-43.48
-51.64
-60.85
-70.14
-78.07
-82.98
-83.39
-78.46
-68.26
-53.88
-37.14
-20.13
-4.62
8.24
18.08
25.10
29.81
32.71
34.21
34.62
34.23
33.42
32.63
32.31
32.75
34.01
35.93
38.23
40.56
42.70
44.51
45.87
46.67
46.69
45.76
43.78
40.87
37.37
33.71
30.22
27.02
23.98
20.82
17.35
13.61
9.88
6.47
3.56
1.03
-1.50
-4.45
-8.14
-12.60
-17.67
-23.04
-28.44
-33.68
-38.72
-43.70
-48.92
-54.84
-61.89
-70.17
-79.19
-87.68
-93.80
-95.66
-91.97
-82.52
-68.34
-51.33
-33.67
-17.23
-3.13
8.22
17.01
23.63
28.44
31.76
33.83
34.93
35.45
35.81
36.36
37.32
38.72
40.46
42.40
44.40
46.38
48.28
49.98
51.31
52.06
52.01
51.04
49.15
46.44
43.14
39.50
35.78
32.07
28.38
24.55
20.45
16.07
11.61
7.39
3.69
0.56
-2.24
-5.12
-8.55
-12.75
-17.65
-22.92
-28.12
-32.88
-37.10
-40.91
-44.73
-49.16
-54.78
-61.97
-70.58
-79.73
-87.93
-93.32
-94.20
-89.60
-79.58
-65.25
-48.47
-31.26
-15.38
-1.99
8.46
16.07
21.26
24.56
26.47
27.46
27.94
28.32
28.97
30.17
32.02
34.46
37.22
40.02
42.55
44.62
46.16
47.16
47.62
47.57
46.99
45.86
44.11
41.71
38.66
35.08
31.13
27.04
23.03
19.26
15.77
12.47
9.19
5.71
1.86
-2.47
-7.22
-12.21
-17.16
-21.82
-26.06
-29.95
-33.74
-37.85
-42.80
-49.01
-56.62
-65.23
-73.75
-80.55
-83.78
-81.99
-74.62
-62.23
-46.42
-29.34
-13.04
0.97
11.97
19.97
25.46
29.10
31.49
33.08
34.14
34.87
35.48
36.21
37.33
38.98
41.11
43.39
45.40
46.75
47.27
47.02
46.20
44.98
43.36
41.21
38.39
34.92
31.02
27.11
23.57
20.54
17.91
15.40
12.70
9.69
6.43
3.20
0.25
-2.30
-4.54
-6.74
-9.25
-12.34
-16.06
-20.25
-24.57
-28.66
-32.27
-35.38
-38.25
-41.35
-45.24
-50.42
-57.09
-65.00
-73.26
-80.48
-84.93
-85.08
-79.97
-69.67
-55.29
-38.71
-22.03
-7.03
5.24
14.56
21.31
26.14
29.65
32.20
33.97
35.14
35.95
36.77
37.95
39.66
41.83
44.22
46.55
48.65
50.50
52.12
53.47
54.34
54.40
53.34
51.04
47.64
43.43
38.79
33.99
29.16
24.29
19.40
14.56
9.95
5.79
2.22
-0.81
-3.53
-6.32
-9.52
-13.32
-17.70
-22.43
-27.18
-31.67
-35.73
-39.39
-42.88
-46.62
-51.15
-56.93
-64.11
-72.19
-79.98
-85.71
-87.56
-84.23
-75.44
-62.09
-45.94
-29.12
-13.46
-0.21
10.10
17.47
22.21
24.68
25.31
24.61
23.17
21.68
20.74
20.79
21.91
23.89
26.36
28.89
31.26
33.41
35.39
37.19
38.64
39.39
39.09
37.47
34.59
30.73
26.38
22.03
18.04
14.50
11.26
8.03
4.46
0.40
-4.16
-8.97
-13.70
-18.03
-21.77
-24.99
-28.02
-31.37
-35.65
-41.31
-48.47
-56.60
-64.56
-70.77
-73.55
-71.68
-64.80
-53.51
-39.26
-23.94
-9.33
3.24
13.11
20.26
24.99
27.74
28.86
28.65
27.43
25.66
23.93
22.88
22.93
24.22
26.48
29.30
32.18
34.79
36.93
38.56
39.63
40.12
39.92
38.92
37.06
34.30
30.75
26.58
22.12
17.72
13.65
10.04
6.80
3.67
0.36
-3.41
-7.72
-12.51
-17.57
-22.67
-27.54
-32.05
-36.19
-40.09
-44.05
-48.47
-53.74
-60.08
-67.41
-75.13
-82.14
-86.96
-88.05
-84.31
-75.45
-62.15
-45.97
-28.89
-12.80
0.94
11.70
19.56
25.07
28.92
31.68
33.74
35.27
36.36
37.17
37.95
38.99
40.48
42.42
44.62
46.77
48.63
50.11
51.22
51.98
52.33
52.07
51.01
49.05
46.29
42.96
39.32
35.53
31.60
27.48
23.09
18.50
13.89
9.50
5.51
1.93
-1.41
-4.80
-8.53
-12.74
-17.34
-22.05
-26.54
-30.60
-34.25
-37.78
-41.69
-46.51
-52.67
-60.21
-68.70
-77.12
-83.99
-87.63
-86.64
-80.33
-68.96
-53.77
-36.64
-19.56
-4.24
8.27
17.58
23.85
27.59
29.43
30.01
29.92
29.63
29.52
29.80
30.56
31.77
33.34
35.14
37.04
38.92
40.64
42.03
43.00
43.45
43.40
42.84
41.77
40.09
37.71
34.61
30.91
26.92
22.96
19.23
15.74
12.31
8.73
4.89
0.86
-3.24
-7.31
-11.35
-15.47
-19.72
-24.08
-28.42
-32.68
-36.92
-41.49
-46.85
-53.31
-60.77
-68.51
-75.19
-79.17
-78.93
-73.62
-63.35
-49.26
-33.19
-17.19
-2.95
8.54
17.06
22.92
26.73
29.07
30.38
31.05
31.37
31.60
32.03
32.83
34.10
35.78
37.76
39.87
41.95
43.81
45.34
46.41
46.93
46.81
45.95
44.25
41.68
38.32
34.43
30.33
26.34
22.68
19.35
16.25
13.23
10.21
7.23
4.40
1.84
-0.46
-2.66
-5.10
-8.10
-11.85
-16.27
-21.04
-25.71
-29.88
-33.44
-36.61
-39.92
-43.99
-49.36
-56.18
-64.08
-72.13
-78.94
-82.92
-82.72
-77.54
-67.48
-53.54
-37.44
-21.19
-6.61
5.08
13.46
18.80
21.80
23.28
23.83
23.80
23.34
22.61
21.93
21.77
22.50
24.29
26.91
29.85
32.58
34.77
36.39
37.60
38.57
39.27
39.46
38.84
37.18
34.54
31.19
27.56
24.01
20.73
17.72
14.90
12.14
9.32
6.38
3.24
-0.16
-3.89
-7.93
-12.16
-16.41
-20.44
-24.12
-27.52
-30.89
-34.68
-39.41
-45.44
-52.77
-60.83
-68.53
-74.37
-76.85
-74.84
-67.98
-56.83
-42.72
-27.44
-12.78
-0.12
9.82
16.91
21.50
24.10
25.23
25.30
24.69
23.77
23.00
22.81
23.52
25.17
27.50
30.08
32.51
34.53
36.13
37.45
38.57
39.35
39.54
38.79
36.92
34.09
30.71
27.30
24.27
21.72
19.44
17.09
14.35
11.16
7.71
4.29
1.18
-1.52
-3.92
-6.30
-8.95
-12.11
-15.84
-20.03
-24.41
-28.69
-32.59
-36.03
-39.15
-42.33
-46.11
-51.00
-57.25
-64.60
-72.15
-78.46
-81.82
-80.75
-74.47
-63.24
-48.28
-31.47
-14.81
0.09
12.23
21.29
27.46
31.23
33.19
34.01
34.27
34.52
35.13
36.30
38.06
40.27
42.68
45.01
47.08
48.75
50.00
50.82
51.18
50.97
50.09
48.45
46.06
43.03
39.52
35.67
31.65
27.51
23.36
19.28
15.33
11.52
7.79
3.96
-0.15
-4.71
-9.76
-15.21
-20.81
-26.22
-31.11
-35.34
-38.98
-42.37
-46.04
-50.55
-56.27
-63.22
-70.90
-78.27
-83.95
-86.47
-84.70
-78.14
-67.16
-52.94
-37.17
-21.67
-7.95
3.04
11.02
16.16
18.90
19.74
19.13
17.56
15.60
13.90
13.08
13.55
15.35
18.15
21.45
24.76
27.81
30.46
32.71
34.44
35.44
35.38
34.03
31.38
27.67
23.33
18.85
14.63
10.88
7.60
4.57
1.42
-2.20
-6.52
-11.57
-17.08
-22.61
-27.70
-32.05
-35.62
-38.66
-41.73
-45.53
-50.68
-57.51
-65.74
-74.36
-81.77
-86.07
-85.67
-79.80
-68.76
-53.90
-37.14
-20.48
-5.53
6.71
15.87
22.10
25.82
27.61
28.07
27.76
27.18
26.77
26.90
27.80
29.57
32.05
34.90
37.71
40.12
41.90
43.06
43.70
43.99
43.95
43.47
42.34
40.33
37.31
33.35
28.72
23.87
19.23
15.14
11.66
8.58
5.51
2.04
-2.09
-6.88
-12.05
-17.18
-21.90
-26.04
-29.74
-33.39
-37.56
-42.78
-49.41
-57.46
-66.41
-75.24
-82.44
-86.39
-85.68
-79.67
-68.63
-53.84
-37.19
-20.65
-5.88
6.19
15.31
21.76
26.08
28.84
30.59
31.77
32.75
33.84
35.22
36.97
39.09
41.50
44.09
46.77
49.37
51.77
53.78
55.25
56.04
56.06
55.26
53.66
51.37
48.57
45.51
42.39
39.30
36.19
32.88
29.19
25.09
20.76
16.51
12.66
9.31
6.26
3.14
-0.48
-4.79
-9.66
-14.70
-19.50
-23.81
-27.68
-31.45
-35.59
-40.60
-46.84
-54.47
-63.27
-72.48
-80.79
-86.50
-87.95
-84.06
-74.79
-61.16
-45.04
-28.51
-13.32
-0.56
9.45
16.91
22.27
26.01
28.55
30.19
31.24
32.01
32.85
33.99
35.58
37.56
39.73
41.85
43.71
45.19
46.28
47.01
47.40
47.46
47.11
46.28
44.94
43.08
40.73
37.97
34.90
31.66
28.38
25.18
22.11
19.21
16.45
13.75
10.98
8.01
4.72
1.06
-2.97
-7.25
-11.61
-15.86
-19.85
-23.59
-27.29
-31.36
-36.34
-42.60
-50.08
-58.08
-65.29
-69.98
-70.61
-66.27
-57.05
-44.08
-29.18
-14.29
-1.02
9.70
17.62
22.97
26.20
27.78
28.13
27.68
26.87
26.19
26.03
26.63
27.99
29.87
31.94
33.88
35.52
36.80
37.78
38.52
38.98
39.03
38.50
37.20
35.10
32.33
29.21
26.12
23.38
21.12
19.19
17.27
15.04
12.30
9.13
5.81
2.73
0.13
-2.00
-3.97
-6.23
-9.17
-12.94
-17.38
-22.07
-26.50
-30.30
-33.33
-35.74
-37.97
-40.57
-44.10
-48.90
-54.92
-61.54
-67.62
-71.70
-72.37
-68.71
-60.72
-49.27
-35.95
-22.49
-10.31
-0.27
7.46
13.12
17.16
20.06
22.19
23.86
25.27
26.61
27.96
29.36
30.81
32.28
33.74
35.16
36.50
37.72
38.77
39.56
39.99
39.91
39.18
37.77
35.72
33.29
30.79
28.48
26.48
24.70
22.92
20.89
18.46
15.65
12.59
9.52
6.58
3.80
1.07
-1.86
-5.18
-9.00
-13.20
-17.55
-21.76
-25.67
-29.34
-32.98
-36.98
-41.70
-47.44
-54.24
-61.82
-69.39
-75.75
-79.40
-79.01
-73.87
-64.20
-51.23
-36.84
-22.98
-11.12
-1.96
4.64
9.23
12.42
14.62
15.96
16.47
16.29
15.79
15.47
15.82
17.07
19.12
21.65
24.32
26.85
29.13
31.11
32.69
33.74
34.07
33.53
32.11
29.88
27.03
23.78
20.39
17.09
14.05
11.29
8.72
6.14
3.34
0.18
-3.30
-6.93
-10.47
-13.75
-16.70
-19.41
-22.08
-24.95
-28.33
-32.52
-37.75
-44.05
-51.05
-57.90
-63.32
-65.87
-64.36
-58.28
-48.06
-34.99
-20.89
-7.55
3.68
12.17
17.93
21.38
23.08
23.56
23.22
22.39
21.37
20.44
19.86
19.84
20.54
21.95
23.95
26.27
28.51
30.32
31.47
31.90
31.73
31.07
29.93
28.25
25.94
22.97
19.53
15.93
12.54
9.58
7.07
4.83
2.57
0.00
-3.06
-6.63
-10.59
-14.70
-18.67
-22.28
-25.47
-28.32
-31.07
-34.00
-37.49
-41.90
-47.49
-54.29
-61.86
-69.22
-74.94
-77.49
-75.70
-69.23
-58.65
-45.37
-31.11
-17.48
-5.61
3.99
11.26
16.45
19.91
22.01
23.14
23.69
24.11
24.72
25.78
27.34
29.26
31.37
33.46
35.45
37.31
39.11
40.84
42.40
43.57
44.08
43.71
42.37
40.14
37.30
34.23
31.27
28.63
26.32
24.13
21.75
18.92
15.54
11.75
7.85
4.24
1.15
-1.38
-3.59
-5.92
-8.79
-12.47
-16.93
-21.84
-26.69
-31.08
-34.80
-38.07
-41.42
-45.54
-51.00
-57.98
-66.03
-74.10
-80.67
-84.10
-83.13
-77.21
-66.71
-52.84
-37.30
-21.85
-7.92
3.60
12.37
18.55
22.53
24.87
26.10
26.69
27.07
27.51
28.30
29.60
31.48
33.88
36.58
39.26
41.62
43.52
44.98
46.13
47.11
47.88
48.23
47.85
46.48
44.09
40.92
37.36
33.81
30.51
27.50
24.68
21.90
19.08
16.20
13.30
10.43
7.65
5.01
2.53
0.21
-2.07
-4.52
-7.39
-10.83
-14.80
-19.06
-23.25
-27.08
-30.45
-33.55
-36.74
-40.49
-45.20
-51.09
-58.06
-65.63
-72.86
-78.52
-81.20
-79.76
-73.68
-63.27
-49.64
-34.47
-19.49
-6.14
4.76
12.96
18.69
22.41
24.67
25.92
26.57
26.91
27.20
27.63
28.34
29.42
30.87
32.62
34.60
36.69
38.80
40.83
42.66
44.08
44.86
44.76
43.69
41.70
39.03
36.06
33.17
30.63
28.50
26.62
24.67
22.36
19.47
16.02
12.21
8.40
4.94
2.03
-0.42
-2.65
-5.05
-7.91
-11.34
-15.24
-19.38
-23.49
-27.34
-30.93
-34.43
-38.23
-42.82
-48.64
-55.76
-63.69
-71.31
-77.14
-79.65
-77.82
-71.40
-61.04
-48.00
-33.83
-19.99
-7.54
2.85
10.95
16.78
20.55
22.65
23.52
23.65
23.54
23.58
24.03
25.02
26.50
28.38
30.54
32.90
35.41
37.96
40.41
42.59
44.28
45.30
45.51
44.82
43.23
40.85
37.95
34.84
31.85
29.14
26.66
24.17
21.40
18.19
14.62
10.97
7.55
4.55
1.87
-0.78
-3.78
-7.39
-11.62
-16.25
-20.95
-25.44
-29.63
-33.64
-37.78
-42.40
-47.79
-54.15
-61.42
-69.24
-76.82
-82.97
-86.31
-85.63
-80.32
-70.68
-57.86
-43.54
-29.43
-16.84
-6.51
1.35
6.82
10.13
11.60
11.60
10.65
9.34
8.26
7.88
8.45
10.04
12.59
16.00
20.13
24.80
29.69
34.39
38.44
41.53
43.48
44.37
44.37
43.67
42.47
40.83
38.84
36.55
34.08
31.54
29.02
26.58
24.23
21.96
19.77
17.69
15.66
13.54
11.07
7.96
4.09
-0.29
-4.45
-7.26
-7.55
-4.50
2.01
11.23
21.82
32.25
41.27
48.21
53.06
56.29
58.51
60.24
61.74
63.03
64.06
64.87
65.73
67.15
69.76
74.13
80.58
89.11
99.36
110.66
122.14
132.80
141.68
148.07
151.62
152.45
150.98
147.58
142.23
134.35
123.03
107.43
87.32
63.34
36.84
9.49
-17.39
-43.13
-67.78
-91.83
-115.76
-139.62
-162.66
-183.18
-198.75
-206.70
-204.93
-192.73
-171.26
-143.37
-112.84
-83.37
-57.61
-36.80
-20.98
-9.58
-1.99
2.12
3.00
1.11
-2.58
-6.46
-8.63
-7.49
-2.36
6.08
15.88
24.50
29.69
30.17
25.81
17.21
5.17
-9.65
-26.55
-44.39
-61.36
-75.37
-84.84
-89.27
-89.21
-85.52
-78.47
-67.52
-51.96
-31.93
-9.22
13.03
31.54
44.27
51.20
53.90
54.33
53.65
51.76
47.82
41.18
32.17
22.08
12.49
4.42
-2.21
-8.50
-15.97
-25.73
-37.89
-51.38
-64.35
-74.76
-81.07
-82.60
-79.51
-72.62
-62.98
-51.69
-39.68
-27.89
-17.22
-8.56
-2.66
0.08
-0.25
-3.11
-7.65
-12.96
-18.29
-23.21
-27.69
-32.07
-36.98
-43.17
-51.20
-61.04
-71.91
-82.34
-90.55
-95.10
-95.35
-91.72
-85.44
-78.02
-70.79
-64.59
-59.78
-56.38
-54.08
-52.29
-50.05
-46.32
-40.32
-31.97
-22.04
-11.83
-2.53
5.26
11.79
17.75
23.73
29.71
35.07
38.98
40.97
41.14
40.16
38.82
37.65
36.81
36.20
35.63
35.04
34.48
33.94
33.23
32.04
30.09
27.35
24.18
21.32
19.59
19.66
21.78
25.65
30.57
35.59
39.83
42.65
43.72
43.06
40.88
37.54
33.43
28.95
24.44
20.19
16.38
13.09
10.32
8.02
6.15
4.65
3.47
2.56
1.83
1.09
0.13
-1.27
-3.20
-5.64
-8.43
-11.35
-14.21
-16.91
-19.40
-21.68
-23.79
-25.91
-28.37
-31.57
-35.74
-40.72
-45.75
-49.58
-50.88
-48.75
-43.00
-34.28
-23.80
-12.92
-2.89
5.46
11.64
15.56
17.44
17.71
16.91
15.61
14.24
13.07
12.23
11.75
11.63
11.76
12.01
12.22
12.24
12.04
11.70
11.31
10.91
10.39
9.52
8.04
5.85
3.00
-0.19
-3.35
-6.12
-8.36
-10.15
-11.85
-13.87
-16.61
-20.23
-24.56
-29.04
-32.86
-35.06
-34.76
-31.48
-25.24
-16.68
-6.88
2.88
11.45
18.07
22.46
24.75
25.26
24.42
22.63
20.30
17.86
15.73
14.29
13.74
14.06
14.95
16.01
16.76
16.89
16.34
15.30
14.05
12.79
11.53
10.05
8.04
5.32
1.99
-1.60
-5.02
-7.95
-10.32
-12.33
-14.32
-16.63
-19.52
-23.06
-27.14
-31.33
-34.94
-37.04
-36.68
-33.27
-26.80
-17.95
-7.94
1.89
10.43
17.07
21.67
24.46
25.77
25.88
24.94
23.12
20.62
17.82
15.23
13.32
12.43
12.59
13.52
14.75
15.80
16.36
16.36
15.92
15.22
14.42
13.51
12.36
10.86
8.95
6.68
4.18
1.61
-0.93
-3.39
-5.80
-8.18
-10.55
-12.94
-15.41
-18.10
-21.21
-24.88
-29.02
-33.15
-36.42
-37.77
-36.32
-31.65
-24.02
-14.32
-3.82
6.18
14.69
21.14
25.39
27.59
28.12
27.39
25.81
23.79
21.67
19.74
18.20
17.15
16.60
16.49
16.67
16.97
17.28
17.51
17.61
17.51
17.07
16.10
14.45
12.12
9.33
6.43
3.76
1.57
-0.15
-1.61
-3.03
-4.62
-6.44
-8.46
-10.58
-12.69
-14.70
-16.57
-18.28
-19.95
-21.75
-23.94
-26.69
-29.92
-33.19
-35.73
-36.58
-34.92
-30.28
-22.83
-13.33
-2.99
6.85
15.04
20.90
24.34
25.66
25.41
24.10
22.16
19.88
17.52
15.32
13.59
12.52
12.15
12.36
12.88
13.45
13.92
14.25
14.43
14.43
14.14
13.42
12.20
10.52
8.54
6.52
4.69
3.12
1.77
0.44
-1.07
-2.88
-4.99
-7.28
-9.53
-11.55
-13.22
-14.53
-15.63
-16.77
-18.28
-20.46
-23.49
-27.27
-31.38
-35.04
-37.28
-37.19
-34.20
-28.30
-20.06
-10.53
-0.96
7.51
14.09
18.44
20.68
21.21
20.52
19.06
17.17
15.12
13.16
11.54
10.50
10.14
10.42
11.12
11.99
12.81
13.54
14.20
14.84
15.45
15.88
15.93
15.47
14.44
13.00
11.41
9.88
8.52
7.23
5.79
3.94
1.53
-1.38
-4.57
-7.74
-10.65
-13.20
-15.49
-17.77
-20.37
-23.48
-27.09
-30.79
-33.80
-35.17
-34.05
-29.98
-23.13
-14.29
-4.64
4.61
12.47
18.36
22.10
23.75
23.53
21.75
18.84
15.35
11.91
9.10
7.23
6.32
6.06
6.05
5.96
5.68
5.28
4.94
4.74
4.57
4.14
3.04
0.93
-2.37
-6.79
-11.94
-17.12
-21.38
-23.69
-23.15
-19.40
-12.97
-5.28
1.56
5.44
4.96
-0.06
-8.49
-18.46
-28.00
-35.67
-40.72
-42.92
-42.17
-38.37
-31.52
-21.96
-10.63
1.07
11.63
19.88
25.33
28.12
28.82
28.05
26.27
23.69
20.42
16.68
12.85
9.57
7.44
6.92
8.00
10.24
12.79
14.77
15.51
14.79
12.78
9.89
6.50
2.84
-1.08
-5.33
-9.92
-14.68
-19.33
-23.53
-27.11
-30.01
-32.37
-34.40
-36.39
-38.60
-41.20
-44.14
-47.02
-49.21
-49.89
-48.36
-44.21
-37.58
-29.01
-19.35
-9.52
-0.29
7.72
14.06
18.36
20.40
20.16
17.91
14.22
9.90
5.79
2.56
0.57
-0.20
-0.01
0.73
1.68
2.59
3.39
4.09
4.74
5.35
5.84
6.15
6.22
6.07
5.74
5.31
4.72
3.83
2.36
-0.04
-3.60
-8.34
-13.86
-19.30
-23.47
-25.11
-23.37
-18.08
-9.97
-0.35
9.23
17.50
23.76
27.87
30.02
30.51
29.60
27.53
24.62
21.34
18.24
15.79
14.27
13.74
14.10
15.15
16.71
18.58
20.52
22.24
23.37
23.59
22.71
20.75
18.01
14.96
12.08
9.67
7.72
5.86
3.52
0.10
-4.76
-11.07
-18.35
-25.80
-32.42
-37.28
-39.70
-39.43
-36.72
-32.21
-26.86
-21.69
-17.57
-15.09
-14.48
-15.65
-18.32
-22.05
-26.39
-30.87
-34.99
-38.33
-40.51
-41.25
-40.47
-38.17
-34.47
-29.56
-23.68
-17.16
-10.41
-3.82
2.27
7.67
12.29
16.13
19.14
21.23
22.24
22.06
20.62
17.95
14.16
9.60
4.83
0.74
-1.59
-1.18
2.51
9.36
18.54
28.73
38.55
46.83
52.85
56.34
57.33
56.11
53.04
48.58
43.24
37.55
31.98
26.95
22.73
19.52
17.39
16.15
15.53
15.07
14.39
13.28
11.78
10.13
8.66
7.57
6.86
6.30
5.47
3.89
1.11
-3.19
-9.10
-16.31
-24.00
-30.91
-35.52
-36.57
-33.46
-26.51
-16.94
-6.41
3.49
11.64
17.60
21.45
23.52
