1520862193.00
64.000000
-0.00
-0.00
-0.00
-0.00
-0.00
-0.00
-0.00
-0.00
-0.00
-0.00
0.00
0.01
0.01
-0.00
-0.03
-0.05
-0.05
0.00
0.13
0.36
0.66
1.01
1.37
1.72
2.06
2.40
2.79
3.24
3.80
4.42
5.06
5.66
6.20
6.68
7.15
7.68
8.31
9.14
10.09
11.04
11.88
12.56
13.14
13.76
14.65
15.96
17.91
20.32
22.90
25.38
27.58
29.57
31.68
34.32
37.81
42.54
48.15
54.10
59.83
64.97
69.58
74.14
79.34
85.71
93.76
103.00
112.62
121.73
129.77
136.75
143.30
150.75
157.77
166.64
177.95
191.79
206.97
220.57
228.25
225.36
208.53
176.87
132.76
80.05
23.07
-34.94
-92.44
-149.16
-205.23
-260.37
-313.74
-363.87
-409.83
-450.91
-486.50
-515.74
-537.23
-549.22
-549.96
-538.37
-514.21
-478.67
-433.88
-382.45
-327.02
-269.84
-212.63
-156.66
-102.95
-52.37
-5.90
35.58
71.43
101.35
125.50
144.38
158.69
169.15
176.37
180.75
182.57
182.07
179.51
175.23
169.65
163.18
156.15
148.81
141.30
133.69
126.02
118.33
110.69
103.16
95.80
88.68
81.83
75.25
68.95
62.95
57.25
51.86
46.78
42.03
37.59
33.45
29.61
26.07
22.81
19.83
17.11
14.67
12.48
10.54
8.83
7.35
6.07
4.97
4.05
3.27
2.62
2.09
1.65
1.30
1.01
0.79
0.61
0.47
0.37
0.29
0.23
0.19
0.16
0.15
0.14
0.15
0.17
0.19
0.21
0.25
0.29
0.33
0.37
0.41
0.46
0.51
0.55
0.61
0.66
0.72
0.78
0.84
0.92
0.99
1.08
1.18
1.29
1.41
1.55
1.70
1.87
2.06
2.27
2.50
2.76
3.05
3.36
3.71
4.09
4.50
4.95
5.43
5.96
6.52
7.12
7.77
8.46
9.19
9.98
10.80
11.67
12.59
13.55
14.57
15.66
16.81
18.02
19.28
20.57
21.83
23.02
24.02
24.74
25.05
24.82
23.97
22.40
20.12
17.13
13.50
9.38
4.95
0.41
-4.04
-8.17
-11.80
-14.80
-17.07
-18.56
-19.30
-19.38
-18.92
-18.07
-16.94
-15.65
-14.25
-12.74
-11.13
-9.39
-7.60
-5.81
-4.07
-2.40
-0.78
0.83
2.53
4.38
6.47
8.69
10.91
13.02
14.98
16.83
18.68
20.72
23.14
26.11
29.31
32.45
35.28
37.64
39.57
41.37
43.41
46.11
49.71
53.69
57.45
60.40
62.21
62.90
62.94
63.00
63.73
65.50
67.47
68.60
67.80
64.24
57.54
47.69
34.62
17.51
-0.45
-18.80
-37.83
-58.29
-81.10
-107.18
-136.90
-169.52
-202.61
-231.93
-253.09
-262.10
-257.14
-239.42
-212.82
-182.42
-152.64
-126.02
-103.03
-83.48
-66.81
-52.79
-41.46
-32.69
-25.80
-19.65
-13.11
-5.55
2.57
10.31
16.63
20.85
22.89
23.25
22.76
22.26
22.32
22.91
23.64
23.86
22.99
20.74
17.24
13.04
8.93
5.71
3.91
3.76
5.17
7.87
11.51
15.75
20.23
24.60
28.46
31.42
33.18
33.60
32.81
31.22
29.34
27.66
26.47
25.76
25.32
24.84
24.09
22.98
21.51
19.74
17.75
15.62
13.39
11.13
8.79
6.30
3.45
0.12
-3.72
-7.81
-11.65
-14.58
-15.98
-15.46
-12.96
-8.82
-3.65
1.86
7.05
11.51
15.02
17.56
19.16
19.84
19.65
18.72
17.33
15.88
14.79
14.33
14.47
14.90
15.18
14.96
14.13
12.86
11.38
9.94
8.53
6.99
5.03
2.40
-1.03
-5.17
-9.74
-14.32
-18.34
-21.25
-22.60
-22.14
-19.90
-16.21
-11.56
-6.49
-1.51
3.02
6.89
10.00
12.35
13.97
14.91
15.21
15.02
14.56
14.09
13.84
13.93
14.29
14.67
14.80
14.46
13.56
12.14
10.34
8.29
6.13
3.97
1.84
-0.37
-2.88
-6.00
-9.87
-14.36
-18.96
-22.87
-25.29
-25.60
-23.63
-19.62
-14.16
-7.97
-1.70
4.13
9.20
13.37
16.63
18.98
20.48
21.23
21.40
21.25
21.05
21.02
21.25
21.70
22.18
22.55
22.71
22.64
22.38
21.95
21.33
20.49
19.41
18.13
16.74
15.27
13.64
11.69
9.19
6.07
2.52
-0.88
-3.33
-4.05
-2.57
1.14
6.58
12.92
19.22
24.52
27.97
28.81
26.45
20.61
11.45
-0.30
-13.35
-26.06
-36.68
-43.73
-46.31
-44.23
-38.02
-28.79
-17.96
-7.01
2.71
10.13
14.61
16.01
14.79
11.90
8.51
5.60
3.56
2.10
0.48
-2.10
-6.07
-11.28
-17.12
-22.84
-27.77
-31.49
-33.78
-34.44
-33.28
-30.13
-25.09
-18.60
-11.47
-4.74
0.52
3.56
4.09
2.31
-1.25
-5.94
-11.22
-16.71
-22.16
-27.24
-31.44
-34.14
-34.73
-32.85
-28.60
-22.47
-15.20
-7.61
-0.34
6.20
11.91
16.88
21.37
25.65
29.86
33.97
37.72
40.72
42.58
43.12
42.38
40.73
38.77
37.16
36.49
37.14
39.12
42.12
45.53
48.59
50.50
50.63
48.65
44.69
39.38
33.72
28.85
25.71
24.69
25.60
27.77
30.40
32.83
34.68
35.79
36.08
35.42
33.72
30.98
27.42
23.37
19.18
15.01
10.76
6.08
0.53
-6.28
-14.46
-23.81
-33.81
-43.69
-52.66
-60.04
-65.52
-69.14
-71.31
-72.61
-73.54
-74.39
-75.17
-75.60
-75.27
-73.79
-70.91
-66.67
-61.36
-55.54
-49.86
-45.00
-41.39
-39.23
-38.37
-38.47
-39.03
-39.46
-39.20
-37.69
-34.47
-29.26
-22.09
-13.40
-4.04
4.94
12.58
18.25
21.75
23.30
23.27
22.01
19.80
16.92
13.79
11.01
9.33
9.36
11.42
15.34
20.54
26.25
31.83
36.92
41.48
45.59
49.20
51.96
53.39
53.03
50.79
47.04
42.59
38.46
35.50
34.16
34.40
35.71
37.38
38.74
39.29
38.87
37.60
35.80
33.84
32.01
30.40
28.99
27.66
26.18
24.32
21.76
18.15
13.26
7.05
-0.07
-7.34
-13.72
-18.22
-20.31
-20.10
-18.35
-16.22
-14.79
-14.77
-16.28
-18.95
-22.11
-25.06
-27.28
-28.49
-28.60
-27.75
-26.25
-24.45
-22.68
-21.18
-20.00
-19.08
-18.32
-17.65
-17.09
-16.65
-16.27
-15.80
-15.04
-13.84
-12.32
-10.80
-9.78
-9.66
-10.57
-12.26
-14.13
-15.44
-15.49
-13.86
-10.47
-5.61
0.17
6.24
11.98
16.96
20.85
23.53
25.01
25.40
24.96
24.04
23.01
22.17
21.70
21.57
21.62
21.59
21.29
20.58
19.41
17.82
15.85
13.59
11.10
8.42
5.60
2.63
-0.58
-4.17
-8.34
-13.22
-18.74
-24.52
-29.91
-34.14
-36.61
-37.08
-35.76
-33.19
-30.01
-26.73
-23.63
-20.82
-18.41
-16.52
-15.35
-14.99
-15.32
-16.06
-16.81
-17.22
-17.14
-16.60
-15.71
-14.58
-13.26
-11.80
-10.25
-8.80
-7.71
-7.26
-7.55
-8.57
-10.14
-12.16
-14.59
-17.54
-21.04
-24.89
-28.49
-30.96
-31.46
-29.48
-25.05
-18.82
-11.74
-4.81
1.25
6.12
9.81
12.55
14.61
16.16
17.29
18.03
18.40
18.44
18.29
18.05
17.85
17.72
17.66
17.64
17.62
17.57
17.45
17.14
16.49
15.29
13.38
10.61
6.88
2.16
-3.50
-9.95
-16.90
-23.87
-30.28
-35.49
-38.90
-40.15
-39.16
-36.11
-31.38
-25.42
-18.67
-11.49
-4.21
2.77
9.03
14.21
18.07
20.63
22.16
23.08
23.79
24.53
25.40
26.38
27.38
28.33
29.15
29.74
30.00
29.87
29.30
28.32
26.97
25.24
23.08
20.47
17.43
14.10
10.70
7.39
4.20
0.97
-2.59
-6.81
-11.86
-17.68
-23.88
-29.84
-34.76
-37.91
-38.78
-37.25
-33.59
-28.37
-22.31
-16.06
-10.02
-4.38
0.84
5.66
10.08
13.98
17.19
19.61
21.23
22.23
22.86
23.40
24.00
24.70
25.37
25.88
26.15
26.25
26.31
26.44
26.65
26.75
26.48
25.55
23.78
21.15
17.86
14.14
10.26
6.37
2.57
-1.13
-4.79
-8.52
-12.54
-17.07
-22.28
-28.16
-34.43
-40.50
-45.55
-48.69
-49.33
-47.24
-42.73
-36.50
-29.39
-22.11
-15.11
-8.54
-2.40
3.32
8.51
12.98
16.56
19.21
21.05
22.31
23.20
23.82
24.11
23.86
22.80
20.72
17.59
13.66
9.41
5.44
2.25
0.05
-1.24
-2.02
-2.81
-4.01
-5.84
-8.28
-11.13
-14.10
-16.95
-19.49
-21.71
-23.73
-25.80
-28.20
-31.19
-34.85
-39.00
-43.21
-46.75
-48.80
-48.64
-45.89
-40.68
-33.62
-25.60
-17.54
-10.12
-3.66
1.85
6.61
10.86
14.80
18.52
22.05
25.38
28.49
31.37
34.00
36.37
38.45
40.16
41.43
42.16
42.35
42.01
41.19
39.83
37.81
34.93
31.13
26.49
21.36
16.13
11.18
6.68
2.64
-1.05
-4.41
-7.47
-10.26
-12.93
-15.76
-19.14
-23.27
-28.06
-33.01
-37.26
-39.89
-40.13
-37.66
-32.67
-25.75
-17.81
-9.71
-2.18
4.36
9.75
13.98
17.18
19.49
21.12
22.25
23.16
24.04
25.08
26.27
27.47
28.40
28.84
28.64
27.82
26.55
24.97
23.23
21.37
19.43
17.39
15.28
13.10
10.84
8.51
6.14
3.86
1.81
0.07
-1.43
-2.87
-4.56
-6.76
-9.57
-12.89
-16.52
-20.10
-23.25
-25.57
-26.65
-26.12
-23.83
-19.87
-14.68
-8.89
-3.19
1.85
5.92
8.95
11.04
12.37
13.11
13.40
13.46
13.50
13.76
14.41
15.50
16.90
18.34
19.49
20.07
19.97
19.29
18.24
17.04
15.82
14.55
13.11
11.40
9.38
7.15
4.83
2.49
0.16
-2.23
-4.74
-7.34
-10.01
-12.73
-15.57
-18.59
-21.80
-24.98
-27.66
-29.24
-29.13
-27.05
-23.12
-17.83
-11.89
-5.98
-0.55
4.14
7.99
10.92
12.87
13.83
13.93
13.49
12.94
12.67
12.91
13.60
14.53
15.37
15.88
16.01
15.82
15.53
15.31
15.18
14.98
14.38
13.02
10.73
7.65
4.21
0.97
-1.61
-3.44
-4.71
-5.83
-7.13
-8.78
-10.81
-13.19
-15.90
-18.91
-22.05
-24.90
-26.84
-27.24
-25.72
-22.33
-17.56
-12.15
-6.86
-2.22
1.54
4.38
6.42
7.74
8.46
8.69
8.61
8.42
8.38
8.65
9.32
10.30
11.42
12.44
13.12
13.32
13.01
12.32
11.47
10.69
10.09
9.61
9.03
8.10
6.68
4.81
2.74
0.77
-0.89
-2.23
-3.39
-4.65
-6.27
-8.40
-11.03
-14.09
-17.34
-20.46
-23.01
-24.51
-24.59
-23.08
-20.11
-16.04
-11.39
-6.59
-1.88
2.72
7.31
11.87
16.07
19.15
20.14
18.13
12.68
4.07
-6.77
-18.39
-29.28
-38.16
-44.21
-47.16
-47.28
-45.24
-41.94
-38.20
-34.61
-31.36
-28.36
-25.40
-22.42
-19.58
-17.16
-15.46
-14.63
-14.73
-15.78
-17.83
-20.91
-24.95
-29.64
-34.41
-38.61
-41.63
-43.10
-42.90
-41.12
-37.99
-33.78
-28.70
-22.91
-16.52
-9.66
-2.51
4.64
11.45
17.56
22.72
26.80
29.88
32.17
34.04
35.89
38.07
40.83
44.20
48.00
51.95
55.83
59.64
63.61
68.10
73.36
79.31
85.59
91.74
97.41
102.60
107.64
113.02
119.18
126.35
134.49
143.26
152.05
159.96
165.85
168.56
167.33
162.16
153.88
143.82
133.26
122.97
112.90
102.47
90.95
77.88
63.34
47.81
32.02
16.63
2.10
-11.45
-24.03
-35.76
-46.70
-56.75
-65.79
-73.78
-80.88
-87.51
-94.12
-100.94
-107.74
-113.86
-118.53
-121.16
-121.72
-120.60
-118.56
-116.28
-114.18
-112.35
-110.51
-108.27
-105.20
-100.98
-95.51
-88.92
-81.55
-73.88
-66.48
-59.92
-54.73
-51.40
-50.30
-51.53
-54.84
-59.56
-64.62
-68.82
-71.07
-70.77
-67.87
-62.92
-56.83
-50.58
-44.96
-40.48
-37.39
-35.69
-35.26
-35.86
-37.15
-38.73
-40.19
-41.24
-41.74
-41.72
-41.28
-40.55
-39.54
-38.23
-36.60
-34.63
-32.41
-30.08
-27.89
-26.13
-25.14
-25.12
-26.01
-27.43
-28.79
-29.48
-29.18
-27.98
-26.41
-25.18
-24.92
-25.99
-28.37
-31.70
-35.45
-38.95
-41.56
-42.76
-42.24
-39.94
-36.12
-31.17
-25.58
-19.83
-14.36
-9.63
-6.04
-3.87
-3.11
-3.48
-4.38
-5.17
-5.28
-4.32
-2.05
1.73
7.14
14.22
22.79
32.47
42.66
52.73
62.08
70.30
77.14
82.42
86.07
88.05
88.44
87.45
85.39
82.63
79.39
75.70
71.38
66.18
60.04
53.38
47.09
42.38
40.29
41.21
44.66
49.43
54.01
57.10
57.87
56.02
51.60
44.84
36.16
26.18
15.77
5.98
-2.22
-8.20
-11.81
-13.35
-13.38
-12.47
-11.09
-9.53
-8.07
-6.99
-6.63
-7.27
-9.01
-11.70
-15.00
-18.47
-21.79
-24.84
-27.66
-30.38
-33.07
-35.69
-38.08
-40.02
-41.20
-41.26
-39.88
-36.82
-32.13
-26.21
-19.82
-13.90
-9.30
-6.52
-5.61
-6.26
-8.02
-10.50
-13.40
-16.44
-19.26
-21.41
-22.46
-22.28
-21.10
-19.50
-18.18
-17.65
-18.00
-19.00
-20.21
-21.26
-21.97
-22.34
-22.44
-22.35
-22.11
-21.77
-21.44
-21.27
-21.33
-21.62
-21.97
-22.06
-21.56
-20.17
-17.77
-14.44
-10.44
-6.14
-1.97
1.75
4.81
7.10
8.64
9.44
9.56
9.08
8.17
7.12
6.27
5.93
6.22
7.09
8.28
9.51
10.61
11.55
12.39
13.19
13.86
14.21
13.98
13.05
11.44
9.42
7.27
5.18
3.21
1.25
-0.75
-2.72
-4.38
-5.33
-5.23
-3.97
-1.77
0.98
3.79
6.30
8.34
9.85
10.82
11.21
10.97
10.08
8.63
6.87
5.14
3.76
2.98
2.83
3.13
3.61
3.95
3.91
3.45
2.61
1.58
0.51
-0.49
-1.42
-2.40
-3.67
-5.48
-8.04
-11.34
-15.09
-18.73
-21.52
-22.78
-22.06
-19.26
-14.68
-8.88
-2.55
3.69
9.35
14.22
18.26
21.54
24.12
26.00
27.18
27.68
27.67
27.39
27.12
27.06
27.19
27.36
27.30
26.78
25.72
24.14
22.17
19.94
17.54
14.99
12.28
9.42
6.43
3.31
0.08
-3.24
-6.49
-9.32
-11.23
-11.68
-10.34
-7.24
-2.79
2.35
7.45
11.97
15.57
18.05
19.33
19.38
18.33
16.52
14.48
12.77
11.76
11.55
11.94
12.54
12.96
12.98
12.52
11.64
10.49
9.16
7.72
6.18
4.52
2.67
0.46
-2.28
-5.69
-9.71
-13.98
-17.88
-20.67
-21.66
-20.54
-17.45
-12.92
-7.72
-2.53
2.15
6.05
9.08
11.21
12.44
12.81
12.47
11.71
10.90
10.35
10.25
10.62
11.32
12.17
12.93
13.40
13.43
12.94
11.91
10.44
8.61
6.46
3.95
0.93
-2.70
-6.92
-11.43
-15.72
-19.10
-20.91
-20.76
-18.61
-14.82
-10.00
-4.83
0.10
4.42
7.94
10.63
12.46
13.43
13.58
13.05
12.12
11.15
10.51
10.39
10.75
11.34
11.83
11.93
11.49
10.55
9.27
7.81
6.24
4.52
2.55
0.14
-2.86
-6.51
-10.78
-15.43
-20.07
-24.07
-26.74
-27.49
-26.03
-22.52
-17.56
-11.99
-6.57
-1.84
2.05
5.15
7.58
9.37
10.49
10.96
10.92
10.68
10.60
10.93
11.72
12.75
13.71
14.30
14.32
13.78
12.84
11.72
10.62
9.57
8.44
6.94
4.77
1.74
-2.07
-6.43
-10.98
-15.38
-19.35
-22.61
-24.80
-25.44
-24.12
-20.76
-15.68
-9.67
-3.62
1.67
5.80
8.78
10.83
12.20
13.03
13.38
13.36
13.15
13.05
13.30
13.99
14.99
15.99
16.64
16.71
16.10
14.93
13.36
11.64
9.92
8.29
6.72
5.08
3.16
0.77
-2.33
-6.23
-10.89
-16.01
-20.99
-25.06
-27.40
-27.46
-25.08
-20.54
-14.53
-7.92
-1.56
3.92
8.20
11.23
13.20
14.37
14.99
15.24
15.25
15.14
15.04
15.10
15.39
15.93
16.65
17.39
18.00
18.32
18.18
17.40
15.85
13.50
10.52
7.21
3.93
0.93
-1.77
-4.36
-7.12
-10.30
-14.02
-18.14
-22.33
-26.17
-29.08
-30.54
-30.14
-27.74
-23.48
-17.83
-11.43
-4.99
0.86
5.66
9.15
11.29
12.25
12.34
12.00
11.62
11.56
12.00
12.98
14.42
16.11
17.79
19.19
20.10
20.44
20.24
19.63
18.67
17.38
15.69
13.52
10.85
7.80
4.56
1.38
-1.59
-4.32
-6.97
-9.83
-13.22
-17.29
-21.87
-26.37
-29.90
-31.50
-30.55
-26.97
-21.30
-14.46
-7.43
-0.99
4.45
8.79
12.08
14.43
15.89
16.57
16.61
16.23
15.76
15.49
15.68
16.45
17.74
19.31
20.83
22.00
22.64
22.78
22.56
22.10
21.42
20.33
18.53
15.83
12.31
8.30
4.30
0.80
-2.00
-4.15
-5.94
-7.74
-9.86
-12.47
-15.63
-19.25
-23.07
-26.66
-29.39
-30.62
-29.85
-26.92
-22.06
-15.87
-9.11
-2.55
3.19
7.70
10.79
12.50
13.04
12.80
12.26
11.86
11.91
12.53
13.66
15.10
16.60
17.92
18.88
19.36
19.39
19.08
18.59
18.05
17.44
16.63
15.39
13.58
11.20
8.46
5.61
2.91
0.44
-1.88
-4.27
-6.96
-10.15
-13.97
-18.38
-23.09
-27.54
-31.02
-32.74
-32.19
-29.25
-24.27
-17.98
-11.24
-4.80
0.82
5.36
8.77
11.07
12.37
12.82
12.70
12.35
12.16
12.41
13.24
14.54
16.01
17.27
18.07
18.33
18.16
17.78
17.31
16.73
15.85
14.47
12.49
9.97
7.14
4.26
1.51
-1.09
-3.64
-6.33
-9.33
-12.69
-16.39
-20.32
-24.26
-27.91
-30.82
-32.51
-32.51
-30.56
-26.71
-21.42
-15.38
-9.35
-3.94
0.55
4.08
6.77
8.73
10.02
10.67
10.81
10.68
10.62
10.94
11.81
13.16
14.72
16.19
17.29
17.90
18.02
17.72
17.05
16.03
14.65
12.88
10.70
8.13
5.26
2.19
-0.92
-3.94
-6.82
-9.64
-12.60
-15.94
-19.83
-24.15
-28.48
-32.12
-34.28
-34.32
-31.98
-27.49
-21.43
-14.62
-7.87
-1.78
3.23
7.03
9.61
11.10
11.71
11.72
11.43
11.15
11.12
11.46
12.16
13.04
13.85
14.37
14.54
14.42
14.17
13.93
13.68
13.24
12.37
10.82
8.57
5.77
2.71
-0.32
-3.14
-5.72
-8.19
-10.73
-13.52
-16.69
-20.28
-24.23
-28.28
-32.00
-34.80
-36.07
-35.30
-32.32
-27.31
-20.89
-13.85
-7.03
-1.07
3.63
7.01
9.17
10.32
10.69
10.47
9.91
9.32
9.08
9.51
10.72
12.56
14.60
16.34
17.37
17.64
17.27
16.56
15.70
14.72
13.44
11.65
9.27
6.36
3.15
-0.11
-3.20
-5.97
-8.44
-10.77
-13.22
-16.08
-19.59
-23.69
-28.06
-32.03
-34.82
-35.73
-34.38
-30.79
-25.40
-18.90
-12.09
-5.67
-0.18
4.10
7.09
8.93
9.87
10.25
10.39
10.59
11.03
11.74
12.67
13.67
14.60
15.34
15.85
16.13
16.21
16.09
15.75
15.13
14.14
12.70
10.83
8.62
6.19
3.71
1.24
-1.21
-3.78
-6.63
-9.92
-13.72
-17.93
-22.25
-26.14
-28.95
-30.05
-29.00
-25.77
-20.76
-14.72
-8.50
-2.78
2.02
5.81
8.72
10.89
12.44
13.41
13.88
14.00
14.01
14.18
14.67
15.46
16.38
17.16
17.55
17.48
16.98
16.18
15.15
13.86
12.22
10.14
7.61
4.77
1.83
-1.03
-3.74
-6.34
-9.05
-12.09
-15.68
-19.89
-24.57
-29.27
-33.34
-35.99
-36.53
-34.61
-30.34
-24.31
-17.35
-10.35
-3.95
1.51
5.97
9.47
12.05
13.73
14.57
14.74
14.62
14.63
15.12
16.17
17.56
18.86
19.73
20.00
19.74
19.20
18.57
17.86
16.96
15.66
13.81
11.44
8.69
5.75
2.79
-0.13
-3.05
-6.12
-9.53
-13.47
-18.01
-23.00
-28.02
-32.49
-35.75
-37.23
-36.61
-33.93
-29.51
-23.92
-17.79
-11.72
-6.09
-1.11
3.15
6.66
9.41
11.36
12.58
13.20
13.50
13.80
14.37
15.35
16.73
18.31
19.84
21.04
21.74
21.83
21.36
20.44
19.12
17.42
15.28
12.64
9.52
6.10
2.59
-0.76
-3.86
-6.76
-9.71
-13.00
-16.86
-21.30
-26.10
-30.77
-34.63
-37.03
-37.46
-35.75
-32.03
-26.77
-20.62
-14.18
-7.93
-2.15
2.99
7.35
10.77
13.13
14.43
14.84
14.78
14.69
14.99
15.83
17.09
18.45
19.58
20.29
20.63
20.79
20.92
21.02
20.88
20.16
18.52
15.86
12.38
8.52
4.78
1.50
-1.27
-3.71
-6.15
-8.93
-12.26
-16.19
-20.65
-25.41
-30.06
-34.03
-36.66
-37.36
-35.80
-32.04
-26.56
-20.15
-13.63
-7.64
-2.56
1.53
4.71
7.04
8.57
9.33
9.48
9.38
9.45
10.09
11.43
13.30
15.27
16.87
17.82
18.07
17.80
17.28
16.69
16.04
15.11
13.68
11.57
8.77
5.50
2.08
-1.19
-4.16
-6.84
-9.39
-12.00
-14.84
-17.99
-21.48
-25.22
-28.94
-32.19
-34.38
-34.90
-33.36
-29.76
-24.52
-18.37
-12.08
-6.29
-1.36
2.59
5.55
7.59
8.81
9.40
9.62
9.77
10.08
10.67
11.43
12.22
12.87
13.31
13.50
13.44
13.05
12.28
11.09
9.60
8.01
6.57
5.39
4.45
3.59
2.60
1.32
-0.34
-2.42
-4.97
-8.06
-11.74
-15.88
-20.13
-23.86
-26.29
-26.69
-24.73
-20.59
-14.98
-8.90
-3.28
1.29
4.70
7.19
9.14
10.79
12.21
13.34
14.15
14.73
15.30
16.10
17.25
18.68
20.12
21.26
21.82
21.71
20.97
19.73
18.16
16.32
14.25
11.94
9.42
6.77
4.10
1.48
-1.11
-3.79
-6.76
-10.17
-13.99
-17.94
-21.43
-23.72
-24.13
-22.31
-18.38
-12.91
-6.73
-0.65
4.73
9.11
12.41
14.69
16.02
16.51
16.35
15.82
15.26
14.92
14.89
15.07
15.32
15.45
15.42
15.25
15.00
14.68
14.22
13.53
12.47
10.95
8.90
6.27
3.11
-0.45
-4.12
-7.64
-10.82
-13.73
-16.65
-19.97
-23.88
-28.18
-32.27
-35.30
-36.44
-35.21
-31.63
-26.15
-19.54
-12.60
-6.05
-0.39
4.14
7.50
9.84
11.39
12.40
13.07
13.60
14.09
14.65
15.35
16.25
17.31
18.38
19.27
19.75
19.72
19.20
18.29
17.09
15.64
13.87
11.72
9.17
6.34
3.40
0.52
-2.25
-4.99
-7.90
-11.14
-14.82
-18.92
-23.26
-27.54
-31.25
-33.78
-34.50
-32.99
-29.24
-23.74
-17.30
-10.82
-4.97
-0.04
4.03
7.46
10.42
12.91
14.86
16.29
17.31
18.22
19.30
20.69
22.31
23.92
25.25
26.17
26.73
27.09
27.40
27.67
27.68
27.13
25.74
23.44
20.36
16.82
13.12
9.47
5.93
2.39
-1.31
-5.37
-9.95
-15.15
-20.88
-26.87
-32.59
-37.32
-40.28
-40.85
-38.79
-34.32
-28.15
-21.23
-14.58
-8.93
-4.60
-1.46
0.82
2.60
4.12
5.37
6.34
7.06
7.72
8.57
9.75
11.19
12.57
13.49
13.70
13.22
12.36
11.46
10.77
10.26
9.64
8.61
6.95
4.74
2.22
-0.25
-2.48
-4.42
-6.30
-8.43
-11.16
-14.70
-19.04
-23.93
-28.92
-33.38
-36.64
-38.12
-37.42
-34.42
-29.38
-22.87
-15.72
-8.77
-2.71
2.06
5.44
7.60
8.80
9.36
9.58
9.72
10.00
10.54
11.40
12.51
13.73
14.89
15.82
16.38
16.46
16.00
15.00
13.51
11.62
9.44
7.05
4.49
1.80
-0.90
-3.47
-5.79
-7.85
-9.78
-11.83
-14.29
-17.37
-21.11
-25.37
-29.71
-33.53
-36.13
-36.90
-35.51
-32.05
-27.02
-21.16
-15.26
-9.90
-5.43
-1.92
0.73
2.63
3.95
4.84
5.46
5.94
6.39
6.87
7.41
8.11
9.00
10.10
11.33
12.51
13.42
13.85
13.67
12.85
11.47
9.63
7.46
5.10
2.69
0.39
-1.70
-3.53
-5.24
-7.05
-9.28
-12.11
-15.51
-19.11
-22.23
-24.06
-23.95
-21.58
-17.15
-11.28
-4.81
1.43
6.76
10.84
13.58
15.07
15.52
15.18
14.31
13.24
12.27
11.71
11.73
12.34
13.33
14.33
14.96
14.97
14.32
13.17
11.81
10.45
9.14
7.78
6.19
4.23
1.91
-0.64
-3.26
-5.90
-8.63
-11.62
-14.95
-18.46
-21.69
-23.94
-24.49
-22.97
-19.38
-14.22
-8.27
-2.36
2.86
6.93
9.68
11.15
11.59
11.37
10.95
10.65
10.65
10.92
11.33
11.72
12.04
12.34
12.64
12.95
13.19
13.23
12.95
12.23
10.98
9.13
6.71
3.79
0.61
-2.55
-5.43
-7.93
-10.12
-12.27
-14.64
-17.46
-20.60
-23.64
-25.91
-26.70
-25.53
-22.35
-17.55
-11.82
-5.93
-0.51
4.11
7.73
10.36
12.04
12.90
13.12
12.98
12.73
12.61
12.72
13.08
13.62
14.18
14.58
14.62
14.22
13.36
12.15
10.70
9.07
7.24
5.10
2.59
-0.23
-3.13
-5.83
-8.16
-10.20
-12.30
-14.88
-18.24
-22.32
-26.59
-30.21
-32.25
-32.08
-29.54
-25.04
-19.35
-13.34
-7.72
-2.89
1.07
4.21
6.63
8.41
9.61
10.31
10.66
10.78
10.80
10.82
10.89
11.03
11.29
11.61
11.92
12.09
11.96
11.43
10.46
9.04
7.17
4.88
2.29
-0.40
-2.91
-5.05
-6.81
-8.47
-10.46
-13.18
-16.78
-20.97
-25.17
-28.57
-30.43
-30.26
-27.93
-23.68
-18.09
-11.89
-5.87
-0.66
3.39
6.23
8.06
9.18
9.85
10.24
10.43
10.49
10.55
10.77
11.28
12.09
13.06
13.96
14.55
14.67
14.27
13.36
11.98
10.17
8.00
5.57
3.08
0.73
-1.41
-3.36
-5.39
-7.82
-10.97
-14.94
-19.53
-24.18
-28.14
-30.60
-30.90
-28.76
-24.35
-18.29
-11.49
-4.89
0.80
5.17
8.21
10.11
11.16
11.64
11.77
11.73
11.63
11.56
11.59
11.75
12.08
12.57
13.21
13.89
14.43
14.62
14.27
13.33
11.88
10.06
8.03
5.85
3.49
0.82
-2.20
-5.58
-9.27
-13.17
-17.21
-21.25
-25.04
-28.15
-30.03
-30.09
-28.01
-23.85
-18.17
-11.84
-5.79
-0.70
3.12
5.78
7.58
8.78
9.49
9.71
9.47
8.91
8.37
8.19
8.61
9.58
10.83
11.97
12.67
12.81
12.41
11.58
10.41
8.97
7.26
5.33
3.23
1.05
-1.19
-3.56
-6.23
-9.41
-13.17
-17.30
-21.23
-24.19
-25.42
-24.40
-21.14
-16.11
-10.15
-4.16
1.13
5.32
8.34
10.28
11.30
11.53
11.10
10.17
9.01
7.98
7.45
7.64
8.55
9.91
11.29
12.23
12.42
11.77
10.37
8.45
6.23
3.90
1.58
-0.68
-2.86
-5.09
-7.54
-10.39
-13.75
-17.51
-21.33
-24.63
-26.71
-26.99
-25.18
-21.38
-16.10
-10.06
-4.00
1.48
6.02
9.50
11.90
13.33
13.86
13.70
13.12
12.43
11.94
11.78
11.94
12.26
12.57
12.75
12.77
12.63
12.33
11.76
10.80
9.39
7.55
5.41
3.11
0.72
-1.77
-4.47
-7.51
-10.98
-14.91
-19.16
-23.40
-27.10
-29.59
-30.23
-28.64
-24.84
-19.28
-12.75
-6.14
-0.17
4.75
8.46
11.09
12.86
14.01
14.79
15.36
15.77
15.99
15.98
15.70
15.24
14.80
14.52
14.45
14.44
14.23
13.56
12.28
10.43
8.15
5.66
3.15
0.74
-1.50
-3.63
-5.79
-8.24
-11.24
-14.92
-19.12
-23.36
-26.88
-28.88
-28.75
-26.32
-21.88
-16.08
-9.73
-3.56
1.88
6.30
9.62
11.89
13.26
13.92
14.11
14.05
13.94
13.89
13.98
14.20
14.56
15.05
15.61
16.11
16.37
16.25
15.67
14.67
13.35
11.78
9.94
7.77
5.18
2.22
-0.99
-4.27
-7.54
-10.84
-14.29
-18.01
-21.86
-25.43
-28.06
-29.06
-28.01
-24.90
-20.18
-14.53
-8.67
-3.13
1.85
6.13
9.63
12.24
13.87
14.49
14.29
13.63
12.98
12.71
13.04
13.94
15.18
16.46
17.47
17.99
17.96
17.43
16.51
15.34
13.98
12.41
10.59
8.44
5.99
3.30
0.41
-2.72
-6.21
-10.20
-14.70
-19.49
-24.10
-27.83
-30.04
-30.26
-28.39
-24.72
-19.85
-14.51
-9.42
-5.08
-1.73
0.65
2.21
3.20
3.84
4.31
4.77
5.37
6.21
7.33
8.69
10.11
11.42
12.44
13.08
13.33
13.27
12.94
12.36
11.50
10.32
8.79
6.98
4.96
2.82
0.56
-1.90
-4.72
-7.96
-11.52
-15.06
-18.03
-19.80
-19.87
-18.00
-14.31
-9.25
-3.52
2.11
6.89
10.34
12.19
12.48
11.44
9.42
6.83
4.03
1.39
-0.72
-2.00
-2.25
-1.46
0.14
2.11
3.91
5.06
5.30
4.64
3.38
1.90
0.53
-0.62
-1.67
-2.94
-4.75
-7.29
-10.54
-14.34
-18.36
-22.22
-25.47
-27.60
-28.10
-26.61
-23.05
-17.75
-11.40
-4.84
1.17
6.16
9.97
12.70
14.54
15.69
16.25
16.35
16.10
15.70
15.41
15.45
15.95
16.84
17.89
18.72
18.99
18.50
17.32
15.70
13.96
12.29
10.69
8.98
6.94
4.42
1.40
-2.05
-5.84
-9.87
-13.95
-17.71
-20.56
-21.82
-20.91
-17.69
-12.45
-5.97
0.79
6.95
11.97
15.64
18.12
19.71
20.65
21.07
21.02
20.51
19.62
18.56
17.61
16.97
16.76
16.89
17.15
17.27
17.08
16.46
15.41
13.95
12.08
9.85
7.30
4.52
1.62
-1.34
-4.39
-7.61
-11.18
-15.19
-19.54
-23.93
-27.76
-30.40
-31.26
-30.07
-26.90
-22.24
-16.76
-11.17
-6.03
-1.62
2.01
4.94
7.26
9.01
10.18
10.73
10.75
10.40
9.96
9.69
9.82
10.41
11.35
12.37
13.19
13.54
13.28
12.38
10.89
8.90
6.48
3.73
0.75
-2.30
-5.26
-8.03
-10.68
-13.46
-16.68
-20.51
-24.87
-29.29
-33.10
-35.53
-35.98
-34.22
-30.39
-25.04
-18.92
-12.85
-7.49
-3.24
-0.17
1.89
3.26
4.18
4.81
5.16
5.27
5.26
5.31
5.63
6.26
7.12
7.96
8.55
8.71
8.39
7.65
6.50
4.95
2.99
0.63
-2.00
-4.70
-7.24
-9.48
-11.49
-13.51
-15.89
-18.92
-22.67
-26.83
-30.75
-33.64
-34.77
-33.74
-30.57
-25.68
-19.74
-13.49
-7.54
-2.34
1.84
4.90
6.82
7.73
7.83
7.41
6.85
6.50
6.65
7.39
8.60
10.01
11.33
12.37
13.02
13.28
13.15
12.60
11.55
10.00
8.03
5.82
3.61
1.52
-0.47
-2.56
-5.02
-8.04
-11.61
-15.41
-18.89
-21.38
-22.24
-21.15
-18.16
-13.70
-8.43
-3.06
1.91
6.16
9.60
12.18
13.85
14.58
14.42
13.55
12.35
11.23
10.56
10.52
11.14
12.24
13.57
14.84
15.74
16.03
15.59
14.40
12.58
10.32
7.79
5.13
2.39
-0.44
-3.43
-6.66
-10.15
-13.79
-17.26
-20.05
-21.58
-21.39
-19.30
-15.50
-10.48
-4.89
0.66
5.63
9.70
12.67
14.46
15.11
14.78
13.75
12.35
10.95
9.88
9.39
9.54
10.21
11.09
11.78
11.92
11.31
9.96
8.09
5.96
3.82
1.79
-0.16
-2.15
-4.39
-7.09
-10.40
-14.37
-18.84
-23.36
-27.22
-29.63
-29.88
-27.64
-23.06
-16.84
-9.95
-3.38
2.13
6.24
9.02
10.75
11.77
12.32
12.50
12.37
12.00
11.57
11.34
11.53
12.19
13.08
13.80
13.94
13.28
11.86
9.99
7.99
6.14
4.43
2.72
0.74
-1.67
-4.64
-8.20
-12.30
-16.83
-21.44
-25.59
-28.52
-29.49
-28.10
-24.41
-19.05
-12.92
-6.90
-1.54
2.96
6.67
9.72
12.13
13.84
14.75
14.95
14.67
14.25
13.98
13.96
14.14
14.33
14.39
14.26
13.94
13.46
12.80
11.87
10.57
8.83
6.69
4.24
1.63
-1.04
-3.74
-6.63
-9.85
-13.53
-17.56
-21.62
-25.11
-27.37
-27.78
-26.02
-22.20
-16.76
-10.47
-4.11
1.63
6.36
9.97
12.56
14.36
15.59
16.41
16.92
17.21
17.39
17.60
17.95
18.49
19.17
19.81
20.20
20.19
19.69
18.78
17.55
16.12
14.53
12.76
10.79
8.69
6.60
4.65
2.89
1.08
-1.12
-4.10
-7.96
-12.39
-16.67
-19.82
-20.97
-19.68
-16.08
-10.81
-4.82
0.97
5.90
9.68
12.35
14.07
15.02
15.30
15.00
14.27
13.37
12.60
12.22
12.28
12.66
13.10
13.33
13.21
12.70
11.88
10.78
9.40
7.71
5.66
3.31
0.80
-1.70
-4.06
-6.24
-8.33
-10.50
-12.93
-15.77
-19.06
-22.73
-26.60
-30.37
-33.59
-35.77
-36.39
-35.09
-31.75
-26.59
-20.16
-13.21
-6.49
-0.61
4.09
7.45
9.58
10.68
11.04
10.97
10.82
10.87
11.35
12.35
13.80
15.46
17.00
18.05
18.40
18.00
16.98
15.53
13.77
11.77
9.44
6.74
3.72
0.59
-2.41
-5.12
-7.57
-10.01
-12.74
-15.96
-19.67
-23.61
-27.30
-30.22
-31.89
-31.95
-30.19
-26.69
-21.71
-15.78
-9.54
-3.61
1.51
5.53
8.39
10.19
11.14
11.50
11.51
11.38
11.29
11.32
11.51
11.85
12.33
12.88
13.41
13.78
13.84
13.46
12.62
11.39
9.84
8.06
6.07
3.89
1.54
-0.90
-3.36
-5.83
-8.42
-11.31
-14.59
-18.18
-21.72
-24.58
-26.12
-25.82
-23.49
-19.33
-13.84
-7.73
-1.66
3.83
8.38
11.78
14.00
15.09
15.20
14.62
13.67
12.72
12.07
11.86
12.10
12.66
13.30
13.81
14.01
13.78
13.03
11.79
10.11
8.13
6.01
3.87
1.72
-0.49
-2.91
-5.71
-8.99
-12.80
-16.99
-21.30
-25.26
-28.29
-29.83
-29.47
-27.07
-22.86
-17.42
-11.47
-5.71
-0.70
3.27
6.12
7.93
8.86
9.10
8.84
8.33
7.84
7.61
7.82
8.56
9.73
11.15
12.56
13.71
14.38
14.38
13.64
12.21
10.28
8.07
5.82
3.60
1.38
-0.93
-3.45
-6.24
-9.38
-12.95
-17.00
-21.43
-25.86
-29.59
-31.81
-31.84
-29.46
-24.94
-19.06
-12.77
-6.91
-2.03
1.72
4.49
6.53
8.08
9.23
9.99
10.34
10.31
10.06
9.87
9.98
10.55
11.55
12.82
14.10
15.08
15.50
15.17
14.01
12.06
9.46
6.48
3.41
0.53
-2.01
-4.17
-6.13
-8.15
-10.59
-13.68
-17.45
-21.61
-25.61
-28.67
-30.08
-29.36
-26.46
-21.75
-15.89
-9.65
-3.71
1.47
5.66
8.81
10.99
12.30
12.88
12.93
12.65
12.31
12.14
12.26
12.71
13.43
14.32
15.27
16.15
16.82
17.08
16.70
15.52
13.51
10.85
7.90
5.00
2.43
0.25
-1.69
-3.67
-6.01
-8.93
-12.51
-16.59
-20.78
-24.51
-27.09
-27.93
-26.71
-23.48
-18.62
-12.75
-6.57
-0.68
4.46
8.56
11.45
13.10
13.61
13.26
12.46
11.63
11.14
11.17
11.71
12.60
13.63
14.60
15.38
15.89
16.07
15.87
15.21
14.04
12.39
10.36
8.15
5.96
3.96
2.18
0.50
-1.26
-3.34
-5.92
-9.06
-12.66
-16.42
-19.76
-21.98
-22.42
-20.67
-16.74
-11.19
-4.83
1.44
7.00
11.59
15.24
18.16
20.44
22.07
22.97
23.08
22.49
21.34
19.85
18.14
16.32
14.47
12.69
11.15
9.96
9.18
8.65
8.10
7.13
5.41
2.75
-0.81
-5.05
-9.59
-14.08
-18.27
-22.11
-25.70
-29.24
-32.85
-36.45
-39.80
-42.50
-44.08
-44.17
-42.51
-39.07
-34.02
-27.74
-20.81
-13.95
-7.83
-2.97
0.44
2.53
3.66
4.33
5.00
6.05
7.69
9.96
12.69
15.56
18.13
20.04
21.09
21.32
20.95
20.30
19.61
19.01
18.47
17.91
17.24
16.42
15.39
14.09
12.42
10.24
7.43
3.97
0.02
-4.04
-7.63
-10.08
-10.87
-9.72
-6.82
-2.63
2.15
6.76
10.61
13.34
14.82
15.17
14.59
13.30
11.44
9.13
6.46
3.63
0.95
-1.28
-2.80
-3.66
-4.14
-4.64
-5.56
-7.02
-8.93
-11.01
-12.99
-14.74
-16.28
-17.75
-19.29
-20.97
-22.80
-24.74
-26.78
-28.82
-30.73
-32.24
-32.95
-32.42
-30.35
-26.67
-21.61
-15.68
-9.44
-3.47
1.84
6.22
9.52
11.70
12.80
12.97
12.48
11.66
10.87
10.41
10.47
11.04
12.00
13.07
13.94
14.37
14.18
13.37
12.00
10.23
8.18
6.01
3.81
1.67
-0.41
-2.48
-4.71
-7.33
-10.47
-14.09
-17.94
-21.48
-24.10
-25.18
-24.37
-21.61
-17.24
-11.83
-6.10
-0.69
4.00
7.73
10.48
12.30
13.25
13.44
13.03
12.29
11.55
11.10
11.09
11.48
12.08
12.64
12.95
12.92
12.53
11.79
10.72
9.30
7.56
5.56
3.38
1.08
-1.34
-3.94
-6.80
-10.00
-13.53
-17.27
-21.03
-24.41
-26.94
-28.05
-27.29
-24.44
-19.70
-13.69
-7.22
-1.10
4.15
8.33
11.48
13.75
15.24
16.01
16.22
16.08
15.91
16.00
16.48
17.26
18.13
18.86
19.31
19.41
19.23
18.77
18.01
16.88
15.36
13.44
11.20
8.74
6.17
3.61
1.14
-1.22
-3.56
-6.06
-8.91
-12.20
-15.83
-19.44
-22.42
-24.12
-24.00
-21.92
-18.15
-13.34
-8.33
-3.86
-0.40
1.90
3.19
3.74
3.83
3.68
3.46
3.28
3.25
3.40
3.73
4.11
4.41
4.51
4.37
4.00
3.46
2.79
1.94
0.82
-0.63
-2.37
-4.31
-6.30
-8.20
-9.96
-11.67
-13.50
-15.71
-18.45
-21.70
-25.19
-28.37
-30.52
-31.01
-29.48
-26.00
-21.01
-15.25
-9.47
-4.29
-0.07
3.07
5.20
6.53
7.26
7.61
7.72
7.72
7.73
7.87
8.22
8.80
9.53
10.30
10.92
11.23
11.15
10.67
9.78
8.50
6.85
4.89
2.74
0.49
-1.78
-4.14
-6.72
-9.68
-13.02
-16.51
-19.66
-21.89
-22.64
-21.58
-18.74
-14.48
-9.42
-4.23
0.54
4.55
7.69
10.00
11.53
12.35
12.53
12.14
11.40
10.56
9.88
9.53
9.55
9.87
10.32
10.71
10.88
10.68
10.00
8.77
7.05
4.96
2.69
0.39
-1.92
-4.32
-6.96
-9.99
-13.45
-17.20
-20.97
-24.34
-26.81
-27.89
-27.22
-24.72
-20.64
-15.50
-9.98
-4.68
0.01
3.92
7.06
9.50
11.22
12.26
12.69
12.68
12.52
12.49
12.77
13.42
14.36
15.46
16.59
17.53
18.06
17.94
17.02
15.31
12.99
10.32
7.61
5.01
2.55
0.18
-2.25
-4.87
-7.81
-11.18
-15.01
-19.10
-22.96
-25.91
-27.17
-26.22
-22.94
-17.74
-11.36
-4.74
1.38
6.47
10.33
12.98
14.60
15.49
15.94
16.26
16.66
17.24
17.93
18.58
19.04
19.20
19.07
18.79
18.50
18.31
18.23
18.16
17.91
17.26
16.07
14.25
11.87
9.07
6.08
3.07
0.19
-2.50
-5.12
-7.89
-11.10
-14.88
-19.10
-23.31
-26.75
-28.66
-28.48
-26.13
-21.95
-16.61
-10.84
-5.26
-0.25
3.99
7.37
9.88
11.52
12.36
12.58
12.47
12.40
12.70
13.56
14.96
16.66
18.31
19.55
20.16
20.12
19.56
18.70
17.70
16.60
15.37
13.90
12.10
9.97
7.63
5.22
2.90
0.69
-1.47
-3.71
-6.17
-8.89
-11.83
-14.90
-18.05
-21.23
-24.38
-27.29
-29.58
-30.73
-30.31
-28.10
-24.28
-19.32
-13.80
-8.30
-3.18
1.33
5.11
8.03
10.04
11.12
11.43
11.26
10.92
10.72
10.82
11.28
12.05
13.04
14.12
15.15
15.99
16.51
16.67
16.49
16.03
15.34
14.43
13.26
11.76
9.97
7.97
5.91
3.93
2.05
0.24
-1.58
-3.48
-5.52
-7.77
-10.31
-13.24
-16.56
-20.03
-23.17
-25.33
-25.88
-24.47
-21.15
-16.39
-10.83
-5.17
0.11
4.74
8.62
11.72
13.99
15.39
15.96
