1520266361.00
64.000000
-0.00
-0.00
-0.00
-0.00
-0.00
-0.00
-0.00
-0.00
-0.00
-0.00
0.00
0.01
0.01
-0.00
-0.03
-0.05
-0.05
0.00
0.13
0.36
0.66
1.01
1.37
1.72
2.06
2.40
2.79
3.24
3.80
4.42
5.06
5.66
6.20
6.68
7.15
7.68
8.31
9.14
10.09
11.04
11.88
12.56
13.14
13.76
14.65
15.96
17.91
20.32
22.90
25.38
27.58
29.57
31.68
34.32
37.81
42.54
48.15
54.10
59.83
64.97
69.58
74.14
79.34
85.71
93.76
103.00
112.62
121.73
129.77
136.75
143.30
150.75
157.77
166.64
177.95
191.79
206.97
220.57
228.25
225.36
208.53
176.87
132.76
80.05
23.07
-34.94
-92.44
-149.16
-205.23
-260.37
-313.74
-363.87
-409.83
-450.91
-486.50
-515.74
-537.23
-549.22
-549.96
-538.37
-514.21
-478.67
-433.88
-382.45
-327.02
-269.84
-212.63
-156.66
-102.95
-52.37
-5.90
35.58
71.43
101.35
125.50
144.38
158.69
169.15
176.37
180.75
182.57
182.07
179.51
175.23
169.65
163.18
156.15
148.81
141.30
133.69
126.02
118.33
110.69
103.16
95.80
88.68
81.83
75.25
68.95
62.95
57.25
51.86
46.78
42.03
37.59
33.45
29.61
26.07
22.81
19.83
17.11
14.67
12.48
10.54
8.83
7.35
6.07
4.97
4.05
3.27
2.62
2.09
1.65
1.30
1.01
0.79
0.61
0.47
0.37
0.29
0.23
0.19
0.16
0.14
0.14
0.14
0.16
0.18
0.20
0.24
0.27
0.31
0.35
0.40
0.44
0.49
0.54
0.59
0.64
0.70
0.76
0.82
0.89
0.97
1.05
1.15
1.25
1.37
1.50
1.65
1.81
1.99
2.20
2.42
2.66
2.93
3.23
3.55
3.91
4.30
4.72
5.18
5.68
6.22
6.81
7.44
8.11
8.83
9.60
10.40
11.26
12.15
13.09
14.07
15.12
16.21
17.36
18.55
19.77
20.97
22.11
23.08
23.79
24.12
23.92
23.09
21.54
19.22
16.18
12.47
8.20
3.55
-1.28
-6.10
-10.72
-14.95
-18.64
-21.63
-23.84
-25.25
-25.93
-25.99
-25.63
-25.01
-24.27
-23.50
-22.69
-21.86
-20.97
-20.05
-19.17
-18.41
-17.84
-17.46
-17.11
-16.58
-15.63
-14.10
-12.03
-9.65
-7.36
-5.57
-4.61
-4.54
-5.17
-6.21
-7.41
-8.80
-10.63
-13.29
-17.10
-22.04
-27.57
-32.78
-36.59
-38.21
-37.41
-34.58
-30.60
-26.47
-22.92
-20.04
-17.28
-13.75
-8.59
-1.35
7.97
19.06
31.29
43.76
55.32
64.90
72.22
78.33
84.98
94.32
107.54
123.46
138.01
145.62
141.36
123.14
92.60
54.05
12.60
-27.87
-65.28
-98.58
-126.47
-146.54
-155.61
-150.83
-130.98
-97.19
-53.13
-4.69
40.96
76.54
95.90
95.28
74.47
37.57
-7.27
-49.09
-76.35
-79.26
-52.17
4.79
84.99
176.20
262.81
329.58
365.41
366.16
335.39
282.23
218.00
152.35
90.86
34.79
-17.53
-68.92
-122.03
-178.60
-239.00
-301.45
-361.47
-412.27
-446.20
-457.37
-443.77
-408.13
-356.70
-296.66
-233.51
-169.74
-105.43
-40.11
25.27
87.31
140.64
179.51
199.76
200.43
184.26
157.09
126.20
98.21
77.48
65.35
60.60
60.44
61.78
62.22
60.38
55.74
48.28
38.33
26.54
14.02
2.36
-6.57
-11.12
-10.59
-5.54
2.21
10.11
15.83
18.20
17.56
15.52
14.06
14.58
17.27
21.19
24.83
26.91
26.89
24.97
21.91
18.44
15.03
11.85
8.93
6.52
5.13
5.45
8.04
12.98
19.70
27.12
34.03
39.47
42.98
44.61
44.69
43.59
41.55
38.72
35.22
31.23
27.01
22.80
18.76
14.98
11.42
8.05
4.79
1.60
-1.60
-4.85
-8.16
-11.56
-15.12
-19.00
-23.39
-28.37
-33.84
-39.49
-44.98
-50.04
-54.71
-59.35
-64.35
-69.83
-75.33
-79.81
-81.96
-80.77
-76.01
-68.37
-59.17
-49.87
-41.44
-34.21
-27.93
-22.19
-16.69
-11.38
-6.38
-1.74
2.62
6.82
10.92
14.79
18.14
20.70
22.37
23.31
23.87
24.55
25.85
28.19
31.82
36.69
42.37
48.10
52.93
55.97
56.70
54.99
51.11
45.55
38.93
31.97
25.42
19.95
16.03
13.69
12.55
11.96
11.32
10.35
9.15
7.99
7.08
6.36
5.48
3.94
1.37
-2.39
-7.13
-12.43
-17.72
-22.47
-26.36
-29.39
-31.80
-34.00
-36.39
-39.18
-42.39
-45.72
-48.56
-50.11
-49.48
-45.94
-39.33
-30.12
-19.39
-8.43
1.72
10.59
18.30
25.35
32.25
39.37
46.96
55.16
64.00
73.34
82.79
91.83
100.13
107.71
114.98
122.51
130.63
139.38
148.71
158.94
170.72
184.57
200.11
215.48
227.84
234.51
234.28
227.92
217.58
205.60
193.45
181.35
168.68
154.53
137.93
117.75
92.20
58.90
15.39
-39.81
-105.75
-178.05
-249.17
-310.08
-353.34
-376.07
-381.46
-377.32
-372.77
-373.97
-381.58
-391.03
-395.32
-388.21
-366.15
-328.45
-276.61
-214.05
-146.41
-82.03
-30.92
-2.05
-0.28
-24.70
-69.66
-127.42
-190.94
-254.80
-314.48
-364.67
-398.92
-410.97
-397.31
-359.15
-302.41
-235.53
-166.26
-99.61
-37.67
19.14
70.27
114.32
149.66
175.62
192.79
202.17
203.98
196.95
179.48
151.65
117.26
83.95
61.36
57.91
77.73
118.97
174.09
231.51
278.38
303.44
299.79
266.83
210.45
141.37
71.70
11.20
-34.99
-66.65
-86.56
-98.21
-104.17
-105.93
-104.53
-101.23
-97.59
-94.82
-93.17
-91.66
-88.42
-81.70
-70.78
-56.53
-41.31
-28.32
-20.38
-18.83
-22.81
-29.39
-34.68
-35.52
-30.80
-21.91
-11.83
-3.50
1.65
4.14
5.60
7.35
9.34
10.10
7.72
1.24
-8.44
-18.64
-25.94
-27.57
-22.46
-11.50
2.84
17.67
30.71
40.99
48.86
55.43
61.73
68.26
74.99
81.81
88.84
96.40
104.62
112.87
119.71
123.42
122.64
116.97
106.83
93.26
77.44
60.73
44.75
31.30
21.83
16.76
15.15
15.23
15.36
14.67
13.16
11.10
8.17
3.17
-5.35
-18.01
-33.64
-48.98
-59.53
-61.04
-51.23
-30.99
-4.41
22.06
41.64
49.18
42.61
23.36
-4.65
-36.55
-68.06
-96.11
-118.84
-135.06
-144.02
-145.52
-140.13
-129.21
-114.53
-97.66
-79.55
-60.50
-40.33
-18.85
4.06
28.21
53.06
77.54
100.22
119.60
134.66
145.42
152.78
158.19
162.77
166.65
168.95
168.41
164.23
156.70
147.08
136.99
127.72
119.82
113.16
107.31
101.98
97.18
93.12
89.97
87.72
86.07
84.58
82.73
79.94
75.50
68.67
58.71
45.26
28.48
9.26
-11.03
-30.79
-48.73
-64.16
-77.20
-88.45
-98.58
-107.83
-115.81
-121.63
-124.27
-123.11
-118.17
-110.13
-100.03
-88.83
-77.24
-65.65
-54.25
-43.16
-32.49
-22.31
-12.67
-3.67
4.42
11.18
16.12
18.99
20.00
19.83
19.44
19.74
21.25
24.05
27.73
31.60
34.74
36.25
35.37
31.75
25.70
18.18
10.51
3.89
-1.11
-4.71
-7.79
-11.38
-16.11
-22.08
-28.82
-35.67
-42.04
-47.64
-52.47
-56.72
-60.55
-63.93
-66.42
-67.23
-65.30
-59.69
-50.00
-36.59
-20.60
-3.63
12.71
27.27
39.47
49.26
56.87
62.44
65.95
67.25
66.26
63.23
58.76
53.68
48.68
44.02
39.38
34.12
27.60
19.69
10.86
2.04
-5.87
-12.39
-17.58
-21.84
-25.53
-28.62
-30.76
-31.42
-30.42
-28.10
-25.24
-22.79
-21.33
-20.87
-20.87
-20.66
-19.84
-18.54
-17.38
-17.09
-18.17
-20.67
-24.27
-28.37
-32.30
-35.36
-36.87
-36.24
-33.12
-27.67
-20.53
-12.65
-4.96
2.07
8.48
14.72
21.26
28.33
35.80
43.19
49.91
55.45
59.43
61.71
62.41
61.80
60.29
58.30
56.11
53.87
51.66
49.52
47.53
45.69
43.90
41.85
39.16
35.61
31.40
27.04
23.23
20.52
19.05
18.61
18.74
19.01
19.16
19.08
18.66
17.76
16.27
14.25
12.05
10.19
9.04
8.48
7.73
5.67
1.36
-5.35
-13.55
-21.53
-27.40
-29.81
-28.48
-24.23
-18.55
-13.09
-9.20
-7.71
-8.91
-12.55
-17.94
-23.97
-29.32
-32.78
-33.51
-31.29
-26.53
-20.14
-13.24
-6.95
-2.04
1.20
2.96
3.82
4.51
5.63
7.41
9.81
12.57
15.41
18.12
20.50
22.31
23.25
22.98
21.34
18.48
14.79
10.84
7.09
3.78
0.76
-2.26
-5.65
-9.62
-14.18
-19.08
-23.94
-28.40
-32.17
-35.18
-37.56
-39.62
-41.78
-44.46
-47.89
-52.06
-56.57
-60.76
-63.85
-65.15
-64.32
-61.41
-56.90
-51.49
-45.88
-40.55
-35.59
-30.79
-25.82
-20.44
-14.67
-8.81
-3.28
1.51
5.34
8.26
10.51
12.40
14.08
15.43
16.13
15.77
14.12
11.24
7.51
3.46
-0.33
-3.42
-5.48
-6.40
-6.18
-5.01
-3.26
-1.34
0.36
1.75
3.03
4.55
6.66
9.47
12.78
16.14
19.08
21.27
22.61
23.15
22.99
22.15
20.51
17.89
14.13
9.23
3.52
-2.38
-7.67
-11.48
-13.22
-12.62
-9.89
-5.67
-0.77
3.97
7.99
11.15
13.71
16.08
18.67
21.62
24.75
27.68
30.02
31.57
32.38
32.70
32.80
32.87
32.92
32.83
32.46
31.77
30.74
29.49
28.07
26.47
24.67
22.56
20.04
17.06
13.70
10.08
6.41
2.89
-0.32
-3.14
-5.65
-8.00
-10.43
-13.25
-16.78
-21.20
-26.47
-32.25
-37.80
-42.22
-44.62
-44.38
-41.37
-35.96
-28.97
-21.39
-14.13
-7.84
-2.79
1.11
4.14
6.53
8.45
9.94
11.01
11.72
12.22
12.71
13.31
14.04
14.79
15.40
15.74
15.80
15.72
15.61
15.53
15.44
15.21
14.55
13.15
10.81
7.55
3.67
-0.24
-3.54
-5.78
-6.93
-7.44
-8.04
-9.37
-11.75
-14.99
-18.56
-21.83
-24.39
-26.20
-27.57
-29.01
-30.94
-33.69
-37.31
-41.62
-46.18
-50.34
-53.31
-54.33
-52.89
-48.92
-42.87
-35.60
-28.10
-21.21
-15.37
-10.66
-6.89
-3.79
-1.13
1.20
3.29
5.16
6.86
8.44
9.88
11.17
12.30
13.34
14.35
15.33
16.20
16.82
17.10
17.05
16.85
16.68
16.62
16.62
16.39
15.67
14.34
12.52
10.54
8.75
7.38
6.39
5.59
4.64
3.31
1.52
-0.73
-3.24
-5.78
-8.19
-10.44
-12.65
-15.01
-17.75
-20.92
-24.43
-28.05
-31.54
-34.81
-37.93
-41.13
-44.58
-48.45
-52.71
-57.35
-62.22
-67.04
-71.29
-74.17
-74.77
-72.39
-66.92
-58.96
-49.75
-40.61
-32.55
-25.88
-20.28
-15.04
-9.65
-3.97
1.68
6.80
11.04
14.34
17.00
19.42
21.94
24.59
27.21
29.58
31.53
33.11
34.53
36.01
37.58
39.10
40.22
40.65
40.33
39.40
38.17
36.93
35.79
34.65
33.35
31.76
29.93
28.00
26.10
24.19
22.12
19.72
16.98
14.05
11.19
8.58
6.21
3.82
1.11
-2.24
-6.38
-11.23
-16.53
-21.91
-27.04
-31.69
-35.86
-39.74
-43.72
-48.24
-53.70
-60.26
-67.75
-75.58
-82.76
-88.04
-90.20
-88.40
-82.46
-73.07
-61.56
-49.49
-38.23
-28.56
-20.52
-13.67
-7.33
-0.96
5.64
12.33
18.80
24.67
29.69
33.75
36.93
39.38
41.30
42.84
44.19
45.45
46.71
48.01
49.32
50.51
51.39
51.74
51.35
50.14
48.12
45.45
42.44
39.44
36.76
34.63
33.11
32.02
31.12
30.04
28.49
26.29
23.49
20.26
16.86
13.51
10.30
7.20
4.05
0.66
-3.11
-7.35
-12.06
-17.10
-22.28
-27.37
-32.14
-36.51
-40.59
-44.73
-49.43
-55.18
-62.25
-70.42
-78.91
-86.50
-91.73
-93.41
-90.96
-84.59
-75.23
-64.22
-52.81
-41.73
-31.10
-20.65
-10.13
0.40
10.44
19.37
26.70
32.35
36.63
40.02
42.93
45.59
48.09
50.48
52.87
55.37
58.03
60.75
63.35
65.60
67.23
68.01
67.77
66.45
64.25
61.57
58.92
56.67
54.94
53.49
51.94
49.99
47.50
44.60
41.51
38.37
35.20
31.92
28.42
24.66
20.70
16.66
12.68
8.73
4.71
0.36
-4.56
-10.17
-16.40
-22.96
-29.44
-35.49
-40.96
-45.97
-50.78
-55.77
-61.29
-67.65
-74.99
-83.23
-91.83
-99.74
-105.50
-107.61
-105.03
-97.52
-85.84
-71.38
-55.79
-40.49
-26.39
-13.89
-3.05
6.38
14.73
22.38
29.63
36.55
43.01
48.71
53.42
57.08
59.92
62.28
64.40
66.32
67.84
68.76
69.03
68.90
68.65
68.48
68.21
67.27
65.01
61.03
55.42
48.94
42.63
37.47
33.95
31.96
30.87
29.94
28.58
26.66
24.38
22.06
19.86
17.71
15.32
12.43
9.01
5.26
1.53
-1.90
-5.03
-8.23
-12.13
-17.32
-24.15
-32.50
-41.82
-51.39
-60.55
-69.06
-77.10
-85.18
-93.83
-103.21
-112.79
-121.39
-127.32
-128.86
-124.76
-114.70
-99.48
-80.86
-61.02
-41.95
-24.88
-10.10
2.89
14.88
26.49
37.80
48.41
57.71
65.26
71.01
75.33
78.78
81.85
84.75
87.45
89.80
91.69
93.09
94.05
94.55
94.42
93.43
91.40
88.30
84.26
79.48
74.12
68.27
62.08
55.78
49.80
44.60
40.43
37.15
34.30
31.24
27.43
22.73
17.37
11.87
6.77
2.32
-1.55
-5.19
-9.10
-13.62
-18.87
-24.71
-30.83
-36.86
-42.54
-47.78
-52.64
-57.37
-62.32
-67.97
-74.76
-82.85
-91.91
-100.93
-108.35
-112.41
-111.75
-105.85
-95.22
-81.27
-65.78
-50.44
-36.42
-24.25
-13.89
-4.94
3.14
10.76
18.16
25.35
32.18
38.50
44.20
49.29
53.77
57.60
60.71
63.01
64.58
65.59
66.33
66.95
67.41
67.48
66.83
65.24
62.71
59.46
55.81
52.05
48.33
44.71
41.19
37.76
34.42
31.09
27.64
23.94
19.95
15.82
11.78
8.01
4.54
1.10
-2.71
-7.22
-12.50
-18.34
-24.31
-29.97
-35.08
-39.65
-43.94
-48.43
-53.67
-60.18
-68.16
-77.35
-86.76
-94.82
-99.67
-99.78
-94.36
-83.77
-69.32
-52.95
-36.63
-21.88
-9.52
0.35
8.16
14.60
20.34
25.78
31.06
36.06
40.56
44.40
47.57
50.15
52.24
53.86
54.97
55.55
55.63
55.44
55.24
55.22
55.31
55.18
54.38
52.59
49.74
46.10
42.13
38.31
34.96
32.19
29.90
27.94
26.07
24.10
21.86
19.20
16.07
12.53
8.73
4.91
1.24
-2.21
-5.63
-9.28
-13.45
-18.32
-23.84
-29.71
-35.51
-40.88
-45.65
-49.97
-54.23
-58.99
-64.80
-71.95
-80.29
-89.11
-97.10
-102.59
-103.99
-100.29
-91.51
-78.71
-63.72
-48.54
-34.68
-22.84
-12.97
-4.61
2.78
9.55
15.85
21.77
27.36
32.67
37.63
42.07
45.76
48.53
50.36
51.46
52.16
52.79
53.56
54.52
55.50
56.23
56.45
55.97
54.79
53.08
51.11
49.10
47.15
45.21
43.18
40.95
38.51
35.87
33.09
30.17
27.10
23.86
20.47
16.96
13.43
9.93
6.49
3.02
-0.58
-4.47
-8.80
-13.65
-19.01
-24.78
-30.74
-36.64
-42.25
-47.45
-52.31
-57.06
-62.09
-67.88
-74.76
-82.73
-91.22
-99.00
-104.42
-105.90
-102.43
-94.02
-81.81
-67.61
-53.38
-40.53
-29.67
-20.61
-12.69
-5.27
2.12
9.52
16.78
23.70
30.08
35.82
40.84
45.05
48.37
50.79
52.43
53.55
54.49
55.51
56.73
58.02
59.16
59.86
59.90
59.17
57.68
55.52
52.82
49.76
46.50
43.17
39.85
36.54
33.26
30.06
27.03
24.22
21.67
19.24
16.72
13.89
10.62
6.98
3.15
-0.64
-4.30
-7.93
-11.80
-16.20
-21.26
-26.85
-32.58
-37.95
-42.60
-46.51
-50.00
-53.66
-58.10
-63.78
-70.79
-78.80
-87.04
-94.35
-99.36
-100.81
-97.84
-90.35
-79.12
-65.65
-51.71
-38.85
-27.97
-19.11
-11.71
-4.97
1.73
8.61
15.50
21.99
27.75
32.62
36.65
40.02
42.80
45.00
46.61
47.60
48.12
48.37
48.58
48.89
49.23
49.40
49.15
48.26
46.70
44.60
42.21
39.83
37.70
35.89
34.29
32.73
31.00
29.03
26.82
24.48
22.06
19.55
16.83
13.78
10.34
6.60
2.77
-0.89
-4.24
-7.34
-10.45
-13.95
-18.09
-22.93
-28.24
-33.59
-38.54
-42.80
-46.35
-49.49
-52.76
-56.77
-62.04
-68.71
-76.42
-84.19
-90.66
-94.35
-94.09
-89.43
-80.70
-69.04
-55.96
-43.02
-31.40
-21.72
-13.89
-7.41
-1.48
4.56
11.02
17.78
24.36
30.22
34.98
38.55
41.13
43.10
44.76
46.24
47.51
48.42
48.88
48.96
48.82
48.61
48.42
48.13
47.56
46.53
44.98
43.02
40.84
38.65
36.50
34.38
32.17
29.81
27.34
24.86
22.48
20.24
18.07
15.86
13.55
11.12
8.62
6.10
3.54
0.86
-2.11
-5.50
-9.39
-13.67
-18.12
-22.50
-26.61
-30.44
-34.16
-38.08
-42.62
-48.12
-54.73
-62.32
-70.27
-77.56
-82.88
-84.95
-82.97
-76.91
-67.63
-56.56
-45.24
-34.85
-25.84
-18.06
-10.96
-4.07
2.87
9.76
16.30
22.18
27.20
31.29
34.52
37.07
39.13
40.87
42.42
43.83
45.17
46.46
47.69
48.75
49.47
49.64
49.17
48.09
46.63
45.05
43.58
42.26
40.93
39.40
37.53
35.38
33.14
31.06
29.28
27.71
26.07
23.99
21.19
17.60
13.46
9.18
5.20
1.71
-1.43
-4.65
-8.43
-13.08
-18.54
-24.44
-30.21
-35.38
-39.72
-43.37
-46.73
-50.36
-54.78
-60.31
-66.92
-74.03
-80.66
-85.47
-87.23
-85.12
-79.11
-69.97
-59.00
-47.64
-37.03
-27.80
-20.00
-13.28
-7.15
-1.17
4.93
11.18
17.45
23.49
29.07
33.98
38.15
41.62
44.44
46.70
48.49
49.84
50.82
51.47
51.85
51.93
51.68
51.02
49.87
48.22
46.10
43.61
40.89
38.02
35.05
31.95
28.68
25.25
21.75
18.33
15.20
12.51
10.34
8.57
6.97
5.24
3.16
0.71
-1.98
-4.64
-7.16
-9.58
-12.20
-15.36
-19.24
-23.71
-28.32
-32.53
-35.94
-38.54
-40.70
-43.02
-46.07
-50.24
-55.55
-61.66
-67.85
-73.14
-76.40
-76.69
-73.47
-66.95
-58.07
-48.22
-38.85
-30.95
-24.81
-20.03
-15.81
-11.36
-6.21
-0.35
5.91
12.04
17.58
22.23
25.90
28.70
30.78
32.36
33.65
34.83
36.05
37.44
39.01
40.65
42.13
43.16
43.51
43.06
41.89
40.20
38.26
36.28
34.40
32.63
30.97
29.41
27.95
26.56
25.17
23.67
21.94
19.93
17.60
14.98
12.08
8.92
5.51
1.89
-1.85
-5.62
-9.36
-13.07
-16.85
-20.73
-24.68
-28.58
-32.30
-35.80
-39.27
-43.07
-47.68
-53.48
-60.49
-68.24
-75.77
-81.88
-85.37
-85.46
-82.00
-75.48
-66.88
-57.39
-48.07
-39.63
-32.26
-25.73
-19.56
-13.25
-6.51
0.63
7.86
14.72
20.82
25.87
29.85
32.89
35.22
37.09
38.67
40.06
41.33
42.52
43.63
44.64
45.41
45.80
45.66
44.91
43.67
42.12
40.54
39.12
37.89
36.75
35.45
33.79
31.65
29.07
26.21
23.28
20.50
17.96
15.66
13.49
11.31
9.01
6.54
3.92
1.22
-1.53
-4.34
-7.30
-10.55
-14.19
-18.26
-22.69
-27.28
-31.76
-35.92
-39.68
-43.22
-47.00
-51.58
-57.41
-64.57
-72.56
-80.33
-86.51
-89.80
-89.37
-85.12
-77.61
-67.92
-57.32
-46.94
-37.61
-29.66
-22.98
-17.07
-11.29
-5.07
1.80
9.13
16.39
22.92
28.27
32.33
35.27
37.45
39.17
40.61
41.84
42.90
43.93
45.05
46.30
47.57
48.51
48.77
48.12
46.61
44.58
42.49
40.68
39.28
38.14
36.97
35.50
33.62
31.40
29.01
26.62
24.34
22.21
20.16
18.11
15.93
13.53
10.94
8.22
5.53
2.95
0.44
-2.20
-5.24
-8.94
-13.39
-18.43
-23.73
-28.87
-33.48
-37.44
-40.88
-44.19
-47.93
-52.63
-58.59
-65.73
-73.46
-80.76
-86.34
-88.96
-87.76
-82.50
-73.75
-62.71
-50.87
-39.61
-29.83
-21.73
-14.99
-9.00
-3.16
2.86
9.07
15.23
21.02
26.14
30.49
34.16
37.34
40.23
42.91
45.31
47.27
48.68
49.55
50.00
50.21
50.22
49.93
49.19
47.90
46.14
44.18
42.31
40.75
39.51
38.38
37.12
35.57
33.68
31.55
29.31
27.06
24.89
22.79
20.73
18.58
16.18
13.37
10.09
6.48
2.87
-0.39
-3.11
-5.41
-7.72
-10.64
-14.55
-19.53
-25.22
-31.11
-36.70
-41.74
-46.32
-50.81
-55.62
-61.17
-67.76
-75.34
-83.50
-91.33
-97.51
-100.66
-99.74
-94.51
-85.60
-74.40
-62.58
-51.52
-41.93
-33.82
-26.60
-19.51
-11.95
-3.68
5.12
13.96
22.26
29.50
35.41
40.03
43.57
46.33
48.56
50.41
52.02
53.54
55.14
56.94
58.89
60.71
61.94
62.16
61.19
59.18
56.57
53.91
51.59
49.71
48.06
46.25
44.02
41.26
38.18
35.08
32.25
29.85
27.84
26.05
24.28
22.33
20.03
17.22
13.86
10.01
5.92
1.90
-1.74
-4.97
-8.00
-11.26
-15.21
-20.07
-25.75
-31.88
-37.89
-43.34
-47.99
-51.97
-55.72
-59.91
-65.22
-72.11
-80.49
-89.55
-97.83
-103.53
-105.14
-101.89
-94.07
-82.90
-70.13
-57.38
-45.80
-35.80
-27.17
-19.35
-11.75
-3.92
4.33
12.88
21.42
29.56
36.85
42.94
47.57
50.68
52.34
52.81
52.42
51.61
50.73
50.01
49.55
49.35
49.35
49.48
49.64
49.70
49.55
49.18
48.69
48.27
48.12
48.23
48.38
48.17
47.22
45.35
42.73
39.73
36.78
34.08
31.57
28.93
25.83
22.11
17.84
13.31
8.84
4.62
0.66
-3.21
-7.23
-11.55
-16.22
-21.16
-26.21
-31.19
-35.97
-40.46
-44.68
-48.87
-53.39
-58.78
-65.45
-73.40
-82.03
-90.02
-95.64
-97.28
-94.06
-86.18
-74.86
-61.92
-49.10
-37.61
-27.89
-19.72
-12.52
-5.71
1.14
8.20
15.39
22.51
29.21
35.22
40.37
44.65
48.20
51.22
53.90
56.31
58.46
60.29
61.69
62.54
62.66
61.94
60.34
58.02
55.24
52.36
49.68
47.40
45.50
43.85
42.27
40.56
38.57
36.23
33.51
30.44
27.12
23.65
20.11
16.56
13.01
9.45
5.89
2.34
-1.14
-4.61
-8.13
-11.87
-15.95
-20.40
-25.14
-30.01
-34.83
-39.51
-44.04
-48.47
-53.00
-57.90
-63.56
-70.39
-78.60
-87.87
-97.21
-104.96
-109.26
-108.69
-102.71
-92.05
-78.41
-63.89
-50.34
-38.78
-29.33
-21.40
-14.08
-6.59
1.50
10.18
19.14
27.88
35.90
42.76
48.18
52.09
54.61
56.01
56.69
57.06
57.44
58.05
58.86
59.72
60.35
60.47
59.90
58.64
56.86
54.81
52.72
50.74
48.89
47.09
45.20
43.12
40.75
38.11
35.27
32.39
29.61
27.02
24.57
22.03
19.15
15.72
11.78
7.59
3.58
0.06
-2.89
-5.56
-8.49
-12.20
-16.97
-22.71
-28.97
-35.16
-40.83
-45.80
-50.23
-54.59
-59.44
-65.33
-72.52
-80.83
-89.47
-97.16
-102.31
-103.50
-99.94
-91.76
-80.04
-66.42
-52.64
-39.98
-29.07
-19.89
-11.97
-4.79
2.14
9.01
15.79
22.28
28.21
33.43
37.91
41.74
45.04
47.90
50.27
52.11
53.41
54.24
54.80
55.21
55.46
55.45
55.00
53.99
52.44
50.48
48.29
46.01
43.67
41.26
38.72
36.02
33.22
30.43
27.80
25.45
23.35
21.33
19.11
16.44
13.19
9.44
5.38
1.18
-3.10
-7.52
-12.22
-17.25
-22.51
-27.81
-32.93
-37.76
-42.33
-46.79
-51.36
-56.27
-61.76
-68.06
-75.28
-83.21
-91.17
-97.91
-101.90
-101.76
-96.78
-87.34
-74.89
-61.44
-48.91
-38.45
-30.19
-23.46
-17.25
-10.74
-3.60
4.02
11.74
19.10
25.86
31.94
37.44
42.51
47.31
51.91
56.28
60.29
63.69
66.29
67.94
68.63
68.46
67.59
66.10
64.10
61.71
59.10
56.53
54.22
52.26
50.56
48.88
46.95
44.62
41.96
39.17
36.45
33.87
31.30
28.51
25.31
21.69
17.87
14.13
10.62
7.29
3.88
-0.02
-4.68
-10.21
-16.42
-22.96
-29.39
-35.36
-40.64
-45.29
-49.62
-54.17
-59.67
-66.74
-75.65
-86.00
-96.60
-105.60
-110.99
-111.21
-105.73
-95.24
-81.40
-66.22
-51.44
-38.10
-26.43
-16.16
-6.77
2.21
11.19
20.46
30.22
40.45
50.82
60.73
69.48
76.60
82.03
86.24
90.02
94.21
99.28
105.24
111.64
117.80
123.07
127.20
130.46
133.57
137.41
142.48
148.38
153.59
155.59
151.37
138.14
114.12
79.15
35.11
-13.97
-62.46
-104.28
-134.39
-150.25
-152.45
-144.32
-130.54
-115.56
-102.46
-92.75
-86.79
-84.38
-84.87
-87.14
-89.47
-90.04
-87.63
-82.35
-75.76
-70.20
-67.83
-69.74
-75.59
-83.87
-92.39
-98.83
-101.09
-97.75
-88.36
-73.70
-55.73
-37.05
-20.10
-6.38
3.84
11.32
17.29
22.82
28.47
34.29
40.03
45.36
50.00
53.75
56.51
58.25
59.10
59.28
59.13
58.99
59.05
59.34
59.65
59.67
59.10
57.76
55.68
53.02
50.04
46.98
43.98
41.12
38.46
36.07
34.01
32.26
30.61
28.71
26.17
22.77
18.56
13.88
9.16
4.72
0.57
-3.59
-8.20
-13.61
-19.85
-26.64
-33.44
-39.73
-45.18
-49.77
-53.85
-57.99
-62.86
-69.05
-76.85
-86.03
-95.68
-104.38
-110.38
-112.11
-108.71
-100.33
-88.09
-73.82
-59.39
-46.29
-35.21
-26.11
-18.45
-11.47
-4.59
2.61
10.19
17.97
25.53
32.40
38.20
42.80
46.38
49.25
51.79
54.16
56.25
57.81
58.57
58.40
57.41
55.90
54.14
52.32
50.42
48.34
45.98
43.37
40.63
37.91
35.21
32.33
29.00
25.04
20.53
15.81
11.32
7.36
3.90
0.57
-3.10
-7.45
-12.56
-18.16
-23.78
-28.95
-33.37
-36.95
-39.83
-42.27
-44.50
-46.68
-48.89
-51.22
-53.92
-57.41
-62.20
-68.55
-76.19
-84.17
-90.94
-94.75
-94.18
-88.64
-78.49
-65.01
-50.04
-35.45
-22.64
-12.27
-4.15
2.53
8.85
15.67
23.35
31.63
39.84
47.17
53.07
57.43
60.51
62.68
64.27
65.36
65.89
65.85
65.37
64.77
64.34
64.19
64.10
63.65
62.43
60.26
57.32
54.05
50.94
48.31
46.13
44.17
42.04
39.46
36.36
32.89
29.35
26.06
23.21
20.78
18.58
16.32
13.71
10.60
7.00
3.03
-1.16
-5.45
-9.84
-14.44
-19.40
-24.80
-30.56
-36.43
-42.03
-47.03
-51.36
-55.26
-59.26
-64.08
-70.27
-78.09
-87.18
-96.60
-104.93
-110.49
-111.83
-108.14
-99.55
-87.19
-72.79
-58.23
-44.92
-33.51
-23.88
-15.47
-7.60
0.20
8.07
15.92
23.47
30.42
36.51
41.57
45.51
48.34
50.12
51.03
51.25
51.05
50.70
50.47
50.51
50.78
51.05
50.98
50.32
49.01
47.24
45.33
43.57
42.11
40.88
39.70
38.33
36.59
34.37
31.69
28.68
25.56
22.49
19.51
16.48
13.21
9.49
5.29
0.78
-3.72
-7.89
-11.57
-14.89
-18.16
-21.79
-26.10
-31.19
-36.92
-42.94
-48.81
-54.14
-58.83
-63.09
-67.48
-72.78
-79.67
-88.40
-98.46
-108.54
-116.66
-120.83
-119.61
-112.77
-101.28
-87.07
-72.32
-58.73
-47.13
-37.34
-28.54
-19.70
-10.00
0.90
12.84
25.27
37.42
48.53
58.04
65.64
71.32
75.27
77.85
79.46
80.54
81.50
82.59
83.88
85.10
85.82
85.56
84.07
81.45
78.09
74.51
71.07
67.91
64.90
61.77
58.28
54.25
49.68
44.66
39.43
34.36
29.81
26.03
22.97
20.34
17.68
14.57
10.90
6.80
2.63
-1.31
-4.92
-8.38
-12.01
-16.18
-21.07
-26.66
-32.73
-38.96
-45.10
-51.01
-56.78
-62.65
-68.99
-76.19
-84.49
-93.90
-103.88
-113.29
-120.51
-123.76
-121.77
-114.19
-101.88
-86.57
-70.36
-54.97
-41.37
-29.71
-19.59
-10.43
-1.77
6.61
14.74
22.50
29.71
36.17
41.69
46.23
49.86
52.81
55.31
57.57
59.68
61.71
63.64
65.42
66.92
67.83
67.83
66.70
64.41
61.24
57.67
54.18
51.14
48.63
46.56
44.66
42.67
40.37
37.66
34.54
31.11
27.52
23.82
20.03
16.09
11.93
7.58
3.21
-1.03
-5.08
-9.06
-13.31
-18.16
-23.82
-30.21
-37.00
-43.78
-50.19
-56.13
-61.82
-67.71
-74.42
-82.46
-92.01
-102.68
-113.36
-122.38
-127.86
-128.22
-122.74
-111.82
-96.95
-80.20
-63.59
-48.59
-35.71
-24.66
-14.67
-4.92
5.08
15.38
25.67
35.49
44.38
52.03
58.25
63.01
66.43
68.79
70.48
71.88
73.24
74.60
75.82
76.66
76.93
76.59
75.68
74.27
72.44
70.23
67.79
65.38
63.23
61.49
60.03
58.55
56.61
53.95
50.58
46.81
43.06
39.65
36.58
33.59
30.20
26.01
20.90
15.05
8.96
3.15
-2.00
-6.47
-10.62
-15.04
-20.26
-26.52
-33.61
-41.00
-48.03
-54.23
-59.43
-63.87
-68.06
-72.71
-78.56
-86.28
-96.15
-107.84
-120.11
-130.99
-138.09
-139.42
-134.03
-122.42
-106.36
-88.19
-70.19
-53.86
-39.86
-28.05
-17.84
-8.51
0.60
9.85
19.31
28.69
37.47
45.19
51.55
56.60
60.62
63.98
66.92
69.55
71.89
73.98
75.82
77.36
78.44
78.78
78.20
76.72
74.63
72.32
70.14
68.18
66.29
64.20
61.63
58.45
54.71
50.62
46.50
42.72
39.56
37.06
34.91
32.56
29.40
25.09
19.70
13.75
7.91
2.73
-1.62
-5.34
-8.92
-12.95
-17.84
-23.80
-30.67
-38.03
-45.28
-51.90
-57.61
-62.54
-67.19
-72.28
-78.53
-86.38
-95.67
-105.54
-114.42
-120.34
-121.48
-116.76
-106.32
-91.50
-74.42
-57.29
-41.79
-28.69
-17.94
-8.91
-0.77
7.12
15.15
23.27
31.17
38.33
44.37
49.17
52.97
56.13
59.01
61.71
64.10
65.96
67.19
67.92
68.41
68.86
69.27
69.36
68.80
67.37
65.11
62.34
59.48
56.85
54.53
52.35
49.99
47.15
43.69
39.71
35.50
31.41
27.68
24.42
21.48
18.53
15.23
11.30
6.74
1.78
-3.16
-7.68
-11.64
-15.25
-18.98
-23.39
-28.78
-35.10
-41.96
-48.81
-55.24
-61.06
-66.34
-71.41
-76.72
-82.88
-90.45
-99.76
-110.52
-121.57
-130.89
-136.07
-135.14
-127.32
-113.38
-95.45
-76.30
-58.43
-43.34
-31.30
-21.55
-12.83
-3.95
5.78
16.43
27.53
38.34
48.13
56.37
62.79
67.36
70.21
71.64
72.09
72.09
72.15
72.59
73.45
74.49
75.34
75.60
75.03
73.60
71.42
68.76
65.88
63.05
60.48
58.25
56.24
54.20
51.87
49.05
45.76
42.20
38.68
35.45
32.63
30.09
27.54
24.62
21.06
16.82
12.05
7.06
2.13
-2.62
-7.24
-11.87
-16.72
-21.95
-27.60
-33.62
-39.85
-46.08
-52.08
-57.67
-62.84
-67.88
-73.31
-79.82
-87.93
-97.74
-108.56
-118.92
-126.81
-130.21
-127.78
-119.34
-105.97
-89.67
-72.67
-56.82
-43.14
-31.75
-22.15
-13.56
-5.27
3.15
11.77
20.37
28.55
35.88
42.10
47.15
51.16
54.33
56.87
58.95
60.71
62.33
63.94
65.54
66.96
67.85
67.81
66.63
64.32
61.26
57.94
54.87
52.36
50.43
48.84
47.21
45.21
42.63
39.51
36.07
32.58
29.24
26.06
22.87
19.46
15.62
11.32
6.68
1.96
-2.59
-6.84
-10.85
-14.87
-19.23
-24.20
-29.83
-35.99
-42.39
-48.74
-54.81
-60.54
-66.10
-71.88
-78.47
-86.38
-95.72
-105.79
-115.03
-121.27
-122.53
-117.69
-107.03
-92.06
-75.01
-58.01
-42.52
-29.18
-17.85
-8.06
0.76
9.10
17.19
25.06
32.50
39.23
44.97
49.64
53.34
56.31
58.83
61.07
63.14
65.06
66.78
68.23
69.33
69.97
70.10
69.67
68.65
67.01
64.84
62.31
59.70
57.32
55.22
53.25
51.04
48.17
44.53
40.33
36.04
32.24
29.22
26.95
25.07
23.08
20.43
16.80
12.12
6.63
0.78
-4.86
-9.87
-14.16
-17.96
-21.76
-26.08
-31.26
-37.39
-44.30
-51.59
-58.79
-65.52
-71.57
-77.07
-82.51
-88.63
-96.10
-105.16
-115.26
-124.97
-132.28
-135.17
-132.25
-123.31
-109.37
-92.40
-74.68
-58.11
-43.83
-32.01
-22.11
-13.30
-4.82
3.82
12.75
21.81
30.70
39.07
46.56
52.94
58.11
62.10
65.10
67.32
68.99
70.31
71.45
72.50
73.50
74.37
74.86
74.68
73.61
71.62
68.93
65.87
62.79
59.82
56.95
54.05
51.06
47.97
44.91
42.01
39.37
36.99
34.75
32.43
29.75
26.46
22.38
17.56
12.27
6.95
2.05
-2.21
-5.92
-9.49
-13.49
-18.41
-24.46
-31.46
-38.94
-46.31
-53.10
-59.11
-64.47
-69.57
-74.94
-81.12
-88.55
-97.36
-107.10
-116.64
-124.17
-127.66
-125.52
-117.21
-103.60
-86.66
-68.83
-52.23
-38.07
-26.58
-17.23
-9.14
-1.51
6.15
14.01
21.89
29.44
36.29
42.21
47.19
51.36
54.88
57.86
60.28
62.13
63.47
64.51
65.46
66.36
67.05
67.17
66.39
64.58
61.91
58.76
55.54
52.52
49.77
47.21
44.72
42.24
39.75
37.30
34.90
32.52
29.98
27.06
23.49
19.12
13.98
8.32
2.52
-3.02
-8.09
-12.73
-17.20
-21.88
-27.04
-32.82
-39.15
-45.79
-52.48
-58.97
-65.16
-71.18
-77.41
-84.47
-92.95
-103.13
-114.60
-126.07
-135.52
-140.67
-139.77
-132.15
-118.59
-101.03
-81.98
-63.69
-47.64
-34.29
-23.24
-13.66
-4.62
4.61
14.35
24.58
34.90
44.70
53.36
60.45
65.81
69.56
71.97
73.40
74.23
74.84
75.59
76.70
78.14
79.59
80.56
80.54
79.29
76.91
73.76
70.33
67.03
64.12
61.63
59.47
57.44
55.31
52.92
50.15
47.06
43.78
40.40
36.89
33.08
28.80
24.01
18.88
13.81
9.18
5.17
1.63
-1.89
-5.99
-11.24
-17.91
-25.90
-34.70
-43.61
-51.94
-59.30
-65.82
-72.10
-79.03
-87.48
-97.90
-110.10
-123.08
-135.10
-143.99
-147.66
-144.73
-135.00
-119.67
-100.97
-81.50
-63.37
-47.69
-34.52
-23.16
-12.67
-2.26
8.44
19.46
30.54
41.23
50.97
59.25
65.71
70.24
73.01
74.44
75.06
75.43
75.99
76.94
78.24
79.60
80.54
80.66
79.71
77.73
74.92
71.61
68.08
64.53
61.06
57.69
54.36
51.00
47.57
44.02
40.40
36.78
33.19
29.55
25.74
21.63
17.18
12.47
7.70
2.93
-1.92
-7.11
-12.91
-19.43
-26.57
-33.97
-41.19
-47.88
-53.97
-59.70
-65.65
-72.52
-80.85
-90.73
-101.61
-112.15
-120.53
-124.84
-123.62
-116.39
-103.81
-87.49
-69.54
-51.93
-35.97
-22.12
-10.07
0.84
11.19
21.17
30.66
39.34
46.98
53.52
59.07
63.70
67.43
70.17
71.91
72.83
73.21
73.46
73.87
74.51
75.23
75.70
75.58
74.62
72.72
70.03
66.85
63.60
60.58
57.90
55.40
52.74
49.60
45.89
41.76
37.57
33.66
30.10
26.74
23.15
18.93
13.86
8.03
1.82
-4.29
-9.91
-14.97
-19.70
-24.57
-30.02
-36.23
-43.03
-50.01
-56.69
-62.78
-68.30
-73.63
-79.36
-86.17
-94.53
-104.52
-115.47
-125.91
-133.74
-136.80
-133.58
-123.86
-108.83
-90.78
-72.31
-55.41
-41.05
-29.09
-18.65
-8.65
1.65
12.53
23.75
34.79
44.98
53.76
60.79
66.03
69.72
72.30
74.19
75.80
77.32
78.88
80.43
81.87
82.99
83.58
83.37
82.17
79.92
76.79
73.08
69.21
65.54
62.26
59.31
56.44
53.29
49.60
45.30
40.62
35.95
31.67
27.96
24.73
21.69
18.42
14.63
10.22
5.34
0.25
-4.75
-9.56
-14.28
-19.21
-24.68
-30.85
-37.64
-44.67
-51.43
-57.51
-62.80
-67.58
-72.39
-77.98
-84.99
-93.73
-103.95
-114.67
-124.16
-130.35
-131.31
-126.04
-114.87
-99.42
-82.10
-65.26
-50.43
-38.04
-27.58
-18.06
-8.58
1.31
11.52
21.59
30.93
39.03
45.65
50.85
54.86
58.02
60.61
62.78
64.54
65.91
66.89
67.58
68.02
68.20
68.05
67.41
66.17
64.34
62.05
59.52
56.98
54.56
52.26
49.91
47.34
44.43
41.24
37.96
34.80
31.85
28.93
25.73
21.86
17.15
11.75
6.07
0.55
-4.53
-9.27
-14.04
-19.28
-25.21
-31.77
-38.60
-45.19
-51.22
-56.64
-61.67
-66.80
-72.56
-79.40
-87.59
-97.11
-107.46
-117.60
-125.90
-130.48
-129.77
-123.07
-111.01
-95.39
-78.62
-62.86
-49.31
-37.98
-27.93
-17.95
-7.12
4.81
17.39
29.80
41.14
50.76
58.40
64.09
68.09
70.72
72.32
73.17
73.57
73.84
74.24
74.89
75.70
76.36
76.48
75.72
73.99
71.42
68.40
65.34
62.61
60.36
58.50
56.70
54.56
51.78
48.30
44.31
40.20
36.37
33.02
30.12
27.41
24.51
21.09
16.94
12.07
6.70
1.25
-3.83
-8.19
-11.80
-15.02
-18.43
-22.69
-28.16
-34.79
-42.09
-49.40
-56.16
-62.13
-67.48
-72.69
-78.44
-85.40
-94.04
-104.29
-115.41
-125.83
-133.47
-136.28
-132.94
-123.40
-108.89
-91.61
-73.95
-57.82
-44.14
-32.86
-23.19
-14.04
-4.53
5.82
16.89
28.13
38.73
47.92
55.22
60.53
64.13
66.50
68.22
69.70
71.19
72.74
74.27
75.63
76.56
76.87
76.33
74.84
72.39
69.13
65.39
61.59
58.16
55.34
53.16
51.37
49.59
47.45
44.75
41.50
37.90
34.24
30.72
27.43
24.27
21.03
17.42
13.24
8.42
3.14
-2.19
-7.08
-11.19
-14.51
-17.37
-20.40
-24.17
-29.01
-34.80
-41.11
-47.32
-52.95
-57.82
-62.05
-66.07
-70.53
-76.06
-83.18
-91.93
-101.71
-111.16
-118.39
-121.45
-119.00
-110.78
-97.78
-81.89
-65.33
-49.92
-36.71
-25.83
-16.80
-8.81
-1.12
6.71
14.75
22.72
30.19
36.68
41.94
45.99
49.13
51.75
54.12
56.36
58.35
59.96
61.14
61.96
62.53
62.86
62.80
62.11
60.62
58.39
55.72
53.06
50.79
49.07
47.73
46.37
44.56
41.97
38.60
34.71
30.72
27.09
24.02
21.47
19.04
16.23
12.61
8.05
2.80
-2.64
-7.74
-12.19
-16.08
-19.79
-23.88
-28.73
-34.45
-40.76
-47.19
-53.22
-58.61
-63.41
-68.03
-73.02
-79.03
-86.53
-95.67
-106.05
-116.56
-125.48
-130.75
-130.61
-124.23
-112.11
-96.05
-78.53
-61.97
-47.91
-36.73
-27.79
-19.89
-11.89
-3.10
6.60
16.86
27.06
36.56
44.87
51.70
57.00
60.85
63.46
65.12
66.23
67.20
68.35
69.82
71.42
72.74
73.30
72.74
71.01
68.37
65.28
62.22
59.55
57.43
55.78
54.32
52.65
50.39
47.36
43.64
39.63
35.83
32.68
30.34
28.65
27.24
25.62
23.40
20.33
16.34
11.55
6.21
0.65
-4.76
-9.78
-14.38
-18.76
-23.25
-28.18
-33.73
-39.88
-46.40
-52.95
-59.20
-65.00
-70.43
-75.91
-82.09
-89.63
-98.80
-109.19
-119.51
-127.74
-131.71
-129.87
-121.79
-108.47
-91.91
-74.49
-58.23
-44.27
-32.81
-23.28
-14.78
-6.48
2.19
11.38
20.91
30.34
39.11
46.70
52.80
57.35
60.59
62.90
64.63
66.11
67.48
68.83
70.15
71.35
72.24
72.59
72.12
70.67
68.28
65.29
62.17
59.43
57.30
55.71
54.27
52.49
50.01
46.75
42.96
39.04
35.40
32.26
29.49
26.75
23.58
19.64
14.88
9.56
4.07
-1.19
-6.02
-10.47
-14.81
-19.36
-24.35
-29.88
-35.84
-42.08
-48.34
-54.40
-60.12
-65.49
-70.75
-76.39
-82.99
-90.95
-100.08
-109.39
-117.08
-121.04
-119.54
-111.92
-98.88
-82.34
-64.69
-48.08
-33.80
-22.16
-12.69
-4.53
3.14
10.85
18.73
26.64
34.15
40.85
46.45
50.91
54.38
57.10
59.30
61.12
62.62
63.85
64.94
66.01
67.05
67.86
68.07
67.30
65.42
62.58
59.23
55.88
52.97
50.65
48.79
47.03
44.95
42.25
38.83
34.92
30.92
27.32
24.39
22.07
19.95
17.41
13.97
9.42
4.01
-1.70
-7.21
-12.21
-16.85
-21.56
-26.85
-32.95
-39.73
-46.75
-53.46
-59.56
-65.05
-70.36
-76.08
-82.84
-91.12
-101.05
-112.20
-123.46
-133.05
-138.79
-138.83
-132.20
-119.41
-102.28
-83.42
-65.31
-49.55
-36.57
-25.79
-16.19
-6.74
3.16
13.67
24.51
35.16
45.00
53.46
60.23
65.25
68.78
71.23
73.06
74.61
76.07
77.50
78.83
79.95
80.63
80.64
79.82
78.12
75.73
73.02
70.36
68.00
65.93
63.95
61.78
59.21
56.19
52.80
49.24
45.71
42.32
39.05
35.74
32.11
27.88
22.92
17.31
11.39
5.62
0.33
-4.41
-8.85
-13.48
-18.78
-24.98
-31.93
-39.16
-46.09
-52.25
-57.55
-62.35
-67.36
-73.38
-81.11
-90.73
-101.79
-113.04
-122.65
-128.55
-128.97
-123.06
-111.18
-94.97
-76.87
-59.41
-44.53
-33.07
-24.73
-18.33
-12.39
-5.70
2.32
11.54
21.28
30.74
39.28
46.63
52.83
58.00
62.21
65.42
67.59
68.88
69.64
70.32
71.19
72.21
73.01
73.07
71.94
69.47
65.81
61.35
56.56
51.81
47.29
43.02
38.87
34.73
30.52
26.29
22.09
17.86
13.51
8.81
3.70
-1.74
-7.17
-12.23
-16.76
-20.97
-25.45
-30.92
-37.87
-46.19
-55.17
-63.63
-70.45
-75.01
-77.46
-78.68
-79.97
-82.61
-87.47
-94.68
-103.50
-112.39
-119.34
-122.30
-119.83
-111.52
-98.26
-81.98
-65.07
-49.67
-37.02
-27.22
-19.38
-12.10
-4.05
5.51
16.57
28.39
39.89
50.08
58.36
64.71
69.55
73.55
77.35
81.40
85.90
90.76
95.63
99.97
103.08
104.26
103.05
99.38
93.69
86.89
80.09
74.30
70.04
67.24
65.31
63.38
60.74
56.96
52.07
46.41
40.43
34.53
29.02
24.02
19.57
15.65
12.25
9.45
7.35
6.09
5.59
5.51
5.28
4.26
1.99
-1.58
-6.09
-11.03
-16.03
-21.09
-26.66
-33.38
-41.66
-51.31
-61.36
-70.16
-75.96
-77.49
-74.48
-67.72
-58.70
-48.97
-39.57
-30.80
-22.41
-14.02
-5.42
3.32
11.95
20.31
28.35
36.12
43.61
50.72
57.30
63.27
68.70
73.79
78.72
83.57
88.32
92.93
97.35
101.58
105.58
109.20
112.12
113.96
114.37
113.16
110.39
106.24
100.88
94.37
86.58
77.31
66.44
54.10
40.71
26.95
13.53
1.06
-10.20
-20.32
-29.63
-38.55
-47.39
-56.21
-64.86
-73.04
-80.49
-87.19
-93.34
-99.28
-105.38
-111.92
-118.96
-126.34
-133.68
-140.37
-145.68
-148.87
-149.32
-146.75
-141.26
-133.28
-123.42
-112.35
-100.57
-88.48
-76.40
-64.74
-53.98
-44.66
-37.18
-31.61
-27.67
-24.76
-22.16
-19.26
-15.69
-11.43
-6.71
-1.83
3.00
7.70
12.31
16.86
21.24
25.19
28.36
30.52
31.63
31.91
31.61
30.91
29.72
27.76
24.74
20.50
15.22
9.34
3.39
-2.14
-7.05
-11.42
-15.64
-20.23
-25.67
-32.15
-39.42
-46.72
-52.86
-56.48
-56.49
-52.45
-44.75
-34.56
-23.47
-12.95
-3.91
3.54
9.90
15.95
22.24
28.84
35.30
41.01
45.44
48.47
50.38
51.59
52.45
53.05
53.25
52.84
51.77
50.19
48.42
46.76
45.25
43.59
41.34
38.05
33.58
28.15
22.36
16.86
12.19
8.49
5.47
2.56
-0.85
-5.09
-10.10
-15.50
-20.71
-25.28
-29.06
-32.24
-35.34
-39.03
-43.92
-50.36
-58.25
-66.88
-74.96
-80.91
-83.28
-81.18
-74.66
-64.62
-52.55
-40.01
-28.18
-17.60
-8.23
0.37
8.71
17.14
25.69
34.06
41.74
48.17
53.02
56.25
58.15
59.17
59.80
60.35
60.94
61.56
62.14
62.62
62.92
62.90
62.33
60.94
58.54
55.16
51.06
46.69
42.51
38.83
35.73
33.02
30.31
27.16
23.28
18.56
13.17
7.49
1.99
-2.96
-7.23
-10.97
-14.61
-18.74
-23.90
-30.43
-38.29
-46.94
-55.28
-61.81
-65.00
-63.75
-57.85
-48.10
-36.07
-23.58
-12.21
-2.93
3.93
8.46
10.95
11.76
11.24
9.79
7.79
5.54
3.17
0.72
-1.81
-4.30
-6.46
-7.88
-8.18
-7.08
-4.58
-0.91
3.46
7.95
11.93
14.95
16.72
17.30
16.96
16.12
15.21
14.54
14.27
14.32
14.44
14.34
13.75
12.53
10.69
8.35
5.56
2.33
-1.47
-5.87
-10.81
-16.06
-21.30
-26.27
-30.89
-35.29
-39.77
-44.70
-50.40
-57.05
-64.50
-72.13
-78.79
-83.03
-83.53
-79.57
-71.41
-60.21
-47.67
-35.50
-24.75
-15.75
-8.09
-1.03
6.13
13.72
21.65
29.50
36.76
43.04
48.13
51.95
54.58
56.12
56.72
56.65
56.26
55.92
55.93
56.32
56.85
57.21
57.08
56.36
55.13
53.58
51.89
50.10
48.20
46.14
43.93
41.60
39.19
36.69
34.06
31.17
27.93
24.30
20.36
16.26
12.16
8.23
4.54
1.02
-2.53
-6.44
-11.02
-16.44
-22.55
-29.03
-35.36
-41.14
-46.21
-50.79
-55.31
-60.29
-66.17
-73.16
-81.18
-89.73
-97.92
-104.53
-108.35
-108.47
-104.71
-97.69
-88.57
-78.68
-68.95
-59.67
-50.43
-40.55
-29.47
-17.16
-4.26
8.11
18.75
26.85
32.23
35.35
36.97
37.82
38.26
38.33
37.96
37.19
36.37
35.96
36.32
37.48
39.08
40.52
41.26
41.09
40.19
39.02
38.06
37.57
37.49
37.43
36.98
35.81
33.88
31.38
28.61
25.79
22.99
20.20
17.34
14.38
11.34
8.36
5.53
2.92
0.44
-2.11
-5.03
-8.64
-13.09
-18.32
-23.96
-29.55
-34.71
-39.31
-43.56
-48.02
-53.30
-59.80
-67.50
-75.75
-83.32
-88.70
-90.57
-88.15
-81.58
-71.84
-60.44
-49.00
-38.81
-30.54
-24.27
-19.54
-15.62
-11.71
-7.16
-1.65
4.70
11.41
17.79
23.25
27.46
30.50
32.68
34.39
35.88
37.27
38.58
39.82
41.03
42.31
43.64
44.86
45.64
45.64
44.67
42.81
40.41
37.88
35.56
33.56
31.70
29.70
27.25
24.28
20.91
17.39
14.05
11.04
8.36
5.76
2.89
-0.67
-5.18
-10.62
-16.60
-22.46
-27.50
-31.34
-34.04
-36.18
-38.61
-42.16
-47.43
-54.52
-63.06
-72.19
-80.61
-86.83
-89.44
-87.48
-80.81
-70.21
-57.20
-43.57
-30.83
-19.89
-10.87
-3.37
3.32
9.87
16.76
24.06
31.51
38.59
44.68
49.39
52.61
54.57
55.70
56.38
56.90
57.39
57.92
58.49
59.04
59.39
59.22
58.30
56.60
54.43
52.28
50.53
49.24
48.04
46.38
43.82
40.40
36.65
33.34
31.08
29.96
29.45
28.56
26.24
21.89
15.62
8.27
1.08
-4.83
-8.98
-11.64
-13.81
-16.90
-22.43
-31.76
-45.74
-64.21
-85.53
-106.60
-123.43
-132.47
-131.91
-122.55
-107.43
-90.51
-74.90
-61.67
-49.79
-37.04
-21.62
-3.18
17.00
36.71
53.91
67.50
77.42
84.08
87.75
88.23
85.31
79.37
71.92
65.38
62.04
62.99
67.43
72.92
76.39
75.49
69.45
59.27
47.06
35.20
25.48
18.73
14.87
13.14
12.52
12.07
11.10
9.29
6.56
2.96
-1.45
-6.65
-12.59
-19.20
-26.29
-33.57
-40.74
-47.62
-54.18
-60.67
-67.48
-75.08
-83.71
-93.18
-102.75
-111.11
-116.72
-118.15
-114.55
-105.95
-93.25
-78.01
-62.03
-46.91
-33.69
-22.76
-13.87
-6.43
0.24
6.63
12.94
19.08
24.82
30.01
34.65
38.87
42.76
46.29
49.27
51.53
53.01
53.87
54.42
54.88
55.27
55.40
54.91
53.51
51.05
47.58
43.42
39.06
34.97
31.56
28.92
26.78
24.66
22.09
18.85
15.08
11.12
7.24
3.42
-0.64
-5.34
-10.78
-16.79
-22.89
-28.58
-33.55
-37.83
-41.70
-45.64
-50.22
-55.98
-63.33
-72.31
-82.49
-92.79
-101.57
-107.01
-107.64
-102.73
-92.58
-78.46
-62.28
-46.00
-31.13
-18.52
-8.20
0.29
7.62
14.36
20.81
27.01
32.85
38.05
42.45
46.00
48.85
51.28
53.68
56.28
59.12
62.06
64.85
67.22
68.96
69.97
70.12
69.31
67.52
64.85
61.59
58.14
54.89
52.04
49.57
47.23
44.80
42.06
38.97
35.51
31.66
27.38
22.65
17.54
12.26
7.06
2.11
-2.57
-7.15
-11.97
-17.32
-23.37
-30.06
-37.06
-43.95
-50.31
-55.90
-60.78
-65.34
-70.24
-76.16
-83.52
-92.10
-100.94
-108.39
-112.62
-112.13
-106.29
-95.53
-81.18
-65.05
-48.91
-34.08
-21.35
-10.91
-2.52
4.40
10.54
16.50
22.61
28.89
35.08
40.86
46.03
50.53
54.47
57.94
60.95
63.42
65.29
66.60
67.49
68.14
68.63
68.84
68.49
67.33
65.24
62.35
59.01
55.61
52.44
49.56
46.85
44.07
41.10
37.99
34.89
31.99
29.33
26.79
24.14
21.18
17.77
13.95
9.82
5.58
1.41
-2.56
-6.39
-10.29
-14.61
-19.71
-25.78
-32.67
-39.95
-47.03
-53.39
-58.80
-63.46
-67.95
-73.10
-79.64
-87.87
-97.35
-106.80
-114.31
-117.90
-116.10
-108.49
-95.84
-79.79
-62.33
-45.27
-29.86
-16.75
-6.04
2.49
9.38
15.29
20.95
26.86
33.21
39.77
46.03
51.42
55.51
58.20
59.70
60.43
60.89
61.49
62.44
63.74
65.17
66.35
66.87
66.43
64.90
62.47
59.48
56.35
53.41
50.82
48.56
46.44
44.25
41.83
39.08
36.01
32.75
29.39
26.06
22.81
19.63
16.45
13.18
9.77
6.24
2.70
-0.78
-4.09
-7.33
-10.67
-14.41
-18.80
-23.99
-29.93
-36.36
-42.90
-49.14
-54.83
-59.93
-64.66
-69.49
-75.03
-81.83
-90.09
-99.41
-108.66
-116.09
-119.81
-118.30
-111.01
-98.50
-82.35
-64.59
-47.16
-31.48
-18.27
-7.63
0.79
7.58
13.37
18.76
24.15
29.72
35.35
40.80
45.77
50.02
53.47
56.20
58.38
60.19
61.79
63.30
64.77
66.12
67.16
67.60
67.14
65.66
63.22
60.12
56.76
53.52
50.64
48.10
45.77
43.49
41.12
38.66
36.11
33.53
30.96
28.44
25.97
23.52
21.03
18.35
15.38
12.05
8.42
4.61
0.77
-3.05
-6.92
-11.05
-15.68
-20.93
-26.81
-33.16
-39.71
-46.15
-52.22
-57.76
-62.82
-67.64
-72.68
-78.47
-85.44
-93.72
-102.84
-111.72
-118.81
-122.40
-121.17
-114.57
-103.11
-88.12
-71.44
-54.91
-39.90
-27.15
-16.80
-8.55
-1.90
3.73
8.85
13.92
19.32
25.27
31.82
38.81
45.96
52.81
58.96
64.11
68.10
71.04
73.07
74.31
74.69
73.99
71.95
68.47
63.77
58.36
52.95
48.22
44.61
42.20
40.78
39.96
39.32
38.58
37.60
36.41
35.10
33.76
32.39
30.92
29.20
27.05
24.34
21.00
17.13
12.92
8.63
4.45
0.44
-3.49
-7.65
-12.32
-17.75
-24.00
-30.87
-38.01
-44.92
-51.21
-56.71
-61.62
-66.46
-71.97
-78.70
-86.73
-95.34
-103.12
-108.20
-108.87
-104.07
-93.66
-78.48
-60.14
-40.64
-22.03
-6.08
6.07
14.04
18.24
19.75
19.86
19.74
20.16
21.49
23.87
27.33
31.88
37.31
43.10
48.49
52.73
55.42
56.71
57.17
57.45
57.99
58.76
59.39
59.41
58.48
56.51
53.64
50.08
46.11
41.94
37.82
34.00
30.65
27.81
25.32
22.85
20.00
16.48
12.27
7.59
2.84
-1.57
-5.36
-8.51
-11.19
-13.72
-16.49
-19.81
-23.86
-28.60
-33.79
-39.11
-44.26
-49.16
-54.01
-59.23
-65.36
-72.82
-81.71
-91.64
-101.61
-110.14
-115.49
-116.09
-111.02
-100.35
-85.22
-67.50
-49.30
-32.40
-17.83
-5.86
3.89
12.05
19.23
25.83
31.96
37.54
42.40
46.42
49.69
52.47
55.17
58.15
61.55
65.19
68.65
71.43
73.23
74.02
74.00
73.42
72.37
70.75
68.39
65.17
61.21
56.78
52.23
47.77
43.46
39.22
34.95
30.61
26.24
21.90
17.64
13.46
9.37
5.38
1.51
-2.27
-6.15
-10.34
-15.04
-20.33
-26.09
-32.08
-38.03
-43.71
-49.05
-54.12
-59.15
-64.53
-70.80
-78.52
-87.97
-98.90
-110.30
-120.40
-127.07
-128.44
-123.49
-112.44
-96.65
-78.16
-59.07
-41.07
-25.07
-11.35
0.30
10.22
18.77
26.24
32.83
38.72
44.05
48.95
53.45
57.53
61.08
64.01
66.34
68.17
69.72
71.19
72.63
73.92
74.76
74.79
73.78
71.73
68.87
65.55
62.18
59.03
56.18
53.57
51.01
48.30
45.28
41.93
38.35
34.70
31.10
27.56
24.03
20.32
16.33
12.02
7.46
2.76
-1.99
-6.80
-11.83
-17.22
-23.07
-29.36
-35.88
-42.38
-48.57
-54.34
-59.81
-65.34
-71.43
-78.63
-87.26
-97.38
-108.48
-119.51
-128.87
-134.62
-135.00
-128.89
-116.26
-98.37
-77.44
-56.07
-36.45
-19.86
-6.53
4.16
13.11
21.10
28.52
35.39
41.64
47.19
52.13
56.60
60.65
64.24
67.22
69.49
71.11
72.32
73.41
74.60
75.87
76.94
77.42
76.94
75.38
72.89
69.77
66.36
62.95
59.65
56.44
53.20
49.80
46.16
42.29
38.29
34.34
30.67
27.45
24.70
22.26
19.83
17.05
13.71
9.78
5.45
1.04
-3.19
-7.13
-10.93
-14.95
-19.61
-25.24
-31.90
-39.36
-47.16
-54.78
-61.86
-68.33
-74.50
-80.94
-88.33
-97.22
-107.75
-119.36
-130.69
-139.71
-144.21
-142.42
-133.68
-118.70
-99.50
-78.68
-58.72
-41.26
-26.83
-15.03
-4.92
4.41
13.56
22.70
31.68
40.13
47.68
54.08
59.30
63.57
67.29
70.85
74.49
78.18
81.69
84.67
86.87
88.18
88.56
88.00
86.40
83.73
80.05
75.72
71.25
67.22
64.01
61.64
59.70
57.64
54.87
51.11
46.50
41.55
36.91
33.10
30.26
28.05
25.85
23.01
19.12
14.17
8.45
2.47
-3.32
-8.66
-13.53
-18.17
-22.94
-28.19
-34.08
-40.58
-47.41
-54.20
-60.67
-66.79
-72.77
-79.11
-86.41
-95.13
-105.40
-116.77
-127.98
-137.19
-142.29
-141.54
-134.15
-120.64
-102.66
-82.57
-62.73
-44.90
-30.00
-18.02
-8.28
0.26
8.56
17.26
26.41
35.56
44.01
51.12
56.60
60.58
63.45
65.65
67.51
69.18
70.75
72.34
74.03
75.86
77.57
78.75
78.89
77.62
74.89
71.05
66.74
62.62
59.11
56.27
53.78
51.18
48.15
44.62
40.90
37.39
34.39
31.87
29.45
26.57
22.73
17.76
11.88
5.61
-0.52
-6.16
-11.23
-15.98
-20.82
-26.15
-32.17
-38.79
-45.65
-52.24
-58.16
-63.27
-67.83
-72.48
-78.00
-85.12
-94.21
-104.99
-116.41
-126.65
-133.51
-134.88
-129.52
-117.47
-100.18
-80.05
-59.72
-41.26
-25.72
-13.11
-2.75
6.31
14.78
22.98
30.89
38.28
44.90
50.67
55.59
59.75
63.22
66.07
68.40
70.35
72.11
73.77
75.33
76.55
77.10
76.70
75.23
72.80
69.73
66.43
63.31
60.65
58.53
56.78
55.01
52.72
49.57
45.47
40.67
35.63
30.82
26.46
22.50
18.66
14.59
10.05
5.05
-0.17
-5.24
-9.89
-14.05
-17.95
-22.03
-26.78
-32.48
-39.06
-46.17
-53.30
-60.01
-66.08
-71.55
-76.67
-81.82
-87.52
-94.32
-102.63
-112.37
-122.65
-131.71
-137.26
-137.20
-130.43
-117.32
-99.67
-80.08
-61.03
-44.18
-30.10
-18.47
-8.46
0.75
9.72
18.70
27.65
36.33
44.39
51.48
57.38
62.04
65.58
68.24
70.29
71.97
73.42
74.69
75.74
76.48
76.74
76.33
75.06
72.87
69.79
66.05
62.00
58.02
54.43
51.30
48.51
45.78
42.86
39.63
36.20
32.80
29.64
26.79
24.10
21.22
17.78
13.50
8.40
2.74
-3.01
-8.48
-13.48
-18.17
-22.96
-28.32
-34.52
-41.49
-48.85
-56.08
-62.80
-68.92
-74.73
-80.85
-88.04
-96.86
-107.40
-118.96
-129.96
-138.19
-141.40
-138.00
-127.68
-111.64
-92.16
-71.95
-53.29
-37.45
-24.53
-13.74
-4.01
5.57
15.36
25.23
34.74
43.39
50.87
57.05
61.99
65.81
68.71
70.91
72.71
74.38
76.15
78.06
79.91
81.28
81.72
80.90
78.72
75.40
71.38
67.16
63.17
59.59
56.38
53.32
50.15
46.69
42.95
39.10
35.35
31.87
28.63
25.39
21.81
17.58
12.57
6.91
0.93
-5.05
-10.84
-16.51
-22.32
-28.59
-35.50
-42.99
-50.75
-58.29
-65.24
-71.38
-76.84
-82.04
-87.67
-94.49
-103.08
-113.56
-125.20
-136.39
-144.85
-148.24
-144.94
-134.57
-118.26
-98.30
-77.37
-57.79
-40.87
-26.80
-14.90
-4.07
6.65
17.81
29.40
41.01
52.01
61.83
70.10
76.72
81.79
85.58
88.37
90.49
92.22
93.77
95.21
96.47
97.31
97.43
96.51
94.41
91.14
86.95
82.23
77.42
72.87
68.68
64.70
60.60
56.09
51.07
45.71
40.39
35.48
31.13
27.14
23.07
18.51
13.28
7.57
1.83
-3.53
-8.41
-13.14
-18.29
-24.36
-31.49
-39.25
-46.92
-53.83
-59.71
-64.85
-70.00
-76.08
-83.81
-93.48
-104.79
-116.75
-127.81
-136.04
-139.47
-136.74
-127.52
-112.76
-94.47
-75.14
-56.92
-41.06
-27.74
-16.34
-5.89
4.41
14.93
25.58
35.92
45.32
53.25
59.39
63.73
66.65
68.72
70.51
72.36
74.30
76.14
77.63
78.51
78.71
78.19
76.96
75.03
72.45
69.32
65.85
62.26
58.80
55.62
52.73
49.99
47.14
43.91
40.12
35.78
31.07
26.19
21.29
16.37
11.39
6.35
1.35
-3.54
-8.32
-13.23
-18.69
-25.04
-32.34
-40.29
-48.25
-55.56
-61.84
-67.16
-72.07
-77.42
-84.14
-92.88
-103.70
-115.85
-127.70
-137.04
-141.57
-139.62
-130.71
-115.79
-97.02
-77.09
-58.37
-42.28
-28.97
-17.66
-7.09
3.82
15.50
27.69
39.62
50.38
59.28
66.10
71.03
74.54
77.13
79.14
80.70
81.86
82.65
83.14
83.41
83.47
83.20
82.36
80.78
78.44
75.57
72.54
69.71
67.27
65.13
63.00
60.50
57.39
53.62
49.37
44.96
40.66
36.61
32.73
28.79
24.55
19.90
14.87
9.65
4.41
-0.72
-5.79
-10.97
-16.53
-22.65
-29.37
-36.51
-43.73
-50.64
-56.99
-62.74
-68.11
-73.58
-79.86
-87.64
-97.42
-109.07
-121.59
-133.02
-140.88
-142.86
-137.70
-125.69
-108.69
-89.49
-70.76
-54.33
-40.67
-29.22
-18.84
-8.46
2.50
14.05
25.70
36.73
46.47
54.48
60.65
65.13
68.25
70.39
71.83
72.83
73.58
74.23
74.88
75.50
75.92
75.87
75.09
73.42
70.93
67.91
64.77
61.86
59.36
57.15
54.88
52.17
48.82
44.94
40.88
37.03
33.57
30.34
26.94
22.90
18.06
12.53
6.71
0.98
-4.41
-9.54
-14.67
-20.13
-26.14
-32.72
-39.66
-46.62
-53.23
-59.24
-64.65
-69.73
-75.01
-81.17
-88.77
-97.97
-108.23
-118.19
-125.98
-129.55
-127.48
-119.38
-106.16
-89.75
-72.45
-56.22
-42.15
-30.31
-20.02
-10.26
-0.26
10.26
21.03
31.43
40.78
48.66
54.94
59.80
63.52
66.39
68.60
70.27
71.54
72.60
73.60
74.58
75.42
75.78
75.28
73.65
70.88
67.28
63.31
59.51
56.19
53.45
51.08
48.70
46.00
42.78
39.10
35.20
31.43
28.02
24.99
22.09
18.91
15.00
10.19
4.66
-1.12
-6.53
-11.22
-15.25
-19.09
-23.37
-28.58
-34.71
-41.36
-47.95
-54.00
-59.39
-64.39
-69.46
-75.11
-81.81
-89.82
-99.14
-109.30
-119.25
-127.37
-131.77
-130.87
-123.98
-111.62
-95.48
-77.89
-61.09
-46.56
-34.71
-24.93
-16.02
-6.80
3.41
14.63
26.20
37.14
46.56
53.82
58.80
61.83
63.47
64.36
65.12
66.17
67.82
70.19
73.22
76.51
79.43
81.22
81.29
79.52
76.31
72.46
68.80
65.83
63.54
61.51
59.22
56.32
52.72
48.55
43.98
39.16
34.11
28.87
23.53
18.18
12.92
7.75
2.59
-2.67
-8.07
-13.49
-18.67
-23.28
-27.12
-30.22
-32.96
-35.87
-39.40
-43.64
-48.28
-52.75
-56.55
-59.59
-62.25
-65.21
-69.28
-75.00
-82.53
-91.45
-100.73
-108.78
-113.72
-113.87
-108.36
-97.49
-82.78
-66.41
-50.57
-36.73
-25.38
-16.13
-8.16
-0.64
6.91
14.67
22.46
29.97
36.83
42.74
47.53
51.25
54.05
56.18
57.82
59.07
59.98
60.59
61.03
61.42
61.76
61.88
61.44
60.07
57.70
54.59
51.35
48.59
46.65
45.43
44.35
42.76
40.21
36.77
32.95
29.44
26.77
25.01
23.74
22.29
20.03
16.61
12.13
6.99
1.69
-3.36
-8.06
-12.53
-17.05
-21.91
-27.32
-33.31
-39.78
-46.47
-53.00
-59.05
-64.40
-69.11
-73.57
-78.52
-84.76
-92.86
-102.72
-113.33
-122.82
-128.99
-129.95
-124.80
-114.03
-99.26
-82.71
-66.45
-51.79
-39.19
-28.42
-18.94
-10.18
-1.70
6.77
15.39
24.13
32.74
40.75
47.68
53.19
57.21
59.94
61.75
63.09
64.25
65.43
66.70
68.02
69.28
70.26
70.71
70.38
69.13
66.99
64.17
61.01
57.90
55.16
52.98
51.31
49.90
48.35
46.27
43.46
40.02
36.32
32.88
30.06
27.91
26.08
23.99
21.04
16.94
11.79
6.00
0.18
-5.22
-9.96
-14.12
-18.01
-22.07
-26.73
-32.23
-38.60
-45.53
-52.53
-59.10
-64.88
-69.84
-74.35
-79.03
-84.68
-91.92
-100.99
-111.41
-121.89
-130.49
-135.10
-134.07
-126.84
-114.19
-97.97
-80.48
-63.77
-49.04
-36.59
-26.00
-16.50
-7.31
2.09
11.82
21.66
31.11
39.64
46.85
52.60
57.05
60.50
63.25
65.51
67.42
69.06
70.53
71.89
73.13
74.10
74.59
74.39
73.39
71.70
69.48
67.03
64.53
62.10
59.74
57.34
54.81
52.10
49.25
46.34
43.43
40.58
37.76
34.89
31.90
28.75
25.47
22.10
18.69
15.23
11.62
7.76
3.56
-0.94
-5.55
-10.04
-14.13
-17.76
-21.11
-24.61
-28.76
-33.92
-40.08
-46.86
-53.65
-59.91
-65.35
-70.08
-74.59
-79.58
-85.73
-93.57
-103.14
-113.88
-124.47
-132.92
-137.04
-135.17
-126.69
-112.48
-94.60
-75.65
-57.95
-42.90
-30.79
-21.04
-12.66
-4.67
3.62
12.51
21.92
31.45
40.50
48.46
54.92
59.79
63.30
65.83
67.72
69.17
70.29
71.16
71.93
72.75
73.61
74.26
74.34
73.53
71.85
69.52
66.93
64.40
61.99
59.58
57.03
54.33
51.67
49.27
47.22
45.39
43.50
41.19
38.27
34.77
30.90
26.96
23.19
19.66
16.22
12.66
8.74
4.41
-0.20
-4.84
-9.26
-13.33
-17.14
-20.95
-25.10
-29.88
-35.38
-41.47
-47.79
-53.95
-59.58
-64.62
-69.26
-73.97
-79.39
-86.12
-94.51
-104.43
-115.00
-124.64
-131.30
-132.99
-128.54
-117.96
-102.65
-84.84
-66.95
-50.79
-37.21
-26.08
-16.69
-8.16
0.21
8.81
17.66
26.54
35.05
42.77
49.39
54.83
59.19
62.73
65.70
68.23
70.34
72.02
73.27
74.11
74.58
74.66
74.28
73.35
71.84
69.85
67.51
64.98
62.36
59.70
57.05
54.46
51.97
49.57
47.21
44.79
42.25
39.55
36.73
33.80
30.72
27.39
23.71
19.65
15.28
10.77
6.33
2.07
-1.97
-5.85
-9.68
-13.59
-17.66
-21.98
-26.68
-31.89
-37.74
-44.22
-51.15
-58.16
-64.78
-70.66
-75.75
-80.38
-85.26
-91.29
-99.20
-109.23
-120.72
-132.04
-140.84
-144.68
-141.80
-131.81
-115.84
-96.22
-75.65
-56.48
-40.09
-26.86
-16.32
-7.59
0.42
8.63
17.68
27.70
38.31
48.67
57.87
65.17
70.33
73.51
75.16
75.79
75.88
75.82
75.93
76.43
77.32
78.36
79.06
78.89
77.53
74.95
71.46
67.52
63.58
59.94
56.68
53.75
51.03
48.39
45.70
42.86
39.81
36.48
32.90
29.18
25.52
22.14
19.24
16.81
14.64
12.34
9.51
5.88
1.52
-3.25
-7.96
-12.31
-16.32
-20.40
-25.14
-31.00
-38.09
-46.06
-54.26
-62.04
-68.95
-74.98
-80.49
-86.10
-92.53
-100.41
-110.00
-121.00
-132.41
-142.44
-148.92
-149.85
-144.04
-131.59
-113.99
-93.61
-73.03
-54.32
-38.50
-25.59
-14.82
-5.14
4.40
14.34
24.78
35.43
45.81
55.39
63.68
70.31
75.12
78.17
79.81
80.64
81.40
82.69
84.76
87.40
89.97
91.70
92.04
90.82
88.31
85.07
81.68
78.60
76.03
73.99
72.28
70.61
68.63
66.07
62.87
59.18
55.33
51.68
48.49
45.81
43.52
41.33
38.91
35.86
31.84
26.66
20.39
13.46
6.49
0.05
-5.57
-10.53
-15.32
-20.49
-26.40
-33.10
-40.37
-47.86
-55.29
-62.47
-69.36
-76.07
-82.82
-89.98
-97.96
-106.93
-116.56
-125.83
-133.06
-136.29
-133.85
-125.02
-110.36
-91.56
-71.00
-50.95
-33.03
-17.90
-5.39
5.12
14.31
22.63
30.28
37.21
43.31
48.53
52.83
56.24
58.87
60.80
62.17
63.11
63.73
64.19
64.57
64.92
65.16
65.10
64.50
63.16
61.01
58.18
54.93
51.53
48.17
44.89
41.61
38.22
34.71
31.16
27.74
24.54
21.54
18.54
15.32
11.69
7.61
3.19
-1.42
-6.11
-10.80
-15.48
-20.11
-24.65
-29.08
-33.49
-38.03
-42.82
-47.81
-52.79
-57.49
-61.89
-66.35
-71.65
-78.66
-87.91
-99.04
-110.66
-120.50
-126.03
-125.25
-117.29
-102.81
-83.71
-62.64
-42.12
-23.97
-8.93
3.21
13.28
22.24
30.78
39.19
47.31
54.80
61.29
66.59
70.70
73.80
76.08
77.74
78.91
79.75
80.45
81.19
82.06
82.91
83.42
83.14
81.69
78.97
75.15
70.73
66.24
62.11
58.47
55.22
52.04
48.69
45.04
41.18
37.30
33.54
29.94
26.38
22.69
18.71
14.40
9.79
4.96
0.02
-4.89
-9.69
-14.32
-18.89
-23.66
-28.96
-35.07
-41.95
-49.21
-56.18
-62.23
-67.10
-71.09
-75.07
-80.14
-87.26
-96.77
-108.12
-119.84
-129.81
-135.71
-135.69
-128.98
-116.06
-98.65
-79.09
-59.72
-42.24
-27.45
-15.20
-4.84
4.49
13.45
22.38
31.27
39.84
47.74
54.55
60.06
64.20
67.15
69.19
70.63
71.74
72.66
73.49
74.25
74.90
75.34
75.40
74.89
73.58
71.42
68.48
65.06
61.55
58.28
55.42
52.93
50.58
48.13
45.41
42.39
39.19
35.99
32.95
30.08
27.26
24.28
20.90
16.95
12.47
7.62
2.70
-1.97
-6.13
-9.71
-12.86
-15.95
-19.45
-23.83
-29.28
-35.70
-42.65
-49.49
-55.70
-61.04
-65.72
-70.34
-75.68
-82.43
-90.89
-100.69
-110.74
-119.33
-124.54
-124.71
-119.04
-107.87
-92.58
-75.25
-57.95
-42.32
-29.13
-18.36
-9.37
-1.32
6.56
14.65
22.92
31.01
38.43
44.76
49.80
53.61
56.41
58.47
60.02
61.33
62.64
64.15
65.95
67.97
69.88
71.22
71.58
70.70
68.60
65.55
61.99
58.40
55.16
52.44
50.19
48.15
45.95
43.29
40.11
36.57
33.05
29.88
27.23
24.95
22.66
19.91
16.42
12.15
7.33
2.36
-2.41
-6.78
-10.72
-14.39
-18.02
-21.88
-26.13
-30.82
-35.89
-41.17
-46.38
-51.23
-55.55
-59.39
-63.06
-67.12
-72.27
-79.03
-87.43
-96.75
-105.50
-111.74
-113.65
-110.09
-101.10
-87.86
-72.25
-56.34
-41.72
-29.23
-18.96
-10.52
-3.33
3.11
9.11
14.81
20.25
25.37
30.08
34.24
37.74
40.51
42.55
43.98
45.01
45.92
46.89
47.96
49.02
49.77
49.93
49.32
47.96
46.03
43.81
41.59
39.54
37.70
36.01
34.36
32.61
30.67
28.46
25.98
23.35
20.75
18.46
16.69
15.48
14.60
13.60
11.98
9.40
5.90
1.80
-2.41
-6.34
-9.92
-13.44
-17.35
-22.04
-27.68
-34.06
-40.73
-47.22
-53.14
-58.45
-63.35
-68.32
-73.99
-80.92
-89.38
-99.09
-109.07
-117.68
-122.97
-123.30
-117.95
-107.40
-93.21
-77.50
-62.30
-49.00
-38.13
-29.47
-22.27
-15.57
-8.49
-0.46
8.62
18.35
27.95
36.53
43.44
48.43
51.69
53.74
55.13
56.35
57.70
59.30
61.16
63.13
64.96
66.27
66.73
66.10
64.43
61.97
59.17
56.52
54.34
52.71
51.43
50.15
48.48
46.18
43.18
39.65
35.90
32.26
28.97
26.08
23.39
20.54
17.13
12.93
8.00
2.67
-2.60
-7.41
-11.63
-15.42
-19.17
-23.33
-28.23
-33.88
-40.06
-46.36
-52.32
-57.67
-62.43
-66.91
-71.76
-77.68
-85.21
-94.44
-104.76
-114.77
-122.61
-126.30
-124.43
-116.62
-103.70
-87.51
-70.29
-54.02
-39.87
-28.13
-18.35
-9.76
-1.63
6.53
14.86
23.33
31.70
39.70
46.96
53.12
57.91
61.28
63.43
64.80
65.97
67.37
69.25
71.56
73.99
76.11
77.50
77.89
77.29
76.02
74.66
73.89
74.27
76.05
79.04
82.67
86.16
88.83
90.31
90.73
90.55
90.41
90.77
91.63
92.56
92.93
92.21
90.34
87.73
84.93
82.30
79.75
76.72
72.63
67.30
60.99
54.32
47.81
41.44
34.43
25.47
12.96
-4.61
-28.54
-59.62
-97.71
-141.23
-186.86
-229.81
-264.81
-287.57
-296.13
-291.31
-276.29
-255.33
-232.35
-209.96
-189.26
-170.19
-152.33
-135.26
-118.82
-102.92
-87.40
-72.05
-56.65
-41.13
-25.69
-10.77
3.15
15.75
26.89
36.69
45.25
52.62
58.69
63.43
67.05
70.07
73.06
76.33
79.67
82.45
84.00
84.05
82.83
80.96
78.86
76.49
73.29
68.76
62.89
56.36
50.17
44.93
40.37
35.43
28.90
20.20
9.84
-0.84
-10.32
-17.70
-22.96
-26.88
-30.45
-34.43
-39.12
-44.37
-49.78
-54.82
-58.89
-61.47
-62.25
-61.26
-58.99
-56.20
-53.81
-52.58
-52.93
-54.76
-57.46
-59.95
-60.77
-58.48
-52.02
-41.14
-26.63
-10.16
6.18
20.45
31.34
38.47
42.18
43.21
42.35
40.23
37.36
34.29
31.79
30.72
31.83
35.44
41.34
48.99
57.74
67.12
76.81
86.52
95.74
103.55
108.73
110.05
106.59
98.14
85.31
69.52
52.71
36.95
23.82
14.04
7.38
2.91
-0.60
-4.12
-8.26
-13.24
-19.06
-25.45
-31.78
-37.04
-40.07
-40.11
-37.32
-32.96
-29.04
-27.50
-29.15
-33.28
-37.87
-40.47
-39.25
-33.72
-24.85
-14.63
-5.39
0.97
3.29
1.37
-4.19
-12.16
-20.88
-28.63
-33.88
-35.63
-33.55
-28.10
-20.30
-11.43
-2.77
4.75
10.56
14.44
16.50
17.09
16.91
16.87
17.92
20.58
24.67
29.17
32.69
34.21
33.66
32.05
30.90
31.47
34.20
38.92
45.31
53.42
63.35
74.48
84.94
91.93
93.07
88.01
79.04
70.24
65.37
65.87
70.05
74.22
74.79
70.01
60.50
48.19
34.74
20.42
4.18
-15.38
-38.80
-65.06
-91.77
-116.08
-135.73
-149.95
-159.63
-166.74
-173.34
-180.72
-188.94
-197.16
-204.36
-209.92
-213.71
-215.74
-215.63
-212.42
-204.82
-191.80
-173.20
-149.92
-123.77
-96.84
-70.85
-46.84
-25.09
-5.32
12.87
29.70
45.04
58.50
69.75
78.91
86.64
93.93
101.58
109.73
117.86
125.11
130.88
135.11
138.27
140.98
143.54
145.75
146.99
146.74
145.00
142.47
140.33
139.66
140.86
143.39
146.01
147.48
147.11
145.00
141.79
138.06
133.94
129.25
123.78
117.65
110.97
103.21
92.94
78.29
58.28
33.95
8.51
-14.09
-31.21
-43.08
-52.56
-63.32
-77.45
-94.11
-110.24
-122.56
-129.66
-132.78
-134.84
-138.59
-145.05
-153.18
-160.67
-165.36
-166.16
-163.36
-158.12
-151.74
-145.10
-138.45
-131.67
-124.75
-118.03
-112.20
-107.94
-105.41
-104.05
-102.66
-99.92
-94.92
-87.43
-77.88
-66.94
-55.06
-42.19
-27.75
-10.96
8.89
32.02
58.13
86.33
115.38
143.84
170.37
193.97
214.01
230.25
242.64
251.21
255.93
256.76
253.74
247.14
237.64
226.18
213.79
201.24
188.78
176.08
162.50
147.59
131.33
114.29
97.38
81.49
67.14
54.35
42.80
31.88
20.74
8.35
-6.09
-22.56
-39.71
-54.89
-65.08
-68.26
-64.57
-56.56
-48.22
-43.27
-43.73
-49.42
-58.56
-68.83
-78.32
-85.85
-90.73
-92.47
-90.70
-85.47
-77.44
-67.70
-57.45
-47.63
-38.90
-31.67
