1520874756.00
64.000000
-0.00
-0.00
-0.00
-0.00
-0.00
-0.00
-0.00
-0.00
-0.00
-0.00
0.00
0.01
0.01
-0.00
-0.03
-0.05
-0.05
0.00
0.13
0.36
0.66
1.01
1.37
1.72
2.06
2.40
2.79
3.24
3.80
4.42
5.06
5.66
6.20
6.68
7.15
7.68
8.31
9.14
10.09
11.04
11.88
12.56
13.14
13.76
14.65
15.96
17.91
20.32
22.90
25.38
27.58
29.57
31.68
34.32
37.81
42.54
48.15
54.10
59.83
64.97
69.58
74.14
79.34
85.71
93.76
103.00
112.62
121.73
129.77
136.75
143.30
150.75
157.77
166.64
177.95
191.79
206.97
220.57
228.25
225.36
208.53
176.87
132.76
80.05
23.07
-34.94
-92.44
-149.16
-205.23
-260.37
-313.74
-363.87
-409.83
-450.91
-486.50
-515.74
-537.23
-549.22
-549.96
-538.37
-514.21
-478.67
-433.88
-382.45
-327.02
-269.84
-212.63
-156.66
-102.95
-52.37
-5.90
35.58
71.43
101.35
125.50
144.38
158.69
169.15
176.37
180.75
182.57
182.07
179.51
175.23
169.65
163.18
156.15
148.81
141.30
133.69
126.02
118.33
110.69
103.16
95.80
88.68
81.83
75.25
68.95
62.95
57.25
51.86
46.78
42.03
37.59
33.45
29.61
26.07
22.81
19.83
17.11
14.67
12.48
10.54
8.83
7.35
6.07
4.97
4.05
3.27
2.62
2.09
1.65
1.30
1.01
0.79
0.61
0.48
0.37
0.29
0.24
0.20
0.18
0.17
0.18
0.19
0.21
0.24
0.27
0.31
0.35
0.39
0.44
0.48
0.53
0.58
0.63
0.69
0.75
0.81
0.88
0.95
1.04
1.13
1.23
1.35
1.47
1.62
1.78
1.96
2.16
2.38
2.63
2.90
3.20
3.53
3.89
4.29
4.72
5.18
5.69
6.23
6.81
7.42
8.09
8.80
9.57
10.40
11.28
12.17
13.05
13.92
14.80
15.71
16.72
17.83
19.08
20.37
21.63
22.71
23.47
23.81
23.63
22.89
21.56
19.61
16.99
13.67
9.62
4.96
-0.08
-5.20
-10.01
-14.20
-17.58
-20.16
-22.13
-23.72
-25.13
-26.40
-27.35
-27.70
-27.25
-25.99
-24.25
-22.60
-21.62
-21.67
-22.68
-24.11
-25.26
-25.44
-24.49
-22.82
-21.30
-20.87
-22.09
-24.84
-28.26
-31.22
-32.81
-32.68
-31.30
-29.69
-28.94
-29.98
-33.41
-39.34
-47.13
-55.02
-60.06
-58.73
-48.21
-27.90
-0.26
29.59
55.64
73.23
80.62
79.19
72.20
63.12
54.21
46.10
38.56
31.39
25.05
20.55
18.72
19.58
22.21
25.04
26.80
26.63
24.52
21.13
17.41
14.00
10.95
7.77
3.88
-1.10
-7.08
-13.50
-19.74
-25.48
-31.02
-37.13
-44.65
-53.88
-64.04
-73.11
-78.37
-77.22
-68.23
-51.79
-29.97
-5.88
17.37
37.40
52.90
63.53
69.51
71.25
69.27
64.22
57.11
49.18
41.80
36.10
32.70
31.54
32.03
33.35
34.76
35.84
36.51
36.86
36.81
36.01
33.88
29.80
23.40
14.84
4.81
-5.62
-15.40
-23.85
-30.86
-36.92
-42.83
-49.45
-57.38
-66.78
-77.19
-87.52
-95.92
-100.19
-98.17
-88.54
-71.40
-48.53
-22.97
1.81
22.95
38.91
49.57
55.82
58.85
59.60
58.55
55.91
51.98
47.41
43.12
39.94
38.31
38.09
38.72
39.54
40.09
40.12
39.65
38.63
36.93
34.39
30.91
26.62
21.76
16.54
11.00
5.03
-1.51
-8.65
-16.20
-23.82
-31.17
-37.96
-44.05
-49.47
-54.47
-59.51
-65.28
-72.42
-81.16
-90.89
-99.96
-105.85
-105.97
-98.53
-83.27
-61.65
-36.41
-10.76
12.52
31.62
45.80
55.18
60.32
61.99
61.03
58.28
54.58
50.62
46.97
44.07
42.25
41.75
42.63
44.75
47.57
50.29
52.03
52.02
49.95
46.03
40.82
35.04
29.24
23.62
18.05
12.24
5.99
-0.68
-7.59
-14.46
-21.10
-27.43
-33.44
-39.21
-44.79
-50.29
-55.97
-62.29
-69.71
-78.49
-88.25
-97.67
-104.58
-106.39
-100.96
-87.46
-66.84
-41.71
-15.61
8.15
27.43
41.58
51.09
56.85
59.55
59.48
56.80
51.99
46.06
40.35
36.14
34.12
34.24
35.91
38.31
40.73
42.73
44.02
44.37
43.44
40.89
36.62
30.90
24.30
17.54
11.12
5.07
-1.00
-7.60
-14.94
-22.84
-30.65
-37.69
-43.55
-48.31
-52.59
-57.24
-63.00
-70.22
-78.67
-87.47
-95.06
-99.46
-98.57
-90.91
-76.00
-54.98
-30.30
-5.14
17.45
35.45
48.17
55.94
59.58
59.82
57.08
51.78
44.65
37.07
30.79
27.32
27.32
30.29
34.83
39.20
42.06
42.88
41.88
39.66
36.78
33.48
29.56
24.70
18.62
11.34
3.28
-4.93
-12.58
-19.27
-24.99
-30.19
-35.50
-41.63
-49.03
-57.82
-67.76
-78.25
-88.33
-96.64
-101.57
-101.39
-94.87
-81.60
-62.48
-39.61
-15.71
6.53
25.08
38.95
48.09
52.90
53.99
51.94
47.37
41.22
34.80
29.64
27.02
27.49
30.51
34.71
38.42
40.41
40.39
38.98
37.15
35.52
33.88
31.23
26.48
19.03
9.29
-1.51
-11.87
-20.69
-27.67
-33.26
-38.30
-43.58
-49.75
-57.16
-65.93
-75.91
-86.42
-96.15
-103.16
-105.40
-101.25
-90.15
-72.79
-50.96
-27.09
-3.67
17.14
33.80
45.44
51.84
53.33
50.69
44.98
37.46
29.46
22.21
16.76
13.72
13.22
14.72
17.17
19.28
19.95
18.63
15.37
10.62
4.80
-1.99
-10.00
-19.55
-30.64
-42.76
-55.06
-66.73
-77.41
-87.35
-97.27
-107.97
-119.97
-133.21
-146.92
-159.61
-169.18
-173.06
-168.82
-154.85
-130.95
-98.65
-60.86
-21.12
17.41
52.40
82.57
107.20
125.82
138.04
143.79
143.77
139.55
133.31
127.20
122.58
119.71
117.95
116.27
113.86
110.46
106.29
101.65
96.58
90.77
83.65
74.73
63.97
51.75
38.88
26.34
14.89
4.93
-3.69
-11.56
-19.53
-28.41
-38.73
-50.50
-63.13
-75.30
-84.96
-89.74
-87.51
-77.14
-59.22
-35.95
-10.66
13.32
33.57
49.03
59.79
66.41
69.39
68.94
65.29
59.13
51.81
45.14
40.75
39.49
41.07
44.25
47.37
49.06
48.73
46.65
43.61
40.43
37.42
34.28
30.30
24.81
17.56
8.93
-0.20
-8.85
-16.37
-22.54
-27.71
-32.53
-37.75
-44.01
-51.78
-61.33
-72.54
-84.81
-96.76
-106.22
-110.56
-107.34
-95.26
-74.86
-48.50
-19.89
7.15
29.75
46.54
57.68
64.17
67.16
67.56
65.98
63.00
59.30
55.74
53.03
51.55
51.24
51.74
52.62
53.54
54.35
54.95
55.19
54.81
53.41
50.60
46.16
40.20
33.15
25.64
18.21
11.06
4.05
-3.19
-10.91
-18.96
-26.80
-33.74
-39.31
-43.60
-47.33
-51.60
-57.53
-65.89
-76.77
-89.33
-101.72
-111.32
-115.29
-111.50
-99.18
-79.33
-54.45
-27.73
-2.18
20.10
38.00
51.25
60.08
64.94
66.42
65.31
62.54
59.10
55.90
53.60
52.56
52.71
53.68
54.90
55.80
56.09
55.79
55.13
54.30
53.18
51.28
48.02
43.08
36.64
29.41
22.23
15.63
9.56
3.47
-3.27
-10.91
-19.08
-26.94
-33.64
-38.80
-42.77
-46.48
-51.11
-57.66
-66.62
-77.77
-90.04
-101.56
-109.81
-112.13
-106.40
-91.94
-69.91
-43.23
-15.69
9.20
29.19
43.62
53.08
58.63
61.24
61.53
59.90
56.89
53.24
49.85
47.40
46.28
46.45
47.66
49.52
51.62
53.45
54.46
54.15
52.19
48.56
43.50
37.49
31.02
24.50
18.14
11.95
5.81
-0.52
-7.27
-14.48
-22.00
-29.40
-36.23
-42.18
-47.19
-51.67
-56.29
-61.96
-69.40
-78.76
-89.22
-98.90
-105.10
-105.15
-97.25
-81.30
-59.00
-33.45
-8.15
13.96
31.19
43.22
50.69
54.71
56.34
56.36
55.23
53.22
50.62
47.90
45.65
44.43
44.57
46.02
48.32
50.74
52.50
52.99
51.96
49.46
45.78
41.24
36.05
30.22
23.75
16.69
9.29
1.94
-5.04
-11.48
-17.45
-23.14
-28.72
-34.18
-39.42
-44.56
-50.05
-56.71
-65.28
-75.88
-87.50
-98.04
-104.74
-105.10
-97.79
-83.08
-62.75
-39.39
-15.67
6.32
25.26
40.46
51.57
58.41
61.04
59.83
55.63
49.66
43.42
38.32
35.35
34.78
36.18
38.53
40.70
41.87
41.80
40.85
39.50
38.03
36.21
33.41
28.91
22.29
13.67
3.73
-6.53
-16.11
-24.24
-30.56
-35.21
-38.75
-41.96
-45.73
-50.89
-58.05
-67.34
-78.12
-88.83
-97.05
-100.11
-95.87
-83.60
-64.35
-40.64
-15.69
7.61
27.29
42.34
52.57
58.12
59.36
56.91
51.74
45.28
39.11
34.62
32.68
33.42
36.23
39.98
43.37
45.33
45.33
43.52
40.55
37.17
33.76
30.16
25.61
19.40
11.22
1.48
-8.76
-18.32
-26.26
-32.38
-37.06
-41.18
-45.74
-51.70
-59.64
-69.63
-80.86
-91.65
-99.56
-102.04
-97.22
-84.52
-65.04
-41.17
-15.97
7.72
27.86
43.48
54.41
60.95
63.49
62.43
58.39
52.44
46.11
41.19
39.09
40.32
44.28
49.52
54.42
57.76
59.02
58.31
55.96
52.23
47.25
41.10
34.00
26.37
18.76
11.66
5.37
-0.04
-4.68
-8.76
-12.51
-16.16
-19.99
-24.23
-29.28
-35.66
-43.85
-54.00
-65.38
-76.21
-83.85
-85.59
-79.59
-65.72
-45.64
-22.31
1.05
21.97
39.19
52.58
62.57
69.66
73.96
75.39
73.95
70.07
64.72
59.22
54.87
52.64
52.77
54.86
58.09
61.45
64.13
65.62
65.72
64.29
61.15
56.01
48.60
38.82
27.06
14.10
0.96
-11.35
-22.15
-31.16
-38.55
-44.87
-50.92
-57.68
-66.09
-76.69
-89.21
-102.35
-113.80
-120.71
-120.61
-112.28
-96.30
-74.89
-51.31
-28.68
-9.20
6.28
17.88
26.14
31.38
33.53
32.44
28.35
22.19
15.37
9.35
5.30
3.72
4.53
7.22
10.96
14.83
17.93
19.60
19.53
17.84
14.84
10.79
5.75
-0.35
-7.54
-15.48
-23.48
-30.70
-36.56
-40.95
-44.27
-47.30
-50.94
-56.01
-63.05
-72.17
-82.82
-93.67
-102.66
-107.42
-105.82
-96.80
-80.73
-59.46
-35.87
-12.94
6.83
22.04
32.26
37.74
39.07
36.84
31.71
24.44
16.00
7.49
-0.14
-6.30
-10.93
-14.46
-17.60
-20.99
-25.05
-29.95
-35.71
-42.51
-50.71
-60.76
-72.75
-85.91
-98.44
-107.86
-111.79
-108.99
-99.93
-86.70
-72.35
-59.79
-51.05
-46.91
-46.92
-49.73
-53.37
-55.51
-53.95
-47.21
-35.03
-18.50
0.22
18.84
35.76
50.44
63.20
74.58
84.71
93.11
98.90
101.27
100.01
95.56
88.83
80.89
72.64
64.67
57.33
50.84
45.52
41.67
39.47
38.75
38.81
38.47
36.51
32.08
25.07
16.29
7.11
-1.02
-7.09
-10.80
-12.68
-13.70
-14.97
-17.48
-21.99
-29.01
-38.83
-51.26
-65.41
-79.43
-90.64
-96.07
-93.34
-81.65
-62.11
-37.40
-10.91
14.32
36.24
53.89
67.00
75.64
79.99
80.50
78.09
74.13
70.06
66.97
65.14
64.03
62.72
60.47
57.14
53.24
49.69
47.22
46.03
45.53
44.57
41.78
36.15
27.39
16.07
3.35
-9.42
-21.34
-32.32
-43.11
-54.87
-68.40
-83.46
-98.49
-110.71
-116.92
-114.48
-102.16
-80.58
-52.07
-20.09
11.64
39.86
62.28
77.85
86.59
89.33
87.31
81.91
74.41
65.95
57.48
49.85
43.73
39.56
37.47
37.25
38.42
40.34
42.39
44.03
44.70
43.81
40.74
35.04
26.65
16.16
4.62
-6.65
-16.70
-25.27
-32.99
-41.05
-50.71
-62.62
-76.31
-90.11
-101.44
-107.45
-105.88
-95.72
-77.67
-53.82
-27.28
-1.25
21.68
39.88
52.71
60.16
62.63
60.75
55.40
47.69
38.92
30.24
22.45
15.77
9.90
4.28
-1.60
-7.87
-14.12
-19.48
-23.00
-24.05
-22.60
-19.29
-15.19
-11.36
-8.55
-7.04
-6.83
-7.96
-10.59
-14.88
-20.71
-27.28
-33.13
-36.39
-35.23
-28.38
-15.44
2.97
25.27
49.14
71.91
91.01
104.57
111.63
112.26
107.35
98.27
86.51
73.54
60.71
49.28
40.27
34.38
31.85
32.37
35.17
39.28
43.64
47.39
49.87
50.58
49.16
45.43
39.48
31.83
23.34
15.03
7.78
2.00
-2.59
-6.84
-11.96
-19.09
-28.99
-41.66
-56.03
-69.91
-80.31
-84.17
-79.33
-65.42
-44.07
-18.50
7.49
30.66
48.92
61.48
68.45
70.31
67.71
61.32
51.99
40.82
29.10
18.14
9.06
2.60
-0.95
-1.82
-0.62
1.85
4.74
7.22
8.58
8.13
5.42
0.34
-6.69
-14.80
-22.94
-30.46
-37.29
-44.02
-51.63
-60.81
-71.70
-83.47
-94.45
-102.40
-105.03
-100.59
-88.35
-69.01
-44.50
-17.68
8.40
31.12
48.70
60.31
66.04
66.69
63.52
58.02
51.61
45.38
39.82
34.89
30.31
25.82
21.45
17.45
14.21
11.91
10.39
9.21
7.71
5.31
1.63
-3.41
-9.55
-16.33
-23.26
-30.01
-36.63
-43.54
-51.44
-60.84
-71.60
-82.55
-91.49
-95.69
-92.79
-81.53
-62.42
-37.66
-10.57
15.32
37.17
53.36
63.56
68.35
68.79
65.84
60.30
52.80
43.90
34.30
24.90
16.72
10.61
7.13
6.27
7.47
9.80
12.17
13.66
13.67
12.01
8.91
4.81
0.17
-4.79
-10.16
-16.48
-24.55
-35.10
-48.34
-63.56
-78.87
-91.44
-98.11
-96.31
-84.90
-64.60
-37.97
-8.70
19.36
43.09
60.68
71.60
76.26
75.49
70.16
61.13
49.35
36.00
22.49
10.24
0.41
-6.50
-10.69
-12.81
-13.80
-14.52
-15.57
-17.24
-19.60
-22.57
-26.04
-29.90
-34.11
-38.70
-43.75
-49.43
-55.87
-63.05
-70.60
-77.63
-82.68
-83.95
-79.62
-68.54
-50.76
-27.67
-1.86
23.55
45.68
62.57
73.38
78.33
78.18
73.87
66.29
56.36
45.23
34.32
25.08
18.67
15.53
15.17
16.46
17.99
18.64
17.84
15.55
12.02
7.52
2.13
-4.21
-11.57
-19.98
-29.40
-39.79
-51.03
-62.76
-74.20
-83.90
-89.97
-90.39
-83.74
-69.75
-49.55
-25.48
-0.45
22.78
42.19
56.65
65.83
69.78
68.79
63.45
54.67
44.00
33.25
24.19
18.05
15.03
14.44
15.04
15.55
15.13
13.63
11.32
8.69
6.11
3.61
1.00
-2.12
-6.16
-11.60
-18.82
-28.01
-38.79
-50.03
-59.89
-66.14
-66.86
-60.97
-48.70
-31.46
-11.46
8.86
27.37
42.52
53.42
59.69
61.31
58.55
52.00
42.67
32.01
21.68
13.26
7.81
5.57
5.93
7.75
9.78
11.00
10.88
9.33
6.61
3.16
-0.64
-4.63
-8.98
-14.02
-20.22
-27.93
-37.17
-47.50
-57.92
-66.91
-72.59
-73.15
-67.28
-54.74
-36.50
-14.60
8.35
29.88
48.14
62.10
71.41
76.07
76.20
72.05
64.10
53.25
40.81
28.38
17.36
8.59
2.12
-2.78
-7.07
-11.60
-16.71
-22.15
-27.36
-31.88
-35.52
-38.58
-41.67
-45.52
-50.74
-57.72
-66.29
-75.63
-84.18
-89.85
-90.50
-84.63
-71.92
-53.52
-31.65
-9.07
11.86
29.60
43.50
53.42
59.29
60.97
58.36
51.88
42.74
32.81
24.12
18.16
15.41
15.26
16.41
17.43
17.32
15.70
12.71
8.76
4.20
-0.82
-6.41
-12.76
-20.08
-28.55
-38.32
-49.48
-61.80
-74.44
-85.67
-93.22
-94.74
-88.80
-75.47
-56.40
-34.26
-11.91
8.30
24.75
36.44
42.80
43.61
39.26
30.94
20.57
10.45
2.61
-1.59
-1.78
1.46
6.89
12.91
17.96
20.92
21.39
19.68
16.54
12.68
8.30
3.09
-3.71
-12.81
-24.61
-38.97
-54.98
-71.06
-84.98
-94.18
-96.28
-89.85
-74.87
-52.91
-26.83
0.06
24.76
45.18
60.28
69.93
74.45
74.39
70.44
63.46
54.63
45.46
37.58
32.32
30.22
30.71
32.35
33.36
32.38
28.99
23.73
17.69
11.84
6.53
1.45
-4.17
-11.13
-19.88
-30.39
-42.14
-54.12
-64.83
-72.38
-74.79
-70.59
-59.31
-41.96
-20.82
1.13
21.06
37.02
48.12
54.35
56.02
53.48
47.09
37.48
25.76
13.58
2.76
-5.15
-9.41
-10.16
-8.30
-5.09
-1.76
0.89
2.53
3.20
3.07
2.28
0.76
-1.76
-5.67
-11.48
-19.67
-30.51
-43.70
-58.05
-71.31
-80.49
-82.62
-75.73
-59.61
-35.98
-8.02
20.55
46.44
67.43
82.52
91.69
95.51
94.81
90.55
83.73
75.41
66.78
58.93
52.77
48.78
46.91
46.57
46.78
46.49
44.80
41.26
35.89
29.12
21.60
13.91
6.37
-0.93
-8.18
-15.59
-23.41
-31.91
-41.42
-52.15
-63.87
-75.52
-85.11
-90.10
-88.06
-77.75
-59.66
-36.03
-10.25
14.23
34.84
50.33
60.67
66.42
68.24
66.60
61.88
54.73
46.21
37.75
30.75
26.13
24.04
23.90
24.73
25.49
25.34
23.72
20.28
14.90
7.79
-0.50
-9.18
-17.50
-24.98
-31.76
-38.50
-46.18
-55.83
-67.97
-82.23
-97.02
-109.58
-116.41
-114.17
-100.83
-76.60
-44.22
-8.33
25.78
53.71
72.87
82.76
84.45
79.70
70.28
57.61
42.82
27.03
11.53
-2.28
-13.11
-20.04
-22.77
-21.54
-17.02
-10.05
-1.50
7.84
17.18
25.61
32.13
35.79
35.95
32.53
25.97
17.15
7.04
-3.52
-13.83
-23.23
-30.77
-35.07
-34.55
-27.92
-14.72
4.09
26.32
49.05
69.35
85.14
95.42
100.19
100.15
96.22
89.31
80.46
70.87
61.91
54.88
50.66
49.34
50.16
51.84
53.00
52.69
50.66
47.29
43.23
39.02
34.74
30.08
24.63
18.28
11.36
4.54
-1.54
-6.56
-10.78
-14.86
-19.68
-26.03
-34.30
-44.38
-55.43
-65.79
-73.19
-75.22
-70.10
-57.47
-38.77
-16.96
4.43
22.32
34.93
41.98
44.21
42.79
38.73
32.66
25.07
16.54
7.93
0.32
-5.33
-8.49
-9.29
-8.42
-6.96
-5.90
-5.81
-6.75
-8.36
-10.24
-12.18
-14.47
-17.65
-22.32
-28.84
-37.17
-47.00
-57.88
-69.26
-80.31
-89.68
-95.52
-95.85
-89.29
-75.73
-56.58
-34.40
-12.16
7.65
23.44
34.56
40.92
42.64
39.94
33.28
23.61
12.44
1.59
-7.22
-12.94
-15.41
-15.39
-14.24
-13.43
-13.95
-15.95
-18.81
-21.49
-23.06
-23.16
-22.20
-21.21
-21.44
-23.91
-29.04
-36.37
-44.58
-51.60
-55.15
-53.32
-45.17
-31.13
-12.78
7.57
27.56
45.36
59.68
69.67
74.72
74.45
69.03
59.44
47.48
35.38
25.26
18.43
15.18
14.85
16.24
18.00
19.10
18.86
17.14
14.20
10.57
6.73
2.93
-1.05
-5.84
-12.28
-21.07
-32.38
-45.55
-59.02
-70.46
-77.26
-77.27
-69.45
-54.26
-33.70
-10.64
11.91
31.50
46.65
56.76
61.83
62.12
58.16
50.73
41.07
30.79
21.58
14.86
11.38
10.99
12.71
15.09
16.71
16.66
14.73
11.33
7.13
2.65
-2.00
-7.07
-13.01
-20.29
-29.23
-39.82
-51.58
-63.25
-72.82
-77.80
-75.95
-66.11
-48.81
-26.28
-1.63
22.04
42.48
58.55
69.89
76.44
78.18
75.13
67.78
57.24
45.31
33.98
24.90
18.99
16.22
15.82
16.62
17.52
17.70
16.75
14.64
11.54
7.60
2.81
-3.02
-10.20
-18.96
-29.33
-40.85
-52.48
-62.61
-69.29
-70.62
-65.35
-53.42
-36.18
-16.20
3.48
20.31
32.88
41.05
45.46
46.79
45.32
40.94
33.63
24.07
13.75
4.57
-2.00
-5.49
-6.70
-7.10
-8.07
-10.22
-13.23
-16.29
-18.66
-20.13
-21.06
-22.23
-24.46
-28.47
-34.78
-43.68
-54.98
-67.80
-80.40
-90.34
-95.13
-92.99
-83.51
-67.78
-47.98
-26.61
-5.82
12.85
28.42
40.19
47.51
49.92
47.46
40.93
31.91
22.53
14.82
10.22
9.19
11.17
14.88
18.87
21.87
23.04
22.06
19.01
14.26
8.25
1.42
-6.00
-14.14
-23.42
-34.34
-47.05
-60.85
-73.99
-83.96
-88.17
-84.76
-73.47
-55.62
-33.87
-11.28
9.40
26.44
39.04
47.18
51.13
51.11
47.35
40.31
31.00
20.93
11.92
5.49
2.33
2.12
3.73
5.68
6.72
6.21
4.17
1.05
-2.65
-6.65
-11.15
-16.65
-23.69
-32.59
-43.29
-55.31
-67.78
-79.56
-89.22
-95.08
-95.46
-89.09
-75.63
-56.10
-32.73
-8.49
13.84
32.39
46.40
55.89
61.14
62.27
59.34
52.77
43.70
33.94
25.59
20.25
18.48
19.57
22.00
24.05
24.46
22.81
19.39
14.89
9.92
4.68
-1.04
-7.68
-15.60
-24.91
-35.50
-47.14
-59.58
-72.23
-83.91
-92.56
-95.64
-90.82
-77.08
-55.33
-28.37
-0.03
25.99
47.10
62.26
71.60
75.83
75.71
71.87
64.96
56.02
46.51
38.08
32.13
29.27
29.11
30.42
31.62
31.41
29.08
24.76
19.11
12.93
6.81
0.89
-5.11
-11.74
-19.48
-28.70
-39.50
-51.70
-64.79
-77.76
-89.04
-96.53
-97.99
-91.67
-77.09
-55.32
-28.97
-1.42
24.05
45.18
60.91
71.27
76.84
78.25
76.12
70.99
63.63
55.11
46.74
39.76
35.07
32.92
32.84
33.76
34.42
33.68
30.95
26.24
20.05
13.11
6.00
-1.07
-8.17
-15.59
-23.65
-32.69
-43.03
-54.94
-68.26
-82.07
-94.46
-102.66
-103.82
-95.94
-78.80
-54.22
-25.66
2.79
27.63
46.74
59.70
67.26
70.59
70.74
68.35
63.75
57.36
49.96
42.58
36.35
32.10
30.09
29.96
30.88
31.78
31.67
29.85
26.10
20.60
13.85
6.41
-1.31
-9.14
-17.14
-25.45
-34.33
-44.17
-55.33
-67.85
-80.94
-92.66
-100.10
-100.19
-90.96
-72.47
-46.99
-18.24
9.81
34.12
53.15
66.64
75.05
79.02
79.04
75.65
69.58
61.88
53.88
46.93
42.03
39.59
39.37
40.61
42.20
43.06
42.34
39.63
34.88
28.36
20.54
11.95
3.08
-5.66
-14.09
-22.27
-30.57
-39.61
-49.99
-61.92
-74.74
-86.72
-95.16
-97.09
-90.35
-74.44
-50.90
-22.99
5.37
30.68
50.70
64.63
72.85
76.25
75.84
72.43
66.66
59.21
50.97
43.07
36.61
32.31
30.23
29.73
29.69
29.06
27.19
23.99
19.76
14.81
9.32
3.16
-3.85
-11.76
-20.40
-29.57
-39.20
-49.37
-60.10
-70.84
-80.26
-86.30
-86.73
-79.95
-65.65
-45.09
-20.82
4.05
26.69
45.14
58.55
66.93
70.76
70.67
67.36
61.61
54.41
46.93
40.31
35.43
32.60
31.51
31.45
31.53
31.07
29.69
27.21
23.61
18.94
13.22
6.60
-0.75
-8.63
-16.88
-25.46
-34.48
-44.21
-54.86
-66.20
-77.28
-86.33
-90.94
-88.77
-78.46
-60.26
-36.25
-9.78
15.59
37.00
52.95
63.24
68.52
69.70
67.62
63.02
56.65
49.46
42.51
36.79
32.94
31.14
31.02
31.87
32.81
33.06
32.05
29.45
25.25
19.62
12.91
5.51
-2.15
-9.73
-17.03
-24.08
-31.20
-38.99
-48.06
-58.78
-70.89
-83.22
-93.73
-99.92
-99.47
-91.04
-74.79
-52.46
-26.87
-1.14
22.15
41.30
55.62
65.08
70.02
70.89
68.34
63.30
56.98
50.71
45.57
42.08
40.10
39.04
38.22
37.26
36.20
35.32
34.79
34.31
33.08
30.03
24.32
15.76
5.04
-6.50
-17.33
-26.27
-32.86
-37.56
-41.50
-46.13
-52.75
-61.98
-73.49
-85.73
-96.19
-101.97
-100.47
-90.30
-71.77
-46.97
-19.28
7.58
30.50
47.67
58.75
64.47
66.05
64.62
61.12
56.29
50.91
45.93
42.18
40.15
39.76
40.44
41.34
41.76
41.36
40.16
38.43
36.44
34.31
31.86
28.61
23.91
17.30
8.76
-1.07
-11.05
-20.03
-27.28
-32.87
-37.55
-42.36
-48.18
-55.56
-64.68
-75.31
-86.77
-97.72
-106.03
-109.14
-104.81
-91.92
-71.24
-45.32
-17.76
7.86
28.96
44.54
54.94
61.21
64.44
65.31
64.05
60.80
55.99
50.53
45.64
42.34
41.08
41.50
42.73
43.81
44.11
43.48
42.11
40.31
38.11
35.38
31.80
27.07
20.96
13.48
4.88
-4.27
-13.13
-20.86
-26.95
-31.52
-35.32
-39.47
-44.93
-52.22
-61.28
-71.64
-82.50
-92.82
-101.17
-105.67
-104.36
-95.79
-79.73
-57.51
-31.81
-5.92
17.21
35.62
48.59
56.43
60.08
60.66
59.21
56.53
53.21
49.66
46.28
43.40
41.42
40.61
40.98
42.29
44.00
45.44
45.99
45.26
43.10
39.63
35.17
30.12
24.79
19.34
13.68
7.56
0.75
-6.80
-14.83
-22.90
-30.51
-37.31
-43.17
-48.19
-52.63
-56.99
-61.97
-68.43
-76.92
-87.21
-97.86
-106.34
-109.63
-105.33
-92.57
-72.38
-47.42
-20.99
3.88
25.08
41.56
53.06
59.83
62.40
61.47
57.96
52.95
47.48
42.52
38.73
36.42
35.55
35.80
36.64
37.54
38.07
37.97
37.20
35.73
33.53
30.50
26.51
21.59
15.98
10.09
4.29
-1.17
-6.31
-11.34
-16.54
-22.10
-28.07
-34.34
-40.78
-47.20
-53.57
-60.09
-67.09
-74.92
-83.57
-92.27
-99.37
-102.63
-99.94
-90.06
-73.26
-51.36
-27.09
-3.32
17.75
34.90
47.75
56.39
61.02
61.87
59.33
54.16
47.62
41.23
36.45
34.15
34.40
36.47
39.17
41.37
42.39
42.12
40.83
38.87
36.50
33.80
30.75
27.33
23.52
19.18
14.00
7.60
-0.25
-9.40
-19.27
-29.03
-37.92
-45.47
-51.60
-56.59
-60.98
-65.52
-71.05
-78.24
-87.18
-96.90
-105.28
-109.45
-106.67
-95.37
-75.95
-50.75
-23.43
2.23
23.43
38.85
48.62
53.80
55.52
54.67
51.80
47.35
42.03
36.89
33.04
31.25
31.55
33.28
35.33
36.78
37.13
36.47
35.22
33.82
32.34
30.46
27.64
23.29
17.09
9.10
-0.14
-9.78
-18.88
-26.63
-32.69
-37.24
-40.99
-44.91
-50.00
-56.98
-66.08
-76.88
-88.20
-98.12
-104.29
-104.43
-97.04
-81.95
-60.72
-36.08
-11.28
10.97
29.09
42.67
52.09
57.89
60.32
59.45
55.55
49.42
42.50
36.41
32.50
31.24
32.25
34.53
36.93
38.55
38.94
38.05
36.12
33.47
30.33
26.76
22.57
17.43
11.06
3.41
-5.20
-14.17
-22.78
-30.57
-37.35
-43.31
-48.97
-55.03
-62.27
-71.09
-81.32
-91.82
-100.56
-105.07
-103.24
-94.05
-77.93
-56.63
-32.63
-8.48
13.74
32.61
47.31
57.43
62.94
64.14
61.67
56.55
49.99
43.31
37.65
33.82
32.07
32.11
33.29
34.79
36.01
36.55
36.24
34.96
32.49
28.54
22.88
15.55
7.00
-2.02
-10.62
-18.11
-24.20
-29.16
-33.83
-39.41
-47.05
-57.41
-70.11
-83.48
-94.73
-100.67
-98.66
-87.63
-68.49
-43.87
-17.32
7.82
29.17
45.64
57.15
64.15
67.17
66.71
63.24
57.51
50.60
43.92
38.73
35.84
35.28
36.34
37.89
38.93
39.01
38.27
37.08
35.70
33.82
30.71
25.64
18.33
9.34
-0.16
-8.88
-15.94
-21.33
-25.77
-30.49
-36.72
-45.35
-56.55
-69.59
-82.81
-93.76
-99.66
-98.25
-88.44
-70.81
-47.47
-21.45
4.12
26.85
45.36
59.18
68.34
73.11
73.78
70.86
65.23
58.17
51.14
45.49
42.05
40.97
41.80
43.63
45.52
46.68
46.69
45.45
43.12
39.94
36.14
31.83
26.94
21.24
14.52
6.72
-1.87
-10.61
-18.76
-25.80
-31.72
-37.07
-42.72
-49.54
-58.06
-68.28
-79.64
-90.99
-100.61
-106.40
-106.26
-98.73
-83.55
-61.97
-36.50
-10.23
14.01
34.30
49.80
60.47
66.68
68.92
67.66
63.49
57.35
50.48
44.34
40.13
38.47
39.17
41.30
43.62
45.00
44.85
43.24
40.73
37.93
35.30
32.81
30.03
26.33
21.17
14.43
6.43
-2.14
-10.51
-18.10
-24.79
-30.84
-36.83
-43.42
-51.19
-60.48
-71.07
-81.96
-91.25
-96.40
-94.97
-85.45
-68.06
-44.82
-19.02
5.86
27.18
43.67
55.32
62.78
66.71
67.50
65.37
60.71
54.34
47.52
41.58
37.53
35.73
35.78
36.77
37.68
37.80
36.98
35.55
34.01
32.70
31.46
29.64
26.31
20.77
12.89
3.25
-7.07
-16.88
-25.31
-32.14
-37.67
-42.57
-47.58
-53.33
-60.31
-68.85
-78.99
-90.08
-100.67
-108.36
-110.45
-104.78
-90.69
-69.47
-43.91
-17.47
6.92
27.49
43.71
55.75
63.90
68.29
68.94
66.24
61.11
54.97
49.30
45.12
42.75
41.79
41.49
41.29
40.99
40.79
41.05
41.83
42.79
43.19
42.12
38.98
33.53
26.06
17.18
7.66
-1.77
-10.59
-18.56
-25.69
-32.30
-38.90
-46.07
-54.29
-63.70
-73.86
-83.52
-90.76
-93.33
-89.36
-78.07
-60.24
-38.01
-14.24
8.36
27.96
43.78
55.70
63.81
68.01
68.12
64.28
57.31
48.84
40.82
34.99
32.26
32.49
34.69
37.49
39.65
40.56
40.19
38.92
37.07
34.65
31.22
26.14
19.04
10.18
0.44
-8.86
-16.63
-22.48
-26.84
-30.74
-35.35
-41.58
-49.80
-59.83
-70.93
-81.73
-90.29
-94.34
-91.99
-82.24
-65.61
-43.96
-20.01
3.51
24.52
41.79
54.76
63.26
67.30
67.21
63.66
57.80
51.02
44.65
39.60
36.28
34.59
34.10
34.26
34.50
34.38
33.67
32.41
30.82
29.15
27.40
25.26
22.10
17.29
10.60
2.29
-6.82
-15.71
-23.62
-30.32
-36.17
-41.91
-48.34
-56.04
-65.21
-75.48
-85.75
-94.23
-98.74
-97.28
-88.80
-73.60
-53.34
-30.53
-7.71
13.20
31.07
45.38
55.91
62.49
65.08
63.96
59.87
53.92
47.32
41.23
36.59
34.01
33.66
35.20
37.75
40.15
41.29
40.58
38.15
34.67
31.00
27.60
24.34
20.53
15.47
8.83
0.92
-7.50
-15.60
-22.92
-29.43
-35.43
-41.24
-47.13
-53.40
-60.37
-68.47
-77.80
-87.74
-96.67
-102.16
-101.73
-93.77
-78.22
-56.69
-31.97
-7.13
15.28
33.72
47.66
57.26
62.92
65.11
64.28
61.08
56.36
51.15
46.46
42.94
40.86
40.06
40.23
41.03
42.13
43.14
43.60
43.01
41.01
37.60
33.12
28.13
23.19
18.52
13.94
9.03
3.36
-3.26
-10.67
-18.43
-26.05
-33.12
-39.43
-45.04
-50.16
-55.24
-60.93
-67.96
-76.76
-86.90
-96.79
-103.80
-105.00
-98.38
-83.68
-62.59
-38.15
-13.60
8.52
26.86
41.03
51.17
57.57
60.56
60.62
58.47
54.97
50.97
47.21
44.21
42.36
41.79
42.39
43.63
44.75
45.03
44.04
41.87
38.98
35.79
32.55
29.19
25.49
21.30
16.66
11.59
6.08
-0.06
-6.99
-14.62
-22.50
-29.98
-36.52
-42.03
-47.00
-52.30
-58.83
-67.08
-76.85
-87.17
-96.40
-102.51
-103.47
-97.98
-85.72
-67.64
-45.77
-22.55
-0.35
19.15
35.02
46.89
54.71
58.57
58.77
55.98
51.25
45.89
41.19
38.01
36.64
36.85
37.98
39.35
40.34
40.60
40.01
38.67
36.79
34.56
32.08
29.22
25.66
21.04
15.15
8.04
0.08
-8.14
-16.07
-23.29
-29.68
-35.34
-40.62
-45.99
-52.11
-59.54
-68.58
-78.86
-89.10
-97.14
-100.50
-97.07
-85.98
-67.90
-45.00
-20.21
3.48
23.87
39.81
51.05
57.87
60.74
60.17
56.81
51.59
45.73
40.52
36.95
35.31
35.16
35.61
35.70
34.97
33.59
32.18
31.26
30.88
30.40
28.77
25.07
18.93
10.78
1.73
-6.97
-14.38
-20.26
-25.08
-29.64
-34.81
-41.17
-48.96
-58.17
-68.50
-79.13
-88.61
-94.85
-95.53
-88.99
-74.91
-54.69
-31.01
-7.02
14.78
32.98
47.22
57.63
64.29
67.04
65.81
61.06
54.02
46.49
40.22
36.31
34.87
35.12
35.90
36.17
35.34
33.45
30.83
27.89
24.85
21.62
17.84
13.15
7.31
0.40
-7.20
-14.93
-22.29
-29.03
-35.38
-41.95
-49.51
-58.70
-69.54
-81.30
-92.37
-100.57
-103.71
-100.16
-89.37
-72.09
-50.13
-25.93
-1.97
19.72
37.78
51.49
60.66
65.45
66.27
63.77
58.87
52.72
46.45
41.04
36.99
34.35
32.82
31.87
31.09
30.23
29.14
27.69
25.67
22.73
18.60
13.16
6.62
-0.53
-7.74
-14.57
-20.96
-27.21
-33.92
-41.73
-51.08
-61.94
-73.58
-84.51
-92.70
-95.88
-92.22
-80.94
-62.69
-39.55
-14.47
9.44
29.73
45.07
55.15
60.47
61.79
59.97
55.78
50.00
43.55
37.36
32.32
29.06
27.74
28.05
29.18
30.17
30.12
28.47
25.14
20.45
14.95
9.09
3.11
-3.02
-9.50
-16.44
-23.91
-31.94
-40.64
-50.26
-60.84
-71.95
-82.25
-89.68
-91.88
-87.02
-74.51
-55.26
-31.56
-6.34
17.58
38.04
53.76
64.25
69.61
70.31
67.21
61.47
54.45
47.46
41.50
37.08
34.26
32.71
31.99
31.65
31.22
30.26
28.37
25.31
21.08
15.98
10.35
4.41
-1.81
-8.50
-15.86
-23.89
-32.51
-41.64
-51.38
-61.89
-72.99
-83.70
-92.07
-95.53
-91.72
-79.49
-59.55
-34.36
-7.46
17.69
38.61
54.26
64.76
70.80
73.05
71.88
67.62
60.85
52.64
44.50
37.95
34.04
32.94
33.94
35.77
37.13
37.11
35.37
32.07
27.56
22.13
15.98
9.23
2.04
-5.32
-12.48
-19.23
-25.63
-32.15
-39.54
-48.58
-59.60
-72.19
-84.85
-95.15
-100.27
-97.83
-86.76
-67.82
-43.45
-17.04
8.10
29.68
46.60
58.84
66.83
71.04
71.81
69.49
64.67
58.34
51.70
45.91
41.76
39.44
38.60
38.56
38.66
38.46
37.85
36.89
35.50
33.28
29.61
23.97
16.26
7.06
-2.57
-11.53
-19.10
-25.23
-30.51
-35.87
-42.36
-50.79
-61.49
-74.01
-86.81
-97.35
-102.53
-99.63
-87.47
-66.96
-41.00
-13.50
11.96
33.11
49.29
60.96
68.80
73.22
74.26
71.95
66.88
60.33
53.93
49.13
46.72
46.55
47.68
48.93
49.23
48.02
45.33
41.72
37.89
34.40
31.31
28.21
24.33
19.00
11.91
3.33
-5.97
-15.12
-23.33
-30.25
-35.98
-41.05
-46.27
-52.52
-60.53
-70.53
-81.93
-93.20
-101.96
-105.60
-102.08
-90.66
-72.24
-49.10
-24.10
0.07
21.59
39.46
53.34
63.06
68.54
69.84
67.47
62.54
56.53
50.96
46.88
44.62
43.92
44.09
44.40
44.28
43.46
41.97
39.97
37.68
35.23
32.53
29.30
25.21
19.98
13.61
6.35
-1.31
-8.87
-15.92
-22.27
-27.91
-33.09
-38.24
-43.90
-50.72
-59.16
-69.30
-80.59
-91.65
-100.39
-104.43
-101.78
-91.46
-73.99
-51.20
-25.91
-1.12
20.66
37.88
50.03
57.39
60.76
61.11
59.46
56.67
53.51
50.52
48.00
46.09
44.73
43.76
42.96
42.15
41.19
40.04
38.77
37.32
35.60
33.38
30.39
26.44
21.48
15.60
8.99
1.88
-5.52
-12.97
-20.21
-26.95
-33.01
-38.41
-43.38
-48.42
-54.14
-61.12
-69.68
-79.64
-90.11
-99.48
-105.52
-106.08
-99.67
-86.07
-66.49
-43.24
-19.09
3.47
22.68
37.69
48.41
55.19
58.61
59.27
57.69
54.36
49.78
44.53
39.38
35.17
32.68
32.31
33.87
36.55
39.17
40.58
40.05
37.52
33.43
28.52
23.47
18.57
13.81
8.92
3.68
-2.05
-8.18
-14.55
-20.96
-27.25
-33.23
-38.82
-44.07
-49.27
-54.97
-61.85
-70.43
-80.70
-91.84
-102.16
-109.38
-111.22
-106.06
-93.52
-74.60
-51.44
-26.74
-3.14
17.39
33.72
45.60
53.32
57.40
58.42
56.92
53.50
48.92
44.07
39.92
37.15
36.02
36.29
37.37
38.64
39.67
40.32
40.68
40.74
40.18
38.41
34.76
28.88
21.09
12.31
3.77
-3.60
-9.53
-14.50
-19.35
-24.80
-31.03
-37.61
-43.94
-49.64
-54.91
-60.48
-67.32
-76.07
-86.70
-98.13
-108.38
-114.85
-115.06
-107.41
-91.81
-69.83
-44.22
-18.15
5.75
25.87
41.58
52.93
60.20
63.66
63.54
60.32
54.85
48.35
42.22
37.65
35.28
35.04
36.31
38.24
40.12
41.56
42.43
42.67
42.00
40.00
36.32
30.99
24.55
17.75
11.25
5.21
-0.75
-7.19
-14.41
-22.24
-30.03
-37.07
-43.00
-48.04
-52.93
-58.63
-65.92
-75.17
-86.15
-97.99
-109.09
-117.30
-120.18
-115.66
-102.65
-81.71
-55.05
-26.13
1.35
24.38
41.43
52.48
58.59
61.15
61.29
59.63
56.54
52.49
48.23
44.74
42.85
42.82
44.23
46.13
47.57
48.01
47.52
46.42
45.07
43.40
41.08
37.61
32.76
26.65
19.66
12.19
4.45
-3.59
-11.95
-20.53
-28.92
-36.55
-42.98
-48.18
-52.77
-57.79
-64.45
-73.62
-85.28
-98.34
-110.58
-119.16
-121.28
-115.05
-100.03
-77.49
-50.14
-21.30
5.86
29.01
46.94
59.42
66.88
70.05
69.75
66.77
61.98
56.37
51.00
46.89
44.82
45.03
47.14
50.21
53.05
54.61
54.35
52.32
49.02
45.08
40.89
36.41
31.35
25.34
18.23
10.17
1.52
-7.28
-15.85
-23.97
-31.55
-38.61
-45.28
-51.80
-58.58
-66.25
-75.39
-86.18
-97.91
-108.73
-115.90
-116.51
-108.53
-91.62
-67.44
-39.13
-10.37
15.58
36.72
52.39
62.85
68.90
71.30
70.69
67.62
62.76
57.03
51.57
47.47
45.41
45.44
46.92
48.80
50.07
50.11
48.91
46.84
44.32
41.34
37.43
31.85
24.01
13.96
2.58
-8.64
-18.23
-25.30
-30.00
-33.43
-37.27
-43.07
-51.78
-63.43
-77.02
-90.74
-102.24
-108.97
-108.77
-100.38
-83.86
-60.69
-33.52
-5.42
20.76
43.01
60.26
72.23
79.03
80.92
78.36
72.13
63.61
54.70
47.35
42.95
41.83
43.19
45.56
47.49
48.27
47.95
47.07
46.03
44.68
42.26
37.87
31.07
22.16
12.11
2.13
-6.88
-14.55
-21.12
-27.17
-33.45
-40.71
-49.61
-60.49
-73.04
-86.04
-97.24
-103.83
-103.18
-93.80
-75.95
-51.69
-24.20
3.07
27.33
47.00
61.56
71.28
76.62
78.07
76.04
71.22
64.62
57.60
51.60
47.75
46.47
47.37
49.48
51.57
52.61
52.07
49.99
46.80
43.00
38.87
34.34
29.07
22.71
15.18
6.75
-2.01
-10.45
-18.17
-25.01
-31.12
-36.89
-42.81
-49.40
-57.17
-66.32
-76.47
-86.36
-93.91
-96.63
-92.40
-80.38
-61.33
-37.51
-11.89
12.73
34.41
52.16
65.68
74.87
79.62
79.93
76.15
69.29
60.98
53.02
46.98
43.69
43.10
44.45
46.61
48.47
49.26
48.69
46.88
44.18
40.85
36.96
32.26
26.49
19.55
11.64
3.31
-4.80
-12.12
-18.41
-23.83
-28.87
-34.20
-40.44
-48.01
-57.03
-67.17
-77.64
-87.14
-93.98
-96.38
-92.83
-82.63
-66.10
-44.69
-20.63
3.54
25.57
43.89
57.68
66.74
71.22
71.52
68.33
62.66
55.86
49.37
44.44
41.71
41.23
42.42
44.41
46.29
47.38
47.26
45.86
43.42
40.25
36.71
32.93
28.74
23.80
17.75
10.52
2.44
-5.88
-13.74
-20.65
-26.41
-31.24
-35.62
-40.21
-45.66
-52.51
-61.04
-71.05
-81.68
-91.39
-98.12
-99.68
-94.45
-81.86
-62.78
-39.39
-14.58
8.86
28.88
44.41
55.29
61.80
64.38
63.60
60.21
55.18
49.65
44.66
41.00
39.01
38.60
39.31
40.55
41.80
42.63
42.82
42.25
40.82
38.42
34.95
30.38
24.83
18.58
11.92
5.08
-1.87
-8.94
-16.01
-22.84
-29.06
-34.45
-39.03
-43.10
-47.09
-51.42
-56.53
-62.85
-70.64
-79.70
-88.96
-96.42
-99.52
-96.02
-84.90
-66.95
-44.44
-20.45
2.26
21.82
37.42
48.95
56.51
60.20
60.16
56.86
51.27
44.80
38.94
34.88
33.13
33.49
35.27
37.58
39.72
41.14
41.52
40.62
38.27
34.47
29.52
24.02
18.63
13.74
9.25
4.66
-0.61
-6.84
-13.76
-20.79
-27.34
-33.17
-38.46
-43.63
-49.13
-55.27
-62.18
-69.79
-77.71
-85.09
-90.45
-91.94
-87.79
-77.04
-60.02
-38.40
-14.80
7.96
27.49
42.36
52.08
56.98
57.80
55.44
50.82
44.88
38.63
33.14
29.34
27.80
28.46
30.56
32.94
34.48
34.52
33.10
30.76
28.19
25.76
23.29
20.19
15.81
9.83
2.48
-5.50
-13.15
-19.68
-24.68
-28.34
-31.30
-34.55
-39.06
-45.53
-54.17
-64.54
-75.42
-85.01
-91.10
-91.71
-85.63
-72.87
-54.80
-33.77
-12.40
7.08
23.28
35.66
44.21
49.03
50.31
48.35
43.87
38.02
32.16
27.44
24.46
23.19
23.12
23.63
24.15
24.36
24.14
23.50
22.53
21.25
19.55
17.04
13.24
7.80
0.82
-7.03
-14.73
-21.33
-26.43
-30.37
-34.03
-38.54
-44.72
-52.95
-62.87
-73.53
-83.40
-90.61
-93.22
-89.73
-79.54
-63.29
-42.79
-20.60
0.69
19.03
33.25
43.10
48.88
51.12
50.34
47.03
41.83
35.65
29.67
25.05
22.52
22.13
23.21
24.85
26.21
26.84
26.69
25.77
24.02
21.13
16.79
10.89
3.76
-4.01
-11.70
-18.76
-24.96
-30.48
-35.69
-41.16
-47.48
-55.09
-64.13
-74.11
-83.89
-91.72
-95.56
-93.74
-85.41
-70.96
-51.93
-30.62
-9.53
9.29
24.55
35.84
43.30
47.31
48.23
46.45
42.52
37.38
32.19
28.05
25.63
24.86
25.09
25.46
25.36
24.67
23.78
23.09
22.63
21.86
19.85
15.77
9.31
0.94
-8.21
-16.83
-23.93
-29.23
-33.24
-37.11
-42.11
-49.25
-58.77
-69.95
-81.12
-89.97
-94.12
-91.72
-82.10
-65.92
-45.00
-21.83
1.06
21.55
38.21
50.33
57.80
61.04
60.81
57.98
53.41
47.85
41.98
36.60
32.61
30.82
31.55
34.37
38.07
41.14
42.35
41.28
38.37
34.48
30.26
25.73
20.33
13.37
4.68
-5.14
-14.83
-23.13
-29.41
-33.93
-37.75
-42.29
-48.70
-57.52
-68.47
-80.51
-91.84
-100.22
-103.25
-99.05
-86.90
-67.67
-43.71
-18.26
5.60
25.68
41.11
52.05
59.12
62.94
63.92
62.46
59.10
54.75
50.49
47.33
45.90
46.17
47.60
49.26
50.21
49.80
47.95
44.97
41.45
37.85
34.27
30.40
25.75
19.99
13.10
5.55
-2.06
-9.21
-15.67
-21.58
-27.27
-33.10
-39.33
-46.22
-53.99
-62.84
-72.71
-82.96
-92.27
-98.59
-99.72
-93.93
-80.66
-60.86
-36.77
-11.37
12.59
33.11
49.25
60.94
68.49
72.32
72.74
70.15
65.20
58.96
52.75
47.93
45.43
45.49
47.60
50.67
53.44
54.81
54.20
51.58
47.46
42.59
37.60
32.81
28.08
23.02
17.15
10.24
2.39
-5.93
-14.07
-21.48
-27.90
-33.49
-38.73
-44.27
-50.71
-58.41
-67.40
-77.31
-87.20
-95.52
-100.21
-99.03
-90.31
-73.61
-50.21
-23.04
4.21
28.22
46.91
59.82
67.62
71.31
71.65
68.97
63.70
56.69
49.41
43.55
40.40
40.32
42.72
46.32
49.72
51.90
52.35
51.13
48.58
45.13
41.08
36.45
31.12
24.92
17.78
9.96
1.86
-6.06
-13.49
-20.36
-26.76
-32.79
-38.59
-44.35
-50.47
-57.50
-65.79
-75.18
-84.66
-92.45
-96.36
-94.41
-85.49
-69.64
-48.27
-23.74
1.16
23.88
42.55
56.27
64.98
69.16
69.52
66.79
61.69
55.07
47.95
41.58
37.11
35.40
36.57
40.02
44.50
48.62
51.25
51.81
50.32
47.20
42.96
37.95
32.29
26.00
19.13
11.87
4.53
-2.56
-9.20
-15.36
-21.15
-26.72
-32.18
-37.59
-43.09
-48.94
-55.63
-63.69
-73.28
-83.84
-93.70
-100.38
-101.19
-94.17
-78.96
-57.03
-31.32
-5.42
17.56
35.65
48.27
55.88
59.46
59.96
58.10
54.42
49.49
44.06
39.05
35.33
33.46
33.55
35.17
37.61
40.05
41.78
42.34
41.53
39.34
35.86
31.21
25.53
18.94
11.58
3.71
-4.31
-12.00
-18.89
-24.70
-29.44
-33.53
-37.70
-42.83
-49.69
-58.55
-68.93
-79.56
-88.51
-93.67
-93.24
-86.25
-72.80
-54.04
-31.91
-8.75
13.16
31.93
46.34
55.89
60.67
61.17
58.18
52.62
45.62
38.50
32.64
29.20
28.63
30.52
33.68
36.57
37.95
37.31
35.00
31.86
28.71
25.90
23.15
19.72
14.85
8.12
-0.19
-9.19
-17.75
-24.87
-30.17
-33.98
-37.31
-41.41
-47.46
-56.02
-66.83
-78.70
-89.56
-96.91
-98.45
-92.68
-79.44
-60.01
-36.79
-12.64
9.79
28.66
43.05
52.78
58.12
59.52
57.49
52.80
46.56
40.17
35.01
31.97
31.18
32.05
33.65
35.13
36.08
36.54
36.64
36.32
35.20
32.72
28.45
22.36
14.86
6.61
-1.70
-9.49
-16.36
-22.15
-26.96
-31.15
-35.37
-40.40
-46.95
-55.43
-65.69
-76.78
-86.97
-94.01
-95.63
-90.24
-77.45
-58.37
-35.35
-11.38
10.79
29.24
43.16
52.67
58.35
60.83
60.55
57.89
53.33
47.68
42.04
37.63
35.35
35.53
37.77
41.07
44.16
45.99
45.96
44.00
40.49
36.00
31.05
25.92
20.61
14.92
8.66
1.73
-5.67
-13.14
-20.16
-26.37
-31.69
-36.43
-41.14
-46.54
-53.25
-61.60
-71.43
-81.85
-91.26
-97.51
-98.42
-92.44
-79.26
-60.04
-37.10
-13.30
8.75
27.26
41.45
51.31
57.29
59.94
59.75
57.21
52.90
47.60
42.31
38.13
35.90
35.90
37.66
40.10
41.90
42.10
40.52
37.63
34.22
30.88
27.60
23.93
19.36
13.68
7.18
0.49
-5.83
-11.50
-16.63
-21.52
-26.41
-31.46
-36.77
-42.60
-49.39
-57.55
-67.04
-76.95
-85.45
-90.13
-88.75
-80.09
-64.44
-43.71
-20.88
0.93
19.38
33.37
43.03
49.10
52.28
52.95
51.17
47.16
41.68
36.00
31.59
29.45
29.63
31.31
33.24
34.38
34.34
33.44
32.27
31.27
30.30
28.72
25.69
20.62
13.51
5.02
-3.73
-11.65
-18.12
-23.20
-27.52
-31.94
-37.20
-43.74
-51.55
-60.26
-69.05
-76.63
-81.35
-81.51
-75.84
-64.07
-47.06
-26.74
-5.56
14.16
30.69
43.13
51.26
55.31
55.71
53.08
48.22
42.22
36.39
31.96
29.69
29.66
31.10
32.83
33.70
33.03
30.79
27.45
23.65
19.70
15.53
10.71
4.74
-2.54
-10.80
-19.18
-26.68
-32.50
-36.50
-39.22
-41.86
-45.71
-51.78
-60.30
-70.60
-81.09
-89.56
-93.67
-91.49
-82.09
-65.90
-44.70
-21.23
1.58
21.22
36.22
46.12
51.33
52.66
51.05
47.38
42.50
37.24
32.40
28.68
26.42
25.59
25.89
26.88
28.09
29.11
29.49
28.71
26.26
21.85
15.67
8.34
0.70
-6.52
-13.04
-19.01
-24.79
-30.72
-37.02
-43.89
-51.46
-59.76
-68.35
-76.03
-80.82
-80.51
-73.40
-59.17
-39.24
-16.40
6.05
25.29
39.70
48.93
53.49
54.30
52.18
47.88
42.12
35.89
30.28
26.26
24.38
24.46
25.83
27.58
28.92
29.43
29.04
27.73
25.51
22.26
17.82
12.22
5.63
-1.65
-9.18
-16.58
-23.63
-30.30
-36.93
-44.09
-52.37
-61.89
-71.99
-80.96
-86.43
-86.06
-78.42
-63.72
-43.83
-21.59
0.11
19.13
34.42
45.70
53.06
56.60
56.48
53.15
47.52
40.94
34.77
30.04
27.10
25.75
25.47
25.76
26.30
26.95
27.52
27.63
26.77
24.31
19.89
13.52
5.63
-2.91
-11.14
-18.30
-24.10
-28.82
-33.30
-38.66
-45.88
-55.49
-67.15
-79.46
-90.14
-96.38
-95.69
-86.67
-69.59
-46.48
-20.58
4.52
25.95
42.11
52.75
58.51
60.29
58.87
54.97
49.34
43.03
37.14
32.66
30.00
29.02
29.19
30.04
31.24
32.71
34.22
35.24
34.93
32.44
27.29
19.67
10.40
0.64
-8.49
-16.37
-23.02
-29.00
-35.22
-42.48
-51.22
-61.18
-71.38
-80.05
-85.05
-84.37
-76.75
-62.23
-42.23
-19.30
3.64
24.08
40.45
52.21
59.62
63.26
63.70
61.45
57.08
51.35
45.23
39.81
35.91
33.94
33.80
34.91
36.43
37.58
37.82
36.87
34.72
31.47
27.17
21.82
15.42
8.10
0.19
-7.79
-15.33
-22.05
-27.91
-33.29
-38.95
-45.86
-54.82
-66.02
-78.67
-90.84
-99.85
-102.86
-97.91
-84.64
-64.48
-40.20
-15.03
8.30
28.14
43.91
55.60
63.39
67.33
67.52
64.38
58.92
52.55
46.84
42.88
41.10
41.15
42.24
43.47
44.27
44.45
44.10
43.37
42.21
40.25
37.00
32.03
25.19
16.78
7.55
-1.56
-9.72
-16.45
-21.74
-26.08
-30.18
-34.80
-40.59
-48.01
-57.18
-67.85
-79.12
-89.44
-96.59
-98.27
-92.75
-79.55
-59.81
-35.99
-11.11
12.07
31.70
46.94
57.69
64.20
66.83
66.06
62.60
57.47
51.87
46.94
43.53
41.99
42.20
43.60
45.47
47.02
47.65
47.06
45.26
42.54
39.24
35.60
31.57
26.89
21.22
14.38
6.48
-2.02
-10.46
-18.20
-24.82
-30.22
-34.64
-38.58
-42.63
-47.46
-53.66
-61.65
-71.37
-82.02
-91.86
-98.38
-99.00
-91.85
-76.61
-54.77
-29.26
-3.60
19.14
37.03
49.48
56.87
59.92
59.42
56.02
50.54
44.06
37.96
33.49
31.43
31.67
33.35
35.29
36.51
36.65
35.93
34.84
33.67
32.36
30.52
27.62
23.35
17.67
10.79
3.09
-4.97
-12.83
-20.03
-26.24
-31.51
-36.21
-41.06
-46.81
-54.01
-62.73
-72.43
-81.94
-89.56
-93.30
-91.37
-82.72
-67.55
-47.35
-24.62
-2.12
17.84
33.84
45.41
52.70
56.09
56.11
53.37
48.72
43.27
38.19
34.41
32.40
32.04
32.70
33.64
34.22
34.21
33.69
32.96
32.20
31.31
29.84
27.20
22.88
16.75
9.13
0.71
-7.67
-15.33
-21.88
-27.35
-32.05
-36.59
-41.76
-48.38
-56.99
-67.44
-78.53
-88.03
-93.17
-91.45
-81.53
-63.88
-40.80
-15.66
8.06
27.79
42.33
51.72
56.66
57.89
56.00
51.47
45.04
37.86
31.42
27.04
25.45
26.47
29.11
32.04
34.07
34.61
33.70
31.88
29.74
27.65
25.48
22.63
18.43
12.44
4.81
-3.74
-12.16
-19.57
-25.55
-30.32
-34.59
-39.30
-45.33
-53.18
-62.78
-73.29
-83.13
-90.14
-92.13
-87.53
-75.86
-58.12
-36.45
-13.62
7.76
25.78
39.55
49.06
54.89
57.74
58.10
56.24
52.41
47.05
41.11
35.81
32.32
31.22
32.28
34.41
36.29
36.89
35.94
33.92
31.56
29.34
27.08
24.07
19.52
13.08
5.08
-3.55
-11.81
-19.10
-25.35
-30.97
-36.45
-42.17
-48.30
-55.03
-62.56
-71.01
-80.05
-88.48
-94.38
-95.46
-89.95
-77.37
-58.82
-36.63
-13.57
7.92
26.27
40.76
51.27
57.86
60.70
60.07
56.53
51.05
44.90
39.38
35.49
33.64
33.59
34.56
35.62
36.00
35.45
34.18
32.64
31.10
29.38
26.89
22.95
17.25
10.04
2.14
-5.48
-12.13
-17.69
-22.62
-27.54
-32.91
-38.98
-45.84
-53.60
-62.35
-71.79
-80.78
-87.23
-88.61
-82.87
-69.55
-50.09
-27.49
-5.11
14.42
29.89
41.36
49.42
54.49
56.53
55.29
50.89
44.23
36.87
30.58
26.70
25.61
26.74
28.93
30.99
32.06
31.88
30.67
28.76
26.43
23.62
19.98
15.13
8.84
1.35
-6.63
-14.15
-20.47
-25.39
-29.44
-33.60
-38.84
-45.71
-54.14
-63.51
-72.94
-81.37
-87.60
-90.27
-88.03
-79.94
-65.93
-47.15
-25.73
-4.22
15.08
30.69
41.93
48.77
51.49
50.56
46.65
40.67
33.79
27.30
22.34
19.58
19.15
20.63
23.21
26.01
28.33
29.77
30.23
29.70
28.09
25.19
20.75
14.72
7.40
-0.52
-8.24
-15.19
-21.27
-26.87
-32.66
-39.30
-47.13
-56.15
-65.83
-75.15
-82.54
-86.14
-84.19
-75.63
-60.60
-40.62
-18.20
3.80
22.96
37.81
47.94
53.64
55.52
54.26
50.57
45.29
39.55
34.54
31.27
30.13
30.86
32.63
34.47
35.64
35.79
34.95
33.29
30.93
27.83
23.80
18.65
12.36
5.14
-2.49
-9.94
-16.74
-22.85
-28.69
-35.01
-42.58
-51.81
-62.36
-73.07
-82.11
-87.32
-86.83
-79.61
-65.85
-47.00
-25.44
-3.76
15.93
32.40
45.24
54.46
60.09
62.03
60.31
55.43
48.57
41.40
35.57
32.20
31.50
32.90
35.27
37.49
38.80
38.86
37.77
35.82
33.23
30.09
26.34
21.85
16.58
10.68
4.39
-1.93
-7.96
-13.53
-18.66
-23.61
-28.90
-35.21
-43.13
-52.78
-63.59
-74.06
-82.06
-85.27
-81.84
-71.06
-53.65
-31.63
-7.82
14.90
34.33
49.27
59.59
65.79
68.62
68.68
66.37
62.10
56.53
50.65
45.62
42.35
41.08
41.35
42.28
42.91
42.74
41.79
40.48
39.20
37.98
36.42
33.87
29.78
23.95
16.67
8.51
0.17
-7.70
-14.59
-20.26
-24.73
-28.46
-32.33
-37.34
-44.38
-53.66
-64.63
-75.85
-85.37
-91.10
-91.30
-84.98
-72.12
-53.83
-32.21
-9.89
10.62
27.48
39.94
48.15
52.65
54.01
52.52
48.57
42.80
36.40
30.87
27.47
26.77
28.34
31.09
33.73
35.37
35.73
35.04
33.73
32.05
29.90
26.95
22.78
17.21
10.34
2.61
-5.37
-13.00
-19.88
-25.88
-31.11
-35.83
-40.52
-45.69
-51.95
-59.67
-68.82
-78.69
-87.76
-93.98
-95.22
-90.00
-77.97
-60.14
-38.69
-16.31
4.40
21.61
34.41
42.69
46.91
47.70
45.75
41.83
36.89
32.00
28.27
26.46
26.82
28.90
31.80
34.46
36.07
36.35
35.42
33.62
31.19
28.12
24.11
18.81
12.07
4.17
-4.15
-12.01
-18.66
-23.92
-28.25
-32.59
-38.00
-45.27
-54.51
-65.01
-75.27
-83.30
-87.06
-84.97
-76.33
-61.63
-42.38
-20.85
0.54
19.67
35.17
46.46
53.59
56.99
57.17
54.71
50.25
44.69
39.08
34.51
31.71
30.81
31.25
32.11
32.57
32.35
31.66
30.96
30.42
29.61
27.62
23.58
17.12
8.70
-0.57
-9.44
-17.02
-23.05
-27.98
-32.66
-38.05
-45.00
-53.95
-64.67
-76.09
-86.33
-93.11
-94.37
-88.90
-76.75
-59.18
-38.22
-16.19
4.91
23.56
38.87
50.51
58.47
62.94
64.26
62.82
59.16
54.13
48.79
44.39
41.86
41.54
42.96
44.98
46.35
46.21
44.41
41.49
38.20
35.05
31.96
28.43
23.83
17.86
10.69
2.82
-5.16
-12.80
-19.88
-26.31
-31.98
-36.95
-41.60
-46.73
-53.45
-62.60
-74.05
-86.31
-96.79
-102.47
-101.02
-91.51
-74.70
-52.72
-28.33
-4.26
17.31
35.00
48.21
56.94
61.65
63.05
61.92
59.11
55.43
51.73
48.77
47.06
46.63
47.09
47.76
47.93
47.21
45.57
43.22
40.40
37.28
33.86
30.09
25.87
21.05
15.52
9.17
1.97
-5.90
-14.01
-21.79
-28.65
-34.22
-38.60
-42.31
-46.33
-51.75
-59.43
-69.57
-81.37
-93.00
-101.90
-105.42
-101.65
-90.06
-71.69
-48.82
-24.40
-1.26
18.46
33.61
43.90
49.69
51.66
50.70
47.70
43.60
39.33
35.73
33.51
32.97
34.05
36.14
38.38
39.90
40.20
39.23
37.40
35.18
32.81
30.08
26.41
21.18
14.12
5.61
-3.38
-11.60
-18.04
-22.42
-25.29
-27.92
-31.81
-38.07
-46.97
-57.81
-69.06
-78.71
-84.80
-85.64
-80.18
-68.21
-50.57
-29.13
-6.45
14.76
32.33
45.06
52.85
56.33
56.47
54.14
50.04
44.76
38.87
33.07
28.04
24.31
22.05
21.10
21.04
21.38
21.66
21.56
20.83
19.19
16.41
12.23
6.60
-0.26
-7.93
-15.77
-23.17
-29.82
-35.82
-41.70
-48.32
-56.38
-66.01
-76.39
-85.72
-91.64
-92.02
-85.61
-72.58
-54.43
-33.53
-12.40
6.86
22.86
34.85
42.58
46.05
45.53
41.54
34.94
26.86
18.62
11.37
5.97
2.87
2.05
3.13
5.46
8.15
10.15
10.45
8.37
3.86
-2.44
-9.50
-16.32
-22.33
-27.53
-32.32
-37.14
-42.24
-47.66
-53.35
-59.20
-64.79
-69.10
-70.49
-66.93
-56.86
-39.95
-17.43
8.13
33.74
56.89
76.08
90.86
101.44
108.07
110.87
109.84
105.17
97.57
88.24
78.63
70.05
63.26
58.33
54.81
52.08
49.68
47.50
45.56
43.68
41.29
37.51
31.57
23.34
13.44
2.98
-6.98
-15.98
-24.22
-32.34
-41.00
-50.55
-61.00
-71.99
-82.72
-91.84
-97.42
-97.35
-90.08
-75.38
-54.68
-30.80
-7.04
13.91
30.45
42.24
49.60
53.07
53.11
50.14
44.84
38.27
31.75
26.52
23.42
22.54
23.35
24.96
26.51
27.43
27.53
26.77
25.05
22.15
17.83
11.94
4.67
-3.48
-11.92
-20.15
-27.87
-35.09
-41.98
-48.96
-56.58
-65.24
-74.96
-84.89
-93.37
-98.06
-96.74
-88.07
-72.18
-50.71
-26.36
-2.21
19.12
35.95
47.64
54.35
56.76
55.71
52.15
47.11
41.72
37.02
33.80
32.29
32.14
32.63
33.06
33.00
32.41
31.33
29.69
27.17
23.35
17.99
11.27
3.72
-4.00
-11.37
-18.22
-24.69
-31.29
-38.63
-47.37
-57.72
-69.15
-80.02
-87.89
-90.05
-84.51
-70.83
-50.40
-26.11
-1.35
20.87
38.64
51.17
58.48
61.04
59.40
54.37
47.03
38.76
31.03
25.08
21.61
20.57
21.35
23.00
24.53
25.21
24.55
22.35
18.65
13.64
7.70
1.28
-5.19
-11.36
-17.12
-22.59
-28.18
-34.54
-42.24
-51.61
-62.25
-72.79
-81.03
-84.38
-80.73
-69.23
-50.78
-27.75
-3.31
19.54
38.60
52.76
61.77
65.84
65.47
61.40
54.62
46.41
38.12
30.87
25.36
21.85
20.21
20.14
21.21
22.84
24.35
24.92
23.83
20.64
15.40
8.56
0.83
-7.12
-14.84
-22.18
-29.35
-36.76
-44.91
-54.08
-64.15
-74.20
-82.53
-86.92
-85.20
-76.11
-59.86
-38.26
-14.21
9.15
29.35
45.03
55.87
62.17
64.44
63.16
58.88
52.33
44.58
36.89
30.47
26.07
23.90
23.63
24.62
26.18
27.67
28.65
28.72
27.42
24.35
19.20
11.99
3.22
-6.23
-15.30
-23.21
-29.74
-35.35
-40.94
-47.48
-55.62
-65.35
-75.95
-85.94
-93.39
-96.24
-92.85
-82.48
-65.61
-43.93
-19.99
3.53
24.43
41.25
53.46
61.04
64.29
63.61
59.65
53.40
46.23
39.61
34.76
32.15
31.45
31.83
32.33
32.37
31.80
30.82
29.59
28.00
25.66
22.06
16.86
10.04
1.97
-6.73
-15.26
-22.94
-29.37
-34.70
-39.57
-45.06
-52.20
-61.46
-72.31
-83.13
-91.57
-95.13
-91.97
-81.47
-64.44
-42.94
-19.64
2.82
22.38
37.88
48.88
55.45
57.87
56.62
52.43
46.46
40.13
34.79
31.28
29.66
29.31
29.25
28.82
27.91
26.96
26.46
26.46
26.30
24.90
21.31
15.28
7.49
-0.91
-8.80
-15.71
-21.90
-28.02
-34.79
-42.58
-51.41
-61.05
-71.03
-80.49
-88.06
-91.86
-90.04
-81.37
-65.93
-45.21
-21.75
1.55
22.16
38.38
49.42
55.26
56.47
53.96
48.86
42.36
35.60
29.49
24.66
21.48
20.05
20.33
22.02
24.58
27.22
29.07
29.37
27.63
23.74
17.92
10.67
2.63
-5.53
-13.21
-20.08
-26.14
-31.85
-38.02
-45.62
-55.27
-66.76
-78.77
-88.95
-94.50
-93.03
-83.45
-66.34
-43.86
-19.13
4.72
25.30
41.39
52.76
59.74
62.82
62.43
59.01
53.22
46.15
39.17
33.60
30.23
29.10
29.47
30.29
30.72
30.49
29.85
29.19
28.63
27.74
25.70
21.70
15.37
7.03
-2.38
-11.67
-19.81
-26.31
-31.33
-35.68
-40.55
-47.12
-56.11
-67.35
-79.52
-90.35
-97.07
-97.32
-89.82
-74.88
-54.31
-30.81
-7.23
14.20
32.18
46.10
55.83
61.32
62.70
60.36
55.25
48.80
42.62
38.07
35.80
35.65
36.80
38.22
39.13
39.24
38.70
37.84
36.83
35.52
33.46
30.12
25.09
18.35
10.23
1.41
-7.23
-15.00
-21.47
-26.76
-31.48
-36.49
-42.68
-50.68
-60.62
-72.00
-83.65
-93.79
-100.21
-100.77
-93.94
-79.50
-58.74
-34.25
-9.21
13.57
32.34
46.56
56.51
62.68
65.42
64.88
61.35
55.62
49.11
43.53
40.31
39.97
41.91
44.70
46.75
47.01
45.36
42.45
39.26
36.44
34.02
31.46
28.03
23.20
16.86
9.33
1.18
-7.01
-14.80
-21.87
-28.19
-33.93
-39.60
-45.91
-53.54
-62.79
-73.18
-83.32
-91.06
-94.01
-90.30
-79.27
-61.72
-39.76
-16.21
6.17
25.38
40.38
50.97
57.39
60.05
59.38
56.00
50.89
45.39
40.94
38.60
38.73
40.84
43.90
46.79
48.71
49.41
49.01
47.78
45.79
42.95
39.04
33.91
27.55
20.11
11.87
3.24
-5.36
-13.45
-20.68
-26.85
-32.06
-36.72
-41.42
-46.80
-53.43
-61.61
-71.22
-81.47
-90.85
-97.22
-98.28
-92.37
-79.07
-59.55
-36.26
-12.24
9.77
27.93
41.51
50.68
55.95
57.80
56.60
52.81
47.25
41.24
36.18
33.18
32.55
33.75
35.72
37.39
38.16
38.00
37.25
36.16
34.65
32.30
28.55
23.09
16.01
7.79
-0.91
-9.43
-17.28
-24.19
-30.15
-35.35
-40.19
-45.24
-51.16
-58.38
-66.82
-75.57
-82.83
-86.36
-84.09
-74.81
-58.80
-37.76
-14.41
8.31
28.00
43.37
54.15
60.68
63.47
62.89
59.31
53.37
46.27
39.59
34.95
33.32
34.69
37.97
41.53
43.81
44.01
42.17
39.00
35.31
31.56
27.63
23.03
17.24
10.15
2.18
-5.87
-13.24
-19.56
-25.03
-30.26
-35.97
-42.75
-50.94
-60.49
-70.97
-81.36
-90.03
-94.96
-94.22
-86.55
-71.97
-51.90
-28.81
-5.50
15.63
33.12
46.39
55.59
61.03
62.96
61.68
57.74
52.06
45.92
40.70
37.38
36.35
37.27
39.28
41.38
42.74
42.91
41.78
39.51
36.35
32.52
28.08
22.95
17.02
10.23
2.73
-5.07
-12.65
-19.55
-25.60
-31.06
-36.60
-43.09
-51.30
-61.54
-73.33
-85.33
-95.41
-101.12
-100.30
-91.83
-76.08
-54.96
-31.32
-8.11
12.45
29.23
42.06
51.25
57.07
59.56
58.79
55.11
49.54
43.59
38.88
36.57
36.87
39.14
42.20
44.74
45.86
45.24
43.03
39.69
35.71
31.41
26.87
21.96
16.48
10.34
3.67
-3.16
-9.70
-15.60
-20.90
-26.00
-31.58
-38.32
-46.60
-56.31
-66.91
-77.37
-86.33
-92.23
-93.45
-88.83
-77.96
-61.48
-41.01
-18.87
2.58
21.42
36.47
47.41
54.52
58.37
59.52
58.37
55.28
50.79
45.72
41.18
38.29
37.66
39.14
41.84
44.51
46.07
46.03
44.42
41.55
37.75
33.16
27.81
21.78
15.23
8.43
1.68
-4.77
-10.74
-16.12
-21.07
-25.90
-31.08
-37.12
-44.30
-52.63
-61.81
-71.34
-80.52
-88.33
-93.31
-93.76
-88.24
-76.20
-58.43
-37.06
-14.86
5.64
22.85
36.31
46.27
53.04
56.60
56.70
53.24
46.94
39.35
32.54
28.26
27.33
29.28
32.77
36.25
38.62
39.51
39.08
37.65
35.37
32.24
28.16
23.15
17.37
11.05
4.34
-2.67
-9.84
-16.91
-23.52
-29.46
-34.87
-40.33
-46.63
-54.41
-63.70
-73.72
-82.93
-89.37
-91.05
-86.59
-75.53
-58.63
-37.74
-15.33
6.02
24.31
38.34
47.80
52.96
54.33
52.53
48.27
42.55
36.61
31.77
29.01
28.65
30.27
32.85
35.26
36.69
36.89
36.15
34.91
33.46
31.64
28.91
24.62
18.44
10.55
1.74
-6.97
-14.59
-20.64
-25.25
-29.07
-33.11
-38.38
-45.66
-55.13
-66.21
-77.40
-86.50
-91.08
-89.21
-80.13
-64.53
-44.36
-22.19
-0.56
18.63
34.22
45.74
53.09
56.52
56.45
53.59
48.91
43.50
38.44
34.66
32.78
32.95
34.88
37.79
40.57
42.14
41.84
39.65
36.20
32.42
29.05
26.23
23.43
19.69
14.25
6.95
-1.62
-10.33
-18.10
-24.35
-29.23
-33.47
-38.02
-43.59
-50.60
-59.09
-68.71
-78.71
-87.72
-93.89
-95.13
-89.79
-77.30
-58.59
-35.97
-12.46
9.09
26.73
39.71
48.35
53.47
55.93
56.32
55.00
52.30
48.79
45.25
42.45
40.89
40.65
41.35
42.46
43.49
44.20
44.48
44.26
43.33
41.42
38.33
34.04
28.80
22.96
16.83
10.49
3.88
-3.06
-10.26
-17.36
-23.88
-29.38
-33.72
-37.14
-40.32
-44.19
-49.55
-57.02
-66.62
-77.71
-88.88
-98.03
-102.74
-100.89
-91.39
-74.68
-52.74
-28.56
-5.23
14.92
30.66
41.95
49.32
53.50
55.11
54.62
52.56
49.62
46.51
43.88
42.13
41.38
41.49
42.30
43.60
45.22
46.90
48.27
48.89
48.24
45.92
41.75
35.92
28.96
21.64
14.78
8.96
4.29
0.42
-3.23
-7.26
-11.97
-17.35
-23.10
-28.91
-34.56
-39.95
-45.18
-50.47
-56.16
-62.72
-70.50
-79.41
-88.61
-96.41
-100.61
-99.15
-90.81
-75.74
-55.47
-32.48
-9.45
11.36
28.52
41.46
50.19
55.07
56.58
55.33
52.19
48.25
44.70
42.52
42.07
43.09
44.77
46.27
47.10
47.29
47.26
47.38
47.66
47.56
46.35
43.38
38.48
32.00
24.65
17.22
10.25
3.95
-1.82
-7.37
-13.05
-19.03
-25.26
-31.39
-36.96
-41.58
-45.19
-48.31
-51.92
-57.22
-65.02
-75.18
-86.34
-96.02
-101.31
-99.84
-90.60
-74.28
-53.03
-29.73
-7.13
12.72
28.72
40.54
48.43
52.80
54.18
53.14
50.35
46.63
42.87
39.89
38.30
38.34
39.74
41.91
44.10
45.70
46.46
46.41
45.74
44.52
42.63
39.80
35.87
30.94
25.46
20.05
15.13
10.70
6.29
1.26
-4.86
-12.01
-19.64
-26.91
-33.13
-38.15
-42.37
-46.63
-51.79
-58.39
-66.52
-75.80
-85.36
-93.88
-99.73
-101.12
-96.58
-85.47
-68.36
-47.00
-23.94
-1.78
17.50
32.81
43.91
50.96
54.29
54.35
51.83
47.76
43.42
40.03
38.36
38.51
39.96
41.90
43.59
44.56
44.77
44.37
43.58
42.51
41.08
38.99
35.92
31.67
26.35
20.37
14.27
8.46
2.98
-2.39
-8.01
-14.08
-20.53
-26.98
-32.99
-38.31
-42.92
-47.18
-51.68
-57.10
-63.99
-72.49
-82.02
-91.16
-97.87
-99.92
-95.67
-84.64
-67.71
-46.88
-24.63
-3.32
15.35
30.35
41.38
48.59
52.36
53.21
51.69
48.43
44.17
39.85
36.42
34.66
34.86
36.73
39.50
42.18
44.03
44.74
44.44
43.41
41.81
39.52
36.18
31.54
25.64
18.91
12.05
5.65
-0.04
-5.23
-10.46
-16.24
-22.73
-29.62
-36.30
-42.16
-47.00
-51.18
-55.63
-61.41
-69.27
-79.19
-90.00
-99.48
-104.90
-103.77
-94.75
-78.26
-56.32
-32.01
-8.46
11.99
28.23
40.24
48.49
53.56
55.82
55.65
53.55
50.39
47.20
44.88
43.84
43.99
44.87
46.01
47.17
48.36
49.63
50.87
51.73
51.65
50.09
46.76
41.68
35.23
28.00
20.65
13.75
7.64
2.30
-2.67
-7.87
-13.84
-20.77
-28.33
-35.79
-42.41
-47.75
-51.98
-55.83
-60.37
-66.57
-74.98
-85.29
-96.24
-105.73
-111.23
-110.44
-101.98
-85.88
-63.73
-38.25
-12.55
10.70
29.81
44.20
54.03
59.90
62.35
61.90
59.19
55.13
50.96
47.95
47.07
48.55
51.75
55.46
58.41
59.76
59.46
58.07
56.37
54.88
53.52
51.69
48.62
43.80
37.30
29.78
22.22
15.49
10.02
5.61
1.60
-2.78
-8.16
-14.68
-22.07
-29.63
-36.57
-42.29
-46.69
-50.24
-53.87
-58.63
-65.34
-74.24
-84.90
-96.19
-106.29
-113.00
-114.12
-108.03
-94.29
-73.99
-49.60
-24.26
-0.88
18.74
34.02
45.33
53.31
58.39
60.71
60.45
58.11
54.64
51.18
48.73
47.84
48.52
50.36
52.77
55.21
57.28
58.71
59.32
59.00
57.63
55.12
51.40
46.47
40.50
33.83
26.95
20.38
14.48
9.35
4.68
-0.09
-5.53
-11.91
-18.98
-26.03
-32.26
-37.13
-40.71
-43.60
-46.73
-50.97
-56.94
-64.91
-74.68
-85.57
-96.21
-104.62
-108.46
-105.73
-95.48
-78.21
-55.93
-31.56
-8.01
12.55
29.11
41.66
50.77
57.02
60.74
61.99
60.92
58.09
54.48
51.30
49.54
49.48
50.71
52.38
53.68
54.28
54.33
54.26
54.31
54.31
53.64
51.54
47.46
41.35
33.74
25.63
18.06
11.74
6.79
2.70
-1.37
-6.16
-11.94
-18.39
-24.84
-30.66
-35.54
-39.69
-43.69
-48.25
-54.00
-61.35
-70.31
-80.39
-90.41
-98.50
-102.51
-100.49
-91.42
-75.65
-54.83
-31.49
-8.20
12.94
30.63
44.28
53.70
59.03
60.65
59.27
55.95
51.92
48.27
45.72
44.44
44.19
44.60
45.35
46.35
47.68
49.34
51.12
52.52
52.82
51.40
47.93
42.60
36.08
29.26
22.88
17.25
12.18
7.16
1.72
-4.28
-10.55
-16.63
-22.11
-26.91
-31.26
-35.58
-40.26
-45.62
-51.96
-59.64
-68.94
-79.66
-90.70
-100.00
-104.89
-102.99
-93.12
-75.87
-53.49
-29.07
-5.55
14.97
31.55
44.01
52.48
57.14
58.22
56.28
52.29
47.60
43.41
40.50
39.02
38.68
39.06
39.90
41.14
42.68
44.29
45.50
45.73
44.51
41.59
37.06
31.34
25.01
18.73
13.06
8.22
4.00
-0.14
-4.82
-10.48
-17.07
-24.05
-30.66
-36.21
-40.42
-43.59
-46.46
-50.12
-55.57
-63.46
-73.60
-84.82
-94.90
-101.15
-101.08
-93.32
-78.15
-57.53
-34.45
-11.99
7.53
22.95
34.17
41.67
45.99
47.59
46.84
44.27
40.64
36.87
33.88
32.26
32.30
33.90
36.63
39.87
42.83
44.74
45.06
43.56
40.40
36.04
30.98
25.63
20.19
14.70
9.09
3.34
-2.55
-8.46
-14.17
-19.41
-23.99
-27.98
-31.71
-35.79
-40.90
-47.53
-55.78
-65.22
-74.84
-83.17
-88.43
-88.96
-83.58
-72.05
-55.28
-35.19
-14.18
5.47
22.15
35.07
44.09
49.40
51.33
50.30
47.03
42.52
37.96
34.47
32.74
32.88
34.44
36.73
38.99
40.69
41.52
41.40
40.30
38.29
35.43
31.82
27.55
22.66
17.11
10.80
3.76
-3.78
-11.31
-18.17
-23.82
-28.07
-31.25
-34.15
-37.80
-43.09
-50.48
-59.81
-70.22
-80.27
-88.11
-91.88
-90.12
-82.13
-68.26
-49.95
-29.33
-8.74
9.78
24.97
36.45
44.49
49.66
52.52
53.36
52.35
49.86
46.52
43.31
41.20
40.77
41.90
43.96
46.11
47.78
48.86
49.49
49.72
49.25
47.49
43.92
38.44
31.55
24.19
17.29
11.33
6.23
1.39
-3.92
-10.13
-17.21
-24.66
-31.75
-37.90
-42.95
-47.21
-51.36
-56.19
-62.37
-70.15
-79.22
-88.60
-96.66
-101.39
-100.76
-93.40
-79.18
-59.49
-36.86
-14.21
6.05
22.60
35.20
44.34
50.57
54.31
55.77
55.31
53.58
51.46
49.77
49.00
49.12
49.74
50.42
50.88
51.20
51.56
52.08
52.63
52.70
51.62
48.79
44.02
37.65
30.48
23.47
17.35
12.30
7.91
3.40
-1.94
-8.45
-15.94
-23.79
-31.18
-37.40
-42.11
-45.48
-48.15
-51.22
-55.89
-63.14
-73.14
-84.95
-96.41
-104.61
-106.80
-101.27
-87.99
-68.60
-45.87
-22.71
-1.52
16.35
30.40
40.77
47.87
52.09
53.85
53.59
51.89
49.43
46.99
45.30
44.81
45.58
47.24
49.12
50.57
51.21
51.08
50.45
49.58
48.49
46.88
44.28
40.31
34.90
28.41
21.48
14.86
9.10
4.26
-0.04
-4.50
-9.67
-15.82
-22.64
-29.44
-35.52
-40.44
-44.30
-47.70
-51.55
-56.76
-63.99
-73.33
-84.05
-94.50
-102.33
-105.04
-100.82
-89.20
-71.29
-49.47
-26.53
-4.94
13.72
28.78
40.22
48.27
53.21
55.40
55.33
53.76
51.54
49.48
48.14
47.76
48.33
49.65
51.35
53.02
54.29
54.84
54.48
53.09
50.60
46.98
42.26
36.63
30.41
24.06
18.02
12.57
7.73
3.21
-1.45
-6.66
-12.60
-19.09
-25.66
-31.74
-36.86
-40.93
-44.30
-47.74
-52.26
-58.75
-67.65
-78.57
-90.22
-100.43
-106.65
-106.60
-99.04
-84.21
-63.91
-40.90
-18.08
2.32
19.15
32.29
42.13
49.19
53.73
55.84
55.66
53.68
50.76
47.95
46.17
45.78
46.55
47.79
48.81
49.21
49.11
48.86
48.78
48.74
48.19
46.36
42.75
37.41
30.94
24.15
17.71
11.96
6.83
2.07
-2.60
-7.42
-12.60
-18.25
-24.35
-30.68
-36.82
-42.32
-46.99
-51.08
-55.33
-60.76
-68.22
-77.90
-88.97
-99.55
-107.05
-108.93
-103.42
-90.19
-70.50
-46.88
-22.39
0.22
19.19
33.91
44.61
51.94
56.50
58.62
58.55
56.70
53.82
50.89
48.84
48.10
48.58
49.72
50.83
51.53
51.80
51.84
51.83
51.61
50.69
48.46
44.47
38.81
32.07
25.18
18.98
13.90
9.78
6.09
2.13
-2.63
-8.38
-15.00
-22.12
-29.32
-36.09
-42.06
-47.06
-51.35
-55.65
-60.99
-68.32
-77.88
-88.85
-99.23
-106.35
-107.64
-101.44
-87.58
-67.49
-43.82
-19.73
1.93
19.33
31.89
40.10
45.05
47.85
49.21
49.36
48.35
46.30
43.75
41.47
40.26
40.51
42.00
44.10
45.98
47.10
47.26
46.55
45.09
42.87
39.75
35.56
30.29
24.08
17.27
10.22
3.18
-3.65
-10.19
-16.37
-22.18
-27.59
-32.62
-37.31
-41.81
-46.40
-51.60
-58.02
-66.09
-75.63
-85.50
-93.67
-97.62
-95.24
-85.50
-68.93
-47.51
-24.05
-1.44
18.13
33.45
44.23
50.83
53.84
53.98
51.95
48.60
44.88
41.63
39.58
39.00
39.86
41.73
44.08
46.33
47.93
48.43
47.49
44.97
41.01
36.07
30.69
25.38
20.35
15.38
10.04
3.85
-3.35
-11.28
-19.36
-26.88
-33.41
-38.89
-43.60
-47.98
-52.61
-57.98
-64.59
-72.68
-81.97
-91.40
-99.01
-102.45
-99.61
-89.51
-72.72
-51.23
-27.81
-5.15
14.75
30.89
43.04
51.53
56.79
59.36
59.78
58.68
56.75
54.69
53.09
52.27
52.26
52.82
53.55
54.17
54.56
54.73
54.70
54.30
53.10
50.61
46.49
40.81
34.01
26.82
19.81
13.26
7.04
0.78
-5.89
-13.09
-20.66
-28.17
-35.11
-41.13
-46.14
-50.52
-55.11
-60.98
-69.11
-79.75
-92.09
-104.14
-113.11
-116.24
-111.63
-98.93
-79.41
-55.58
-30.37
-6.41
14.49
31.47
44.45
53.73
59.76
62.99
63.83
62.80
60.53
57.80
55.40
53.92
53.54
54.01
54.82
55.47
55.76
55.79
55.76
55.77
55.51
54.42
51.91
47.69
41.91
35.10
28.00
21.22
15.11
9.71
4.69
-0.45
-6.19
-12.78
-20.05
-27.51
-34.46
-40.34
-45.07
-49.12
-53.39
-58.99
-66.75
-76.96
-88.99
-101.27
-111.47
-116.92
-115.38
-105.77
-88.51
-65.57
-39.88
-14.50
8.08
26.44
40.24
49.88
56.16
59.80
61.36
61.19
59.62
57.14
54.49
52.47
51.77
52.57
54.51
56.84
58.81
60.00
60.43
60.36
59.99
59.10
57.16
53.52
47.82
40.27
31.70
23.18
15.79
10.10
6.04
2.83
-0.66
-5.52
-12.31
-20.73
-29.77
-38.14
-44.85
-49.61
-52.94
-55.86
-59.48
-64.69
-71.98
-81.28
-91.84
-102.06
-109.65
-112.05
-107.29
-94.70
-75.36
-51.75
-26.97
-3.75
16.18
32.16
44.32
53.05
58.69
61.51
61.80
60.10
57.21
54.09
51.61
50.29
50.25
51.20
52.65
54.10
55.13
55.53
55.17
54.07
52.23
49.69
46.47
42.57
37.96
32.60
26.63
20.27
13.83
7.61
1.63
-4.31
-10.58
-17.38
-24.56
-31.60
-37.82
-42.78
-46.53
-49.77
-53.56
-59.02
-66.85
-77.04
-88.65
-99.89
-108.42
-111.80
-108.18
-96.83
-78.52
-55.31
-30.05
-5.62
15.81
33.06
45.89
54.64
59.82
61.89
61.22
58.39
54.23
49.81
46.29
44.49
44.70
46.57
49.28
51.88
53.65
54.28
53.85
52.65
50.95
48.74
45.82
41.88
36.73
30.45
23.42
16.17
9.23
2.96
-2.64
-7.89
-13.27
-19.22
-25.84
-32.79
-39.45
-45.22
-49.85
-53.59
-57.17
-61.53
-67.45
-75.29
-84.74
-94.80
-103.88
-110.05
-111.30
-106.07
-93.72
-74.86
-51.39
-26.25
-2.67
16.62
30.04
37.43
39.85
38.98
36.63
34.33
33.11
33.61
36.13
40.57
46.36
52.56
58.03
61.86
63.67
63.71
62.69
61.30
59.88
58.30
56.09
52.68
47.76
41.40
33.97
26.03
18.06
10.33
2.85
-4.41
-11.51
-18.37
-24.83
-30.70
-35.94
-40.67
-45.23
-50.10
-55.78
-62.66
-70.86
-79.99
-88.96
-95.96
-98.81
-95.64
-85.57
-69.23
-48.65
-26.59
-5.72
12.22
26.53
37.33
45.04
49.94
52.10
51.56
48.72
44.45
39.98
36.54
35.02
35.64
37.88
40.75
43.16
44.38
44.24
43.04
41.19
38.88
36.00
32.29
27.59
22.00
15.85
9.41
2.73
-4.34
-11.96
-20.09
-28.39
-36.34
-43.46
-49.54
-54.72
-59.47
-64.53
-70.58
-78.02
-86.44
-94.43
-99.81
-100.23
-94.02
-80.87
-62.01
-39.80
-16.95
4.15
21.88
35.42
44.58
49.69
51.32
50.25
47.29
43.29
39.08
35.50
33.27
32.87
34.28
36.84
39.44
40.98
40.78
38.91
36.06
33.07
30.41
27.87
24.71
20.06
13.55
5.47
-3.22
-11.39
-18.27
-23.72
-28.29
-32.84
-38.27
-45.13
-53.61
-63.41
-73.80
-83.48
-90.68
-93.47
-90.28
-80.50
-64.77
-44.88
-23.24
-2.19
16.50
31.84
43.49
51.56
56.36
58.27
57.76
55.38
51.83
47.94
44.62
42.60
42.24
43.34
45.14
46.65
47.05
46.05
43.96
41.43
39.02
36.82
34.33
30.67
25.08
17.41
8.24
-1.24
-9.78
-16.61
-21.73
-25.84
-29.93
-34.89
-41.23
-49.04
-58.13
-68.11
-78.30
-87.62
-94.49
-97.08
-93.90
-84.30
-68.86
-49.26
-27.79
-6.69
12.33
28.30
40.92
50.24
56.48
59.86
60.74
59.66
57.37
54.80
52.77
51.89
52.34
53.86
55.83
57.52
58.33
58.04
56.74
54.69
52.05
48.79
44.70
39.63
33.71
27.35
21.04
15.05
9.24
3.12
-3.80
-11.71
-20.22
-28.60
-35.98
-41.89
-46.39
-50.13
-54.02
-59.04
-65.99
-75.20
-86.31
-98.16
-108.64
-115.16
-115.22
-107.25
-91.21
-68.68
-42.49
-15.86
8.37
28.43
43.62
54.11
60.56
63.64
63.98
62.08
58.55
54.12
49.67
46.08
44.01
43.72
45.06
47.50
50.36
52.91
54.50
54.67
53.19
50.07
45.62
40.20
34.21
27.87
21.20
14.11
6.61
-1.08
-8.61
-15.54
-21.63
-26.97
-31.93
-37.03
-42.71
-49.26
-56.84
-65.52
-75.22
-85.49
-95.27
-102.81
-106.03
-103.05
-92.88
-75.92
-53.81
-29.05
-4.34
18.05
36.61
50.66
60.14
65.40
67.05
65.81
62.47
57.98
53.30
49.39
46.86
45.92
46.32
47.55
49.13
50.77
52.34
53.64
54.27
53.56
50.92
46.02
39.10
30.97
22.65
15.06
8.62
3.12
-2.14
-7.92
-14.64
-22.21
-29.96
-37.08
-43.03
-47.87
-52.40
-57.79
-65.06
-74.61
-85.97
-97.74
-107.98
-114.50
-115.23
-108.81
-94.84
-74.14
-48.70
-21.24
5.36
28.75
47.51
61.14
69.84
74.20
74.86
72.54
68.17
62.97
58.26
55.22
54.34
55.30
57.16
58.77
59.36
58.75
57.38
55.83
54.53
53.33
51.71
48.94
44.48
38.25
30.71
22.68
15.02
8.42
3.01
-1.62
-6.30
-11.89
-18.84
-27.01
-35.64
-43.69
-50.26
-55.03
-58.40
-61.37
-65.30
-71.47
-80.60
-92.54
-105.96
-118.50
-127.13
-129.05
-122.42
-107.00
-84.22
-56.74
-27.73
-0.09
24.09
43.62
58.22
68.21
74.22
76.93
76.96
74.87
71.26
66.85
62.49
59.07
57.15
56.80
57.69
59.17
60.66
61.88
62.71
63.10
62.83
61.44
58.40
53.37
46.46
38.20
29.45
21.08
13.73
7.65
2.68
-1.71
-6.16
-11.28
-17.40
-24.46
-32.05
-39.50
-46.17
-51.76
-56.47
-60.93
-66.07
-72.71
-81.32
-91.78
-103.26
-114.16
-122.35
-125.50
-121.70
-110.09
-91.24
-67.06
-40.33
-13.91
10.00
30.15
46.24
58.41
66.93
71.88
73.38
71.82
68.09
63.48
59.34
56.67
55.79
56.39
57.77
59.26
60.46
61.29
61.88
62.28
62.32
61.56
59.48
55.60
49.81
42.33
33.87
25.34
17.59
11.09
5.72
0.88
-4.30
-10.45
-17.75
-25.85
-34.05
-41.65
-48.20
-53.57
-58.04
-62.06
-66.39
-71.87
-79.30
-89.01
-100.40
-111.65
-119.94
-122.21
-116.13
-101.07
-78.43
-51.20
-23.01
2.97
24.77
41.71
54.02
62.19
66.61
67.59
65.53
61.20
55.71
50.30
45.97
43.27
42.27
42.66
44.01
45.99
48.28
50.58
52.45
53.35
52.67
49.94
44.99
38.13
30.08
21.79
14.04
7.18
0.90
-5.41
-12.33
-19.95
-27.80
-35.07
-41.08
-45.66
-49.23
-52.61
-56.73
-62.28
-69.62
-78.69
-88.82
-98.62
-105.94
-108.22
-103.28
-90.14
-69.62
-44.18
-17.26
7.81
28.69
44.39
55.10
61.60
64.79
65.32
63.72
60.43
56.00
51.06
46.29
42.30
39.57
38.47
39.10
41.18
44.12
46.99
48.72
48.51
46.02
41.47
35.55
29.06
22.58
16.36
10.28
4.10
-2.39
-9.20
-16.27
-23.43
-30.53
-37.39
-43.78
-49.49
-54.52
-59.26
-64.54
-71.39
-80.52
-91.64
-103.22
-112.63
-116.90
-113.65
-101.93
-82.56
-57.84
-30.88
-4.79
18.03
36.23
49.53
58.41
63.69
66.14
66.35
64.68
61.56
57.65
53.78
50.79
49.20
48.97
49.58
50.35
50.80
50.81
50.59
50.30
49.88
48.86
46.65
42.80
37.33
30.68
23.53
16.52
9.98
3.91
-1.97
-8.00
-14.46
-21.45
-28.86
-36.41
-43.74
-50.52
-56.66
-62.34
-68.04
-74.45
-82.20
-91.38
-101.35
-110.52
-116.59
-117.15
-110.38
-95.83
-74.62
-49.20
-22.60
2.47
24.19
41.81
55.29
64.87
70.71
72.92
71.81
68.14
63.10
58.06
54.22
52.24
52.14
53.39
55.24
56.91
57.90
58.06
57.58
56.81
55.91
54.70
52.61
49.00
43.53
36.51
28.83
21.55
15.39
10.38
5.93
1.20
-4.46
-11.24
-18.89
-26.84
-34.47
-41.25
-46.92
-51.55
-55.64
-60.03
-65.70
-73.44
-83.47
-95.14
-106.82
-116.15
-120.55
-117.86
-107.08
-88.68
-64.63
-37.86
-11.53
11.76
30.53
44.45
54.01
59.97
62.97
63.41
61.62
58.15
53.84
49.68
46.56
44.96
44.86
45.92
47.75
50.00
52.40
54.56
55.88
55.63
53.22
48.52
41.99
34.50
26.97
20.04
13.83
8.01
2.00
-4.68
-12.20
-20.22
-28.03
-34.87
-40.22
-44.05
-46.95
-49.94
-54.25
-60.85
-70.09
-81.36
-92.91
-102.19
-106.32
-102.95
-91.08
-71.50
-46.64
-19.94
5.24
26.48
42.73
54.07
61.14
64.65
65.00
62.55
57.85
51.89
46.09
41.76
39.69
39.88
41.63
43.94
45.97
47.28
47.77
47.47
46.29
44.03
40.55
35.88
30.30
24.26
18.08
11.88
5.59
-0.99
-7.88
-14.87
-21.61
-27.73
-33.08
-37.81
-42.39
-47.39
-53.45
-61.05
-70.32
-80.86
-91.54
-100.50
-105.52
-104.48
-96.10
-80.45
-59.04
-34.44
-9.62
12.87
31.38
45.27
54.67
60.09
62.15
61.49
58.86
55.17
51.39
48.41
46.72
46.40
47.07
48.18
49.25
50.05
50.61
50.96
51.03
50.39
48.48
44.77
39.17
32.09
24.37
16.92
10.37
4.84
-0.03
-4.81
-10.04
-15.98
-22.61
-29.69
-36.83
-43.64
-49.77
-55.17
-60.08
-65.19
-71.35
-79.18
-88.62
-98.62
-107.20
-111.82
-110.22
-101.09
-84.64
-62.55
-37.44
-12.17
10.88
30.13
44.91
55.17
61.34
64.05
64.07
62.30
59.60
56.67
54.09
52.25
51.37
51.48
52.42
53.73
54.91
55.53
55.46
54.88
54.14
53.36
52.34
50.53
47.33
42.36
35.71
27.89
19.64
11.63
4.33
-2.13
-7.93
-13.38
-18.78
-24.33
-30.08
-35.86
-41.47
-46.66
-51.36
-55.77
-60.43
-66.03
-73.24
-82.22
-92.36
-102.06
-109.02
-110.77
-105.47
-92.53
-72.85
-48.65
-22.77
2.03
23.67
41.04
53.85
62.32
66.85
67.95
66.16
62.28
57.33
52.32
48.12
45.17
43.40
42.47
41.96
41.56
41.19
40.82
40.36
39.56
38.00
35.23
31.03
25.55
19.26
12.88
7.03
1.92
-2.71
-7.46
-12.93
-19.31
-26.23
-32.87
-38.44
-42.52
-45.41
-48.04
-51.63
-57.21
-65.20
-75.19
-85.78
-94.81
-99.81
-98.59
-89.98
-74.26
-53.15
-29.42
-5.98
14.80
31.56
44.02
52.52
57.71
60.19
60.42
58.82
55.91
52.24
48.40
44.88
42.05
40.14
39.24
39.38
40.44
42.14
44.02
45.44
45.76
44.43
41.17
36.04
29.44
21.99
14.37
7.08
0.40
-5.73
-11.53
-17.27
-23.10
-28.95
-34.57
-39.76
-44.49
-49.01
-53.86
-59.78
-67.34
-76.56
-86.54
-95.39
-100.55
-99.56
-90.95
-74.87
-53.14
-28.72
-4.77
16.14
32.61
44.33
51.74
55.59
56.64
55.56
52.98
49.58
46.01
42.85
40.45
38.90
37.99
37.43
36.96
36.53
36.29
36.34
36.57
36.50
35.44
32.77
28.26
22.17
15.12
7.81
0.66
-6.28
-13.33
-20.93
-29.36
-38.58
-48.03
-56.70
-63.26
-66.54
-65.80
-61.23
-54.04
-46.16
-39.74
-36.31
-36.33
-38.98
-42.48
-44.63
-43.47
-37.88
-27.82
-14.32
0.84
15.58
28.10
37.29
42.92
45.55
46.09
45.48
44.31
42.80
40.96
38.81
36.51
34.37
32.70
31.64
31.21
31.27
31.77
32.64
33.75
34.80
35.21
34.42
31.99
27.90
22.52
16.50
10.38
4.41
-1.51
-7.67
-14.35
-21.62
-29.28
-36.94
-44.22
-50.82
-56.58
-61.53
-65.84
-69.78
-73.57
-77.10
-79.86
-80.81
-78.55
-71.77
-59.68
-42.47
-21.45
1.21
22.92
41.31
54.83
62.98
66.45
66.64
65.21
63.57
62.50
62.17
62.35
62.68
62.87
62.77
62.39
61.84
61.34
61.06
61.04
60.94
60.19
58.06
54.09
48.34
41.34
33.92
26.71
19.88
13.19
6.19
-1.41
-9.57
-17.90
-25.86
-32.93
-38.93
-44.06
-48.91
-54.21
-60.68
-68.71
-78.24
-88.62
-98.69
-106.77
-110.83
-108.91
-99.62
-82.78
-59.85
-33.74
-8.07
13.93
30.33
40.84
46.33
48.20
47.60
45.31
41.85
37.80
33.90
30.74
28.52
26.87
24.97
22.08
17.97
12.92
7.66
2.85
-1.21
-4.68
-8.00
-11.54
-15.48
-19.75
-24.02
-27.77
-30.34
-31.10
-29.71
-26.38
-22.15
-18.71
-17.90
-21.12
-28.81
-40.08
-52.94
-64.67
-72.44
-73.92
-67.86
-54.45
-35.24
-12.83
9.85
30.30
46.88
58.92
66.44
69.79
69.45
66.08
60.53
54.06
48.08
43.74
41.72
41.98
43.98
46.86
49.79
52.04
53.02
52.19
49.10
43.61
35.99
26.94
17.40
8.39
0.61
-5.63
-10.41
-14.18
-17.63
-21.64
-27.10
-34.74
-44.68
-56.15
-67.43
-76.12
-79.77
-76.60
-66.25
-49.83
-29.71
-8.77
10.35
25.98
37.60
45.50
50.38
52.69
52.68
50.40
46.18
40.79
35.32
30.76
27.53
25.45
23.84
22.12
20.10
18.07
16.39
15.15
13.89
11.72
7.72
1.47
-6.73
-15.89
-24.79
-32.48
-38.77
-44.31
-50.35
-58.19
-68.51
-80.78
-93.16
-102.91
-107.24
-104.20
-93.31
-75.83
-54.17
-31.22
-9.38
9.78
25.55
37.83
46.73
52.43
55.02
54.76
52.08
47.57
41.91
35.86
30.13
25.35
21.97
20.12
19.54
19.68
19.78
19.17
17.41
14.34
10.03
4.65
-1.55
-8.28
-15.26
-22.29
-29.39
-36.86
-45.13
-54.44
-64.45
-74.03
-81.29
-84.05
-80.61
-70.34
-54.08
-33.91
-12.51
7.59
24.62
37.84
47.27
53.42
56.82
57.87
56.76
53.68
49.00
43.34
37.56
32.54
28.95
27.02
26.44
26.44
26.07
24.60
21.79
17.84
13.21
8.26
3.02
-2.75
-9.45
-17.44
-26.92
-37.89
-50.13
-63.03
-75.36
-85.31
-90.74
-89.72
-81.32
-66.06
-45.86
-23.49
-1.79
17.12
32.13
43.08
50.38
54.46
55.55
53.65
48.88
41.85
33.67
25.89
19.85
16.26
14.91
14.93
15.28
15.20
14.40
12.83
10.45
7.09
2.54
-3.21
-9.85
-16.93
-24.22
-32.00
-40.96
-51.66
-63.93
-76.34
-86.43
-91.38
-89.12
-78.97
-61.96
-40.44
-17.21
5.18
24.92
41.08
53.35
61.79
66.74
68.71
68.39
66.52
63.76
60.52
56.97
53.07
48.80
44.22
39.60
35.28
31.56
28.56
26.08
23.64
20.70
16.79
11.75
5.75
-0.82
-7.52
-14.20
-21.01
-28.41
-37.01
-47.22
-58.90
-71.17
-82.38
-90.37
-92.93
-88.46
-76.51
-58.02
-35.17
-10.80
12.29
32.05
47.49
58.57
65.79
69.70
70.63
68.74
64.37
58.33
51.91
46.59
43.34
42.23
42.51
42.88
42.34
40.50
37.60
34.12
30.38
26.24
21.29
15.16
7.88
-0.16
-8.31
-16.03
-23.09
-29.66
-36.29
-43.67
-52.40
-62.72
-74.19
-85.53
-94.82
-99.90
-98.94
-91.01
-76.42
-56.59
-33.84
-10.84
9.96
26.86
39.26
47.55
52.72
55.77
57.16
56.78
54.33
49.86
44.11
38.36
33.87
31.30
30.45
30.56
30.81
30.74
30.32
29.53
28.07
25.32
20.61
13.75
5.24
-3.89
-12.61
-20.42
-27.59
-35.01
-43.70
-54.21
-66.23
-78.39
-88.52
-94.10
-93.04
-84.16
-67.77
-45.60
-20.47
4.40
26.18
43.08
54.52
61.02
63.62
63.49
61.49
58.20
54.07
49.49
44.95
40.96
37.81
35.50
33.76
32.19
30.48
28.50
26.24
23.67
20.55
16.47
11.12
4.47
-3.03
-10.60
-17.49
-23.32
-28.41
-33.64
-40.09
-48.56
-59.17
-71.09
-82.59
-91.33
-94.90
-91.51
-80.52
-62.90
-40.86
-17.38
4.75
23.66
38.67
49.99
58.22
63.76
66.64
66.77
64.25
59.68
54.13
48.82
44.81
42.51
41.71
41.70
41.62
40.90
39.36
37.14
34.44
31.37
27.75
23.39
18.08
11.85
4.88
-2.52
-9.96
-17.09
-23.60
-29.38
-34.59
-39.71
-45.43
-52.39
-60.89
-70.62
-80.70
-89.80
-96.27
-98.49
-95.13
-85.50
-69.89
-49.64
-26.99
-4.49
15.65
32.12
44.56
53.35
59.08
62.26
63.10
61.82
58.73
54.47
49.91
45.98
43.37
42.43
43.03
44.59
46.27
47.18
46.67
44.55
41.12
36.83
32.14
27.10
21.44
14.75
6.95
-1.59
-10.08
-17.67
-23.89
-28.79
-32.89
-36.92
-41.45
-46.89
-53.58
-61.73
-71.35
-81.89
-92.04
-99.65
-102.37
-98.32
-86.90
-69.06
-47.05
-23.72
-1.72
17.10
31.95
42.86
50.33
54.90
56.94
56.69
54.42
50.60
46.03
41.66
38.38
36.67
36.47
37.26
38.32
39.14
39.49
39.47
39.15
38.45
36.98
34.23
29.80
23.54
15.75
7.01
-1.93
-10.38
-17.96
-24.49
-30.09
-35.06
-39.82
-44.91
-50.90
-58.27
-67.14
-77.02
-86.69
-94.30
-97.75
-95.34
-86.35
-71.28
-51.78
-30.14
-8.73
10.59
26.60
38.90
47.52
52.87
55.37
55.44
53.51
50.06
45.76
41.46
37.99
36.01
35.67
36.65
38.24
39.70
40.54
40.59
40.01
38.87
37.08
34.29
30.12
24.35
17.18
9.11
0.79
-7.16
-14.44
-20.99
-26.98
-32.62
-38.02
-43.12
-47.86
-52.43
-57.40
-63.59
-71.61
-81.27
-91.20
-98.97
-101.84
-97.76
-86.17
-68.24
-46.43
-23.59
-2.23
16.04
30.54
41.27
48.64
53.17
55.49
56.12
55.58
54.32
52.75
51.19
49.91
49.03
48.56
48.48
48.73
49.24
49.92
50.51
50.60
49.74
47.57
43.93
39.04
33.28
27.17
21.11
15.29
9.53
3.52
-3.13
-10.58
-18.59
-26.57
-33.79
-39.69
-44.18
-47.74
-51.23
-55.56
-61.38
-68.98
-78.21
-88.40
-98.35
-106.35
-110.28
-108.27
-99.18
-83.14
-61.66
-37.30
-12.95
8.90
26.70
39.99
49.13
54.92
58.15
59.41
58.90
56.83
53.44
49.28
45.20
42.17
40.91
41.61
43.87
46.79
49.29
50.40
49.64
46.99
42.84
37.74
32.19
26.47
20.70
14.87
8.95
3.04
-2.73
-8.28
-13.66
-19.06
-24.72
-30.83
-37.26
-43.81
-50.28
-56.75
-63.63
-71.43
-80.21
-89.26
-96.84
-100.61
-98.27
-88.58
-71.79
-49.74
-25.38
-1.82
18.43
33.97
44.58
50.83
53.63
53.87
52.29
49.53
46.32
43.45
41.61
41.25
42.36
44.47
46.84
48.63
49.20
48.24
45.86
42.51
38.75
35.02
31.48
27.89
23.85
19.04
13.33
6.84
-0.14
-7.29
-14.38
-21.30
-27.97
-34.28
-40.19
-45.83
-51.62
-58.24
-66.32
-76.09
-86.96
-97.42
-105.16
-107.79
-103.50
-91.76
-73.61
-51.30
-27.64
-5.13
14.57
30.73
43.30
52.45
58.33
61.04
60.81
58.23
54.28
50.07
46.56
44.36
43.63
44.16
45.58
47.48
49.45
51.11
52.13
52.16
50.98
48.45
44.52
39.30
33.03
26.07
18.93
12.15
6.06
0.65
-4.45
-9.85
-15.98
-22.87
-30.13
-37.10
-43.25
-48.51
-53.34
-58.56
-65.04
-73.41
-83.63
-94.89
-105.53
-113.23
-115.55
-110.61
-97.82
-78.17
-54.08
-28.65
-4.75
15.66
31.88
44.14
53.04
59.09
62.55
63.52
62.25
59.36
55.80
52.63
50.72
50.50
51.88
54.39
57.35
60.14
62.21
63.10
62.51
60.16
56.00
50.17
42.99
34.98
26.71
18.76
11.43
4.78
-1.52
-7.99
-15.03
-22.67
-30.52
-37.90
-44.26
-49.55
-54.27
-59.42
-66.08
-74.84
-85.42
-96.44
-105.57
-110.05
-107.47
-96.60
-77.93
-53.65
-27.16
-1.97
19.30
35.45
46.69
54.04
58.59
61.09
61.89
61.20
59.34
56.88
54.55
52.91
52.20
52.29
52.85
53.53
54.20
54.81
55.34
55.56
54.99
53.02
49.16
43.33
35.99
28.00
20.29
13.46
7.60
2.35
-2.81
-8.26
-14.00
-19.77
-25.27
-30.34
-35.15
-40.11
-45.79
-52.66
-60.99
-70.57
-80.66
-89.80
-96.06
-97.41
-92.30
-80.25
-62.23
-40.50
-18.02
2.34
18.58
29.97
36.89
40.32
41.33
40.61
38.55
35.50
31.97
28.77
26.73
26.37
27.66
30.09
32.94
35.69
38.09
40.06
41.47
41.96
41.01
38.23
33.59
27.52
20.85
14.40
8.69
3.73
-0.92
-5.88
-11.54
-17.91
-24.58
-30.99
-36.86
-42.42
-48.36
-55.55
-64.43
-74.65
-84.96
-93.49
-98.30
-97.84
-91.35
-79.02
-61.84
-41.45
-19.78
1.21
19.87
35.08
46.39
53.96
58.38
60.37
60.58
59.46
57.33
54.50
51.42
48.66
46.78
46.06
46.46
47.61
48.98
50.06
50.40
49.69
47.66
44.18
39.33
33.41
26.95
20.48
14.40
8.72
3.17
-2.62
-8.87
-15.53
-22.19
-28.42
-33.93
-38.74
-43.25
-48.10
-53.96
-61.34
-70.36
-80.49
-90.43
-98.24
-101.63
-98.69
-88.57
-71.93
-50.88
-28.32
-7.08
10.95
25.04
35.38
42.63
47.26
49.45
49.22
46.74
42.63
37.90
33.74
30.97
29.87
30.07
30.88
31.56
31.63
30.90
29.39
27.24
24.58
21.57
18.37
15.11
11.76
8.04
3.59
-1.90
-8.31
-15.11
-21.51
-26.81
-30.76
-33.67
-36.31
-39.59
-44.29
-50.89
-59.44
-69.51
-80.02
-89.31
-95.22
-95.62
-89.11
-75.65
-56.74
-35.13
-13.85
4.72
19.42
30.45
38.70
45.07
49.87
52.73
53.07
50.65
46.02
40.49
35.69
32.94
32.86
35.26
39.29
43.88
47.95
50.67
51.50
50.21
46.95
42.14
36.46
30.62
25.21
20.54
16.61
13.16
9.82
6.19
1.98
-2.92
-8.47
-14.46
-20.76
-27.32
-34.13
-41.03
-47.54
-52.76
-55.50
-54.59
-49.31
-39.58
-26.09
-10.06
6.98
23.56
38.34
50.26
58.48
62.43
61.94
57.32
49.56
40.24
31.42
25.04
22.55
24.31
29.57
36.65
43.58
48.68
50.91
49.91
45.75
38.67
29.02
17.41
4.88
-7.07
-16.77
-22.94
-25.21
-24.32
-21.87
-19.92
-20.42
-24.79
-33.60
-46.43
-61.72
-76.97
-89.09
-95.09
-92.91
-82.03
-63.64
-40.47
-16.08
6.02
23.21
34.27
39.55
40.54
39.23
37.33
35.91
35.33
35.50
36.16
36.92
37.29
36.60
34.24
30.05
24.64
19.38
15.90
15.24
17.39
21.28
25.25
27.77
27.94
25.40
20.21
12.51
2.48
-9.35
-22.03
-34.30
-44.96
-53.35
-59.44
-63.59
-66.02
-66.44
-64.10
-58.25
-48.75
-36.23
-21.90
-7.11
7.22
20.65
33.03
44.27
54.01
61.55
66.19
67.28
64.48
57.89
48.17
36.56
24.85
14.93
8.45
6.20
7.97
12.63
18.54
24.05
27.84
29.04
27.17
22.06
13.94
3.48
-8.05
-19.13
-28.37
-35.12
-39.61
-42.89
-46.23
-50.38
-55.17
-59.48
-61.64
-60.07
-53.73
-42.47
-26.98
-8.61
10.94
29.84
46.45
59.44
67.92
71.50
70.26
64.76
55.96
45.17
33.93
23.77
16.03
11.56
10.62
12.91
17.66
23.77
29.99
34.99
37.57
36.74
32.01
23.48
11.96
-1.16
-14.24
-25.92
-35.45
-42.96
-49.22
-55.30
-61.97
-69.35
-76.82
-82.98
-86.13
-84.56
-77.05
-63.27
-44.03
-21.36
1.87
22.64
38.60
48.68
53.21
53.49
51.04
47.07
42.30
37.16
32.07
27.71
24.81
23.86
24.71
26.60
28.40
29.10
28.23
25.89
22.51
18.49
13.91
8.62
2.43
-4.57
-11.90
-18.87
-24.97
-30.15
-35.04
-40.60
-47.66
-56.49
-66.42
-75.92
-82.95
-85.47
-82.10
-72.51
-57.55
-39.00
-19.19
-0.30
15.99
28.71
37.58
42.80
44.79
44.11
41.45
37.55
33.22
29.19
25.88
23.44
21.68
20.31
19.13
18.14
17.46
17.17
16.98
16.30
14.33
10.43
4.41
-3.26
-11.65
-19.71
-26.62
-32.16
-36.76
-41.38
-47.13
-54.79
-64.31
-74.65
-83.87
-89.61
-89.84
-83.51
-70.85
-53.28
-33.05
-12.57
6.03
21.29
32.49
39.54
42.81
42.90
40.42
35.99
30.27
24.01
18.16
13.71
11.37
11.30
12.99
15.44
17.54
18.49
18.05
16.50
14.23
11.46
8.06
3.69
-1.84
-8.32
-15.23
-22.10
-28.76
-35.60
-43.30
-52.31
-62.34
-72.10
-79.55
-82.42
-79.07
-68.99
-53.15
-33.60
-12.96
6.37
22.71
35.19
43.67
48.38
49.74
48.21
44.42
39.21
33.60
28.62
25.00
23.10
22.79
23.61
24.88
25.95
26.31
25.64
23.79
20.66
16.26
10.67
4.19
-2.67
-9.31
-15.30
-20.57
-25.52
-30.90
-37.51
-45.96
-56.19
-67.39
-77.80
-85.18
-87.21
-82.30
-70.20
-52.19
-30.76
-8.85
11.01
27.22
39.20
47.07
51.29
52.31
50.58
46.60
41.10
34.94
29.14
24.55
21.73
20.77
21.39
23.03
25.03
26.78
27.73
27.45
25.56
21.91
16.62
10.15
3.12
-3.83
-10.32
-16.33
-22.17
-28.37
-35.49
-43.92
-53.69
-64.24
-74.35
-82.17
-85.62
-82.98
-73.44
-57.50
-37.06
-14.89
6.03
23.25
35.40
42.31
44.86
44.35
42.04
38.78
35.08
31.29
27.89
25.46
24.50
25.15
27.01
29.24
30.86
31.17
29.84
26.92
22.58
17.02
10.38
2.82
-5.26
-13.25
-20.48
-26.53
-31.48
-36.00
-41.18
-48.06
-57.12
-67.80
-78.49
-86.74
-89.94
-86.19
-74.91
-57.14
-35.32
-12.53
8.40
25.48
37.83
45.51
49.03
49.05
46.18
41.12
34.78
28.27
22.72
18.96
17.32
17.57
19.07
21.02
22.69
23.51
23.19
21.53
18.48
14.08
8.47
2.04
-4.59
-10.67
-15.51
-18.86
-21.18
-23.44
-26.93
-32.76
-41.38
-52.34
-64.31
-75.23
-82.78
-84.85
-80.09
-68.30
-50.61
-29.24
-6.88
14.00
31.75
45.74
56.17
63.53
68.23
70.36
69.81
66.62
61.21
54.32
46.90
39.84
33.76
28.97
25.60
23.64
22.98
23.25
23.87
24.07
23.05
20.17
15.08
7.67
-2.03
-13.68
-26.62
-39.76
-51.69
-61.15
-67.53
-71.22
-73.44
-75.73
-79.24
-84.28
-90.21
-95.83
-99.74
-100.53
-96.74
-86.85
-69.55
-44.14
-11.19
27.14
67.28
105.11
136.96
160.42
174.57
179.51
175.62
163.14
142.48
115.11
84.18
54.42
31.02
17.82
15.89
23.26
35.72
48.55
58.08
62.36
60.89
53.94
41.77
24.55
2.83
-22.12
-48.14
-72.71
-93.90
-111.11
-125.00
-136.82
-147.07
-154.48
-156.14
-148.68
-130.13
-101.18
-65.05
-26.15
11.78
46.98
79.80
111.45
142.68
172.78
199.40
219.13
228.50
225.02
208.17
179.90
144.32
106.83
72.46
44.49
23.80
9.30
-0.94
-8.34
-13.37
-15.88
-16.03
-14.86
-14.08
-15.24
-18.80
-23.90
-28.73
-31.57
-31.63
-29.38
-26.17
-23.65
-22.95
-24.30
-27.08
-29.98
-31.40
-29.75
-23.99
-13.98
-0.62
14.44
29.37
42.59
52.84
59.14
60.65
56.94
48.34
36.18
22.63
10.23
1.17
-3.16
-2.27
3.36
12.34
22.26
29.97
32.43
27.94
17.12
3.00
-10.35
-19.82
-24.83
-27.41
-30.72
-37.01
-46.35
-56.79
-65.61
-70.83
-71.96
-69.69
-65.00
-58.40
-49.72
-38.58
-25.01
-10.01
4.55
16.46
23.92
26.18
23.65
17.64
9.76
1.32
-6.99
-15.00
-22.61
-29.36
-34.39
-36.89
-36.55
-33.91
-30.13
-26.44
-23.62
-21.96
-21.41
-21.96
-23.81
-27.09
-31.70
-37.07
-42.33
-46.80
-50.38
-53.63
-57.30
-61.86
-66.76
-70.47
-70.89
-66.30
-56.37
-42.46
-27.23
-13.44
-2.80
4.63
10.05
14.96
20.13
25.27
29.43
31.89
32.75
33.00
33.86
35.92
38.83
41.54
43.13
43.35
42.65
41.73
40.95
40.13
38.74
36.41
33.31
30.15
27.83
26.81
26.94
27.52
27.70
26.93
24.85
21.11
15.33
7.44
-1.70
-10.04
-14.70
-13.31
-5.13
8.39
24.01
38.16
48.40
54.19
56.55
57.05
56.55
54.68
50.16
41.71
28.92
12.73
-4.79
-21.28
-34.91
-45.14
-52.76
-59.26
-65.74
-72.03
-76.58
-77.29
-73.07
-64.83
-55.48
-48.72
-47.32
-51.88
-60.66
-70.50
-78.11
-81.08
-78.19
-69.27
-54.64
-34.78
-10.34
17.89
48.72
80.54
111.36
138.89
161.00
176.14
183.83
184.95
181.45
175.59
169.17
162.98
156.91
150.53
143.78
137.26
132.05
128.89
127.46
125.96
121.47
110.86
91.99
64.57
30.40
-7.34
-45.06
-79.71
-109.14
-131.99
-147.40
-155.03
-155.47
-150.48
-142.68
-134.65
-127.77
-121.41
-113.43
-101.53
-84.90
-65.42
-47.33
-35.61
-33.95
-43.01
-60.20
-80.70
-99.11
-111.16
-114.43
-108.58
-94.84
-75.55
-53.74
-32.58
-14.65
-1.25
8.05
15.14
22.26
30.64
39.47
46.07
47.12
40.40
25.95
6.20
-15.08
-34.21
-48.77
-57.83
-61.54
-60.54
-55.59
-47.40
-36.88
-25.19
-13.66
-3.59
3.98
8.41
9.63
7.88
3.69
-2.22
-9.09
-16.13
-22.64
-28.06
-32.04
-34.57
-35.97
-36.82
-37.79
-39.37
-41.79
-44.98
-48.79
-53.19
-58.29
-64.37
-71.56
-79.65
-87.96
-95.29
-100.22
-101.41
-97.97
-89.69
-77.00
-60.82
-42.22
-22.09
-1.03
20.47
41.68
61.38
77.86
89.52
95.41
95.65
91.41
84.39
76.29
68.27
60.91
54.33
48.47
43.27
38.77
34.95
31.58
28.21
24.16
18.78
11.65
2.78
-7.45
-18.47
-29.79
-41.17
-52.37
-62.88
-71.54
-76.69
-76.54
-69.96
-57.08
-39.45
-19.61
-0.24
16.58
29.84
39.38
45.57
48.71
48.90
46.27
41.25
34.82
28.39
23.29
20.22
18.95
18.50
17.74
15.96
13.10
9.73
6.45
3.53
0.68
-2.81
-7.79
-14.82
-24.06
-35.20
-47.51
-59.79
-70.40
-77.46
-79.27
-74.80
-64.08
-48.20
-29.10
-8.93
10.41
27.47
41.36
51.56
57.85
60.33
59.51
56.23
51.60
46.70
42.44
39.33
37.49
36.58
35.93
34.70
32.21
28.22
23.01
17.27
11.67
6.53
1.58
-3.97
-11.03
-20.29
-31.81
-44.98
-58.45
-70.30
-78.44
-80.97
-76.74
-65.64
-48.79
-28.19
-6.31
14.54
32.63
47.01
57.42
63.96
66.87
66.31
62.58
56.31
48.60
40.83
34.41
30.18
28.17
27.64
27.46
26.66
24.83
22.18
19.20
16.26
13.27
9.63
4.51
-2.76
-12.39
-23.87
-36.01
-47.09
-55.29
-59.05
-57.49
-50.51
-38.81
-23.65
-6.45
11.37
28.53
43.92
56.50
65.33
69.81
69.75
65.60
58.46
49.83
41.33
34.34
29.59
27.14
26.38
26.31
25.89
24.34
21.40
17.23
12.24
6.81
1.03
-5.31
-12.62
-21.31
-31.46
-42.74
-54.27
-64.73
-72.53
-76.03
-73.89
-65.50
-51.31
-32.78
-12.09
8.43
26.84
41.98
53.32
60.73
64.25
64.09
60.70
55.05
48.45
42.28
37.55
34.58
32.99
32.03
30.89
29.04
26.31
22.90
19.18
15.49
11.93
8.26
3.97
-1.62
-9.06
-18.57
-29.83
-41.94
-53.51
-62.82
-68.06
-67.81
-61.36
-49.05
-32.28
-13.14
6.14
23.70
38.38
49.61
57.20
61.13
61.50
58.63
53.19
46.24
39.03
32.73
28.14
25.49
24.45
24.30
24.09
23.05
20.72
17.05
12.34
7.07
1.60
-4.01
-10.06
-17.17
-25.87
-36.34
-48.02
-59.54
-68.94
-74.06
-73.23
-65.77
-52.24
-34.35
-14.41
5.28
22.93
37.51
48.57
56.04
59.92
60.28
57.44
52.08
45.33
38.48
32.64
28.37
25.54
23.59
21.87
19.89
17.54
14.95
12.24
9.41
6.29
2.61
-1.89
-7.35
-13.89
-21.59
-30.54
-40.69
-51.67
-62.56
-71.73
-77.21
-77.09
-70.32
-57.11
-38.95
-18.24
2.51
21.23
36.70
48.40
56.31
60.64
61.74
60.13
56.56
51.91
47.00
42.37
38.30
34.87
32.08
29.94
28.36
27.06
25.53
23.15
19.48
14.41
8.28
1.68
-4.86
-11.05
-16.97
-22.86
-28.99
-35.60
-42.97
-51.34
-60.90
-71.29
-81.32
-88.94
-91.72
-87.76
-76.43
-58.84
-37.45
-15.27
5.13
22.20
35.45
45.11
51.56
55.17
56.21
55.00
52.05
48.11
43.96
40.23
37.28
35.10
33.45
32.07
30.78
29.50
28.17
26.65
24.62
21.72
17.61
12.13
5.38
-2.29
-10.29
-18.01
-24.97
-31.07
-36.68
-42.59
-49.67
-58.43
-68.51
-78.57
-86.52
-90.06
-87.44
-78.04
-62.50
-42.72
-21.20
-0.48
17.58
32.04
42.81
50.27
54.82
56.73
56.14
53.47
49.54
45.51
42.48
41.13
41.38
42.50
43.54
43.71
42.68
40.58
37.78
34.68
31.58
28.55
25.52
22.25
18.43
13.79
8.09
1.32
-6.32
-14.41
-22.43
-29.83
-36.30
-41.84
-46.74
-51.60
-57.09
-63.76
-71.74
-80.52
-88.85
-94.92
-96.83
-93.02
-82.92
-67.15
-47.46
-26.20
-5.72
12.18
26.58
37.33
44.67
49.01
50.70
50.22
48.28
45.78
43.63
42.45
42.30
42.77
43.27
43.33
42.85
42.04
41.12
40.15
38.91
37.04
34.30
30.63
26.19
21.20
15.82
10.05
3.83
-2.87
-9.94
-17.09
-23.94
-30.19
-35.63
-40.40
-44.93
-49.85
-55.82
-63.22
-71.94
-81.11
-89.15
-94.09
-94.07
-88.00
-75.89
-58.96
-39.28
-19.17
-0.67
14.90
27.01
35.82
41.89
45.89
48.37
49.61
49.66
48.46
46.11
43.02
39.90
37.54
36.45
36.64
37.60
38.66
39.23
39.08
38.17
36.62
34.37
31.27
27.15
22.00
16.10
9.84
3.58
-2.48
-8.31
-14.00
-19.57
-25.00
-30.24
-35.23
-40.05
-44.91
-50.12
-56.07
-63.00
-70.66
-78.14
-83.90
-86.06
-83.16
-74.76
-61.70
-45.87
-29.56
-14.61
-1.98
8.20
16.40
23.15
28.70
32.98
35.74
36.85
36.43
34.87
32.81
31.00
30.08
30.38
31.83
33.96
36.03
37.34
37.47
36.39
34.37
31.70
28.57
24.97
20.85
16.23
11.35
6.54
2.00
-2.37
-6.93
-12.20
-18.40
-25.35
-32.49
-39.13
-44.87
-49.89
-55.01
-61.31
-69.47
-79.19
-89.04
-96.72
-99.94
-97.22
-88.30
-74.12
-56.31
-36.66
-16.76
1.99
18.35
31.23
39.93
44.37
45.17
43.45
40.45
37.16
34.22
32.00
30.72
30.49
31.31
32.79
34.30
35.11
34.75
33.22
30.99
28.70
26.69
24.78
22.29
18.45
12.86
5.81
-1.80
-8.83
-14.47
-18.58
-21.72
-24.85
-28.86
-34.32
-41.44
-50.05
-59.76
-69.86
-79.24
-86.37
-89.55
-87.27
-78.87
-64.79
-46.58
-26.47
-6.78
10.70
25.03
35.95
43.67
48.47
50.52
49.95
47.11
42.71
37.83
33.63
31.03
30.41
31.48
33.48
35.53
36.88
37.15
36.40
34.88
32.86
30.35
27.16
22.90
17.26
10.24
2.30
-5.79
-13.22
-19.54
-24.84
-29.72
-34.92
-41.01
-48.27
-56.61
-65.74
-75.10
-83.87
-90.80
-94.34
-92.86
-85.25
-71.42
-52.53
-30.77
-8.72
11.39
28.22
41.31
50.95
57.61
61.62
63.08
62.01
58.66
53.73
48.27
43.46
40.05
38.27
37.72
37.76
37.77
37.41
36.59
35.32
33.56
31.11
27.77
23.40
18.03
11.79
4.85
-2.68
-10.69
-19.00
-27.28
-35.03
-41.84
-47.52
-52.41
-57.27
-63.10
-70.65
-79.81
-89.36
-96.94
-99.77
-95.57
-83.59
-64.91
-42.17
-18.60
3.07
21.24
35.57
46.50
54.60
60.16
63.23
63.85
62.37
59.54
56.38
53.87
52.56
52.48
53.13
53.78
53.77
52.72
50.73
48.07
45.08
41.84
38.14
33.63
28.00
21.16
13.34
5.00
-3.35
-11.22
-18.33
-24.61
-30.27
-35.78
-41.79
-48.96
-57.73
-68.14
-79.65
-91.03
-100.41
-105.56
-104.40
-95.70
-79.54
-57.58
-32.61
-7.77
14.41
32.60
46.66
57.16
64.65
69.40
71.39
70.73
68.01
64.31
60.91
58.66
57.79
57.83
58.03
57.72
56.67
55.07
53.24
51.44
49.59
47.34
44.24
39.90
34.19
27.22
19.25
10.69
1.95
-6.58
-14.51
-21.59
-27.73
-33.10
-38.07
-43.24
-49.26
-56.68
-65.82
-76.50
-87.83
-98.08
-105.00
-106.29
-100.34
-86.81
-66.82
-42.69
-17.32
6.53
26.86
42.71
54.06
61.52
65.86
67.77
67.71
66.02
63.20
60.00
57.38
56.17
56.66
58.42
60.47
61.80
61.76
60.31
57.75
54.46
50.59
46.08
40.86
35.09
29.17
23.51
18.29
13.21
7.68
1.16
-6.49
-14.91
-23.34
-31.10
-37.82
-43.57
-48.76
-53.93
-59.63
-66.34
-74.33
-83.41
-92.61
-100.16
-103.67
-100.84
-90.34
-72.40
-48.86
-22.70
2.92
25.48
43.54
56.67
65.09
69.36
70.15
68.28
64.72
60.53
56.70
53.95
52.54
52.36
53.13
54.54
56.45
58.78
61.32
63.55
64.62
63.63
60.00
53.72
45.39
35.88
26.10
16.68
7.90
-0.20
-7.67
-14.70
-21.58
-28.63
-36.10
-44.08
-52.30
-60.45
-68.32
-76.27
-84.96
-94.97
-106.05
-116.79
-124.71
-127.04
-121.68
-107.98
-87.04
-61.40
-34.18
-8.42
13.67
30.86
42.96
50.50
54.41
55.68
55.13
53.38
50.90
48.16
45.70
44.06
43.61
44.42
46.19
48.42
50.59
52.31
53.41
53.71
52.95
50.71
46.63
40.58
32.90
24.37
16.00
8.56
2.32
-3.16
-8.67
-14.99
-22.40
-30.53
-38.58
-45.71
-51.48
-56.09
-60.37
-65.40
-72.08
-80.65
-90.41
-99.74
-106.38
-108.04
-103.01
-90.73
-71.98
-48.78
-23.83
0.13
20.96
37.45
49.32
57.01
61.25
62.83
62.39
60.52
57.81
54.91
52.46
50.95
50.50
50.92
51.82
52.78
53.54
53.93
53.73
52.66
50.34
46.52
41.28
35.01
28.24
21.49
14.91
8.43
1.83
-4.99
-11.87
-18.51
-24.64
-30.15
-35.16
-39.88
-44.55
-49.40
-54.83
-61.44
-69.83
-80.21
-91.90
-103.08
-111.04
-112.90
-106.60
-91.79
-70.03
-44.37
-18.40
4.83
23.56
37.40
46.94
53.13
56.77
58.44
58.58
57.65
56.19
54.68
53.38
52.25
51.16
50.07
49.18
48.87
49.39
50.64
52.02
52.68
51.79
48.82
43.77
37.15
29.69
22.14
15.06
8.63
2.78
-2.74
-8.17
-13.62
-19.11
-24.63
-30.12
-35.61
-41.10
-46.63
-52.26
-58.19
-64.82
-72.60
-81.70
-91.61
-100.82
-107.14
-108.13
-102.01
-88.38
-68.41
-44.60
-20.00
2.73
21.83
36.61
47.21
54.15
57.96
59.12
58.21
55.98
53.33
51.13
49.88
49.53
49.59
49.46
48.83
47.84
46.91
46.42
46.35
46.20
45.26
42.94
39.01
33.71
27.50
20.94
14.46
8.37
2.81
-2.23
-7.03
-11.99
-17.50
-23.63
-30.08
-36.25
-41.58
-45.89
-49.55
-53.39
-58.42
-65.44
-74.78
-85.94
-97.51
-107.33
-112.83
-111.76
-102.88
-86.48
-64.35
-39.28
-14.28
8.19
26.59
40.36
49.70
55.26
57.89
58.43
57.58
55.93
53.95
52.02
50.44
49.30
48.47
47.64
46.63
45.54
44.71
44.56
45.10
45.79
45.71
43.87
39.84
33.83
26.76
19.74
13.57
8.52
4.28
0.18
-4.47
-10.09
-16.66
-23.76
-30.83
-37.42
-43.45
-49.19
-55.14
-61.86
-69.75
-78.94
-89.07
-99.17
-107.55
-112.11
-110.87
-102.64
-87.54
-67.04
-43.60
-19.82
2.02
20.49
34.94
45.31
51.90
55.23
55.88
54.42
51.51
47.81
44.02
40.92
39.18
39.16
40.70
43.14
45.54
47.06
47.21
46.00
43.72
40.76
37.27
33.26
28.65
23.48
17.92
12.21
6.49
0.68
-5.44
-12.10
-19.25
-26.51
-33.38
-39.44
-44.66
-49.50
-54.71
-61.13
-69.25
-78.96
-89.35
-98.78
-104.93
-105.48
-98.75
-84.35
-63.46
-38.61
-12.96
10.57
29.99
44.47
54.04
59.33
61.10
60.19
57.47
53.91
50.42
47.72
46.14
45.69
46.11
47.04
48.05
48.74
48.78
47.95
46.17
43.57
40.32
36.58
32.37
27.60
22.22
16.33
10.04
3.44
-3.53
-11.00
-18.99
-27.24
-35.27
-42.52
-48.66
-53.84
-58.65
-64.00
-70.83
-79.69
-90.34
-101.49
-110.88
-115.67
-113.23
-102.17
-82.91
-57.76
-30.16
-3.62
19.28
37.28
50.34
59.11
64.39
66.88
67.07
65.43
62.47
58.80
55.09
51.86
49.41
47.76
46.73
46.05
45.59
45.30
45.14
44.91
44.02
41.77
37.59
31.39
23.75
15.63
8.02
1.43
-4.31
-9.88
-16.02
-23.22
-31.49
-40.38
-49.20
-57.31
-64.42
-70.74
-77.05
-84.54
-94.33
-106.83
-121.15
-134.90
-144.62
-146.89
-139.60
-122.84
-98.90
-71.53
-44.54
-20.72
-1.30
13.90
25.80
35.35
43.18
49.41
53.91
56.48
56.91
55.24
51.88
47.69
43.96
42.08
43.18
47.50
54.18
61.36
66.79
68.50
65.51
58.12
47.64
35.93
24.69
15.14
7.83
2.79
-0.33
-2.20
-3.71
-6.01
-10.19
-17.00
-26.59
-38.27
-50.70
-62.17
-70.91
-75.45
-74.85
-68.78
-57.54
-41.88
-22.87
-1.75
20.15
41.53
61.08
77.59
90.15
98.10
101.33
100.14
95.32
88.06
79.89
72.41
67.00
64.52
64.91
67.26
70.07
71.72
71.07
67.74
62.15
55.15
47.55
39.67
31.29
21.87
11.06
-0.75
-12.40
-22.26
-28.94
-31.97
-32.12
-31.18
-31.26
-34.13
-40.54
-50.15
-61.63
-72.94
-81.73
-85.71
-83.06
-72.83
-55.30
-32.07
-5.85
20.08
42.69
59.78
70.39
74.66
73.37
67.58
58.29
46.57
33.86
22.00
13.11
9.00
10.46
16.90
26.43
36.42
44.40
48.66
48.65
44.71
37.61
28.07
16.59
3.59
-10.25
-23.75
-35.37
-43.72
-48.16
-49.15
-48.21
-47.27
-47.93
-50.73
-54.95
-58.80
-60.16
-57.34
-49.79
-38.28
-24.68
-11.26
0.11
8.51
14.11
17.88
20.89
23.94
27.31
30.89
34.45
37.80
40.79
43.17
44.56
44.50
42.71
39.25
34.51
29.04
23.25
17.26
10.90
3.99
-3.36
-10.61
-16.84
-21.12
-22.88
-22.22
-19.91
-17.24
-15.67
-16.61
-21.09
-29.47
-41.22
-54.69
-67.33
-76.12
-78.31
-72.20
-57.74
-36.57
-11.67
13.49
35.90
53.71
66.39
74.42
78.65
79.76
78.01
73.47
66.42
57.72
48.77
41.03
35.57
32.68
32.00
32.86
34.51
36.29
37.56
37.57
35.64
31.29
24.50
15.84
6.20
-3.45
-12.45
-20.55
-28.03
-35.49
-43.68
-53.14
-63.84
-74.93
-84.57
-90.42
-90.21
-82.67
-68.05
-48.26
-26.21
-5.03
12.92
26.44
35.57
41.10
44.00
45.00
44.36
42.03
37.86
32.06
25.23
18.34
12.45
8.35
6.34
6.06
6.68
7.23
6.85
5.12
2.05
-1.96
-6.42
-10.84
-14.93
-18.71
-22.56
-27.09
-33.03
-40.98
-51.01
-62.47
-73.80
-82.72
-86.74
-83.92
-73.61
-56.78
-35.87
-14.02
5.79
21.64
32.89
40.06
44.23
46.40
47.10
46.34
43.91
39.78
34.39
28.67
23.74
20.54
19.42
19.97
21.27
22.12
21.58
19.31
15.54
10.88
5.91
0.89
-4.33
-10.10
-16.78
-24.55
-33.41
-43.21
-53.57
-63.75
-72.43
-77.86
-78.17
-72.19
-59.94
-42.86
-23.41
-4.22
12.75
26.59
37.32
45.44
51.36
55.18
56.76
55.93
52.81
47.87
41.81
35.47
29.63
24.90
21.67
20.00
19.58
19.77
19.74
18.70
16.06
11.56
5.21
-2.77
-12.03
-22.18
-32.72
-43.24
-53.51
-63.59
-73.75
-84.11
-94.04
-102.00
-105.78
-103.16
-92.94
-75.66
-53.59
-30.03
-8.30
9.29
21.97
30.20
35.12
37.82
38.85
38.30
36.17
32.75
28.79
25.35
23.27
22.74
23.23
23.78
23.60
22.57
21.20
20.25
20.02
19.99
18.94
15.49
8.90
-0.41
-11.10
-21.40
-29.94
-36.29
-41.00
-45.27
-50.38
-57.26
-66.19
-76.59
-87.05
-95.44
-99.41
-97.00
-87.37
-71.20
-50.57
-28.23
-6.83
11.79
26.89
38.49
46.93
52.55
55.50
55.90
54.06
50.54
46.19
41.98
38.70
36.82
36.37
36.88
37.70
38.16
37.78
36.35
33.97
30.83
27.11
22.85
17.89
11.95
4.82
-3.39
-12.12
-20.40
-27.20
-31.93
-34.76
-36.71
-39.30
-43.97
-51.53
-61.86
-73.87
-85.78
-95.42
-100.76
-100.25
-93.23
-80.09
-62.31
-42.08
-21.74
-3.31
11.88
23.34
31.10
35.65
37.67
37.85
36.85
35.23
33.34
31.41
29.63
28.16
27.20
26.85
27.03
27.41
27.49
26.78
24.92
21.78
17.45
12.13
6.12
-0.24
-6.67
-12.96
-19.12
-25.32
-31.94
-39.47
-48.32
-58.51
-69.42
-79.58
-86.86
-88.92
-84.02
-71.67
-52.99
-30.48
-7.26
13.89
31.18
44.04
52.79
58.08
60.50
60.46
58.26
54.38
49.64
44.98
41.28
39.00
38.03
37.72
37.36
36.45
34.96
33.14
31.17
28.83
25.51
20.54
13.60
5.07
-4.09
-12.73
-20.10
-26.31
-32.17
-38.90
-47.47
-58.08
-69.81
-80.81
-88.66
-91.01
-86.27
-74.08
-55.50
-32.75
-8.62
14.16
33.52
48.29
58.23
63.74
65.55
64.47
61.37
57.15
52.78
49.15
46.89
46.11
46.38
46.94
47.02
46.15
44.37
41.99
39.36
36.49
33.05
28.47
22.33
14.65
5.99
-2.80
-10.88
-17.80
-23.59
-28.80
-34.20
-40.54
-48.40
-58.01
-69.04
-80.58
-90.95
-97.90
-99.10
-92.85
-78.77
-58.12
-33.53
-8.17
15.10
34.44
49.23
59.65
66.27
69.50
69.64
66.89
61.89
55.76
49.94
45.78
44.07
44.74
46.94
49.42
51.06
51.20
49.81
47.30
44.20
40.84
37.19
32.86
27.38
20.41
12.04
2.80
-6.49
-14.96
-22.12
-27.87
-32.69
-37.37
-42.90
-50.14
-59.60
-71.10
-83.43
-94.50
-101.61
-102.30
-95.11
-80.19
-59.22
-34.87
-10.06
12.81
32.09
46.98
57.35
63.50
66.09
65.98
64.13
61.43
58.60
56.16
54.38
53.30
52.73
52.29
51.64
50.59
49.23
47.80
46.41
44.97
43.10
40.35
36.51
31.68
26.13
20.12
13.73
6.93
-0.25
-7.53
-14.53
-20.94
-26.72
-32.12
-37.57
-43.48
-50.15
-57.81
-66.57
-76.17
-85.78
-93.67
-97.54
-95.15
-85.19
-67.98
-45.53
-20.92
2.71
22.96
38.64
49.67
56.65
60.46
61.82
61.30
59.37
56.52
53.29
50.18
47.57
45.62
44.28
43.39
42.75
42.13
41.35
40.16
38.36
35.82
32.57
28.82
24.89
21.00
17.21
13.32
8.98
3.87
-2.23
-9.28
-16.96
-24.79
-32.24
-38.91
-44.66
-49.67
-54.47
-59.78
-66.27
-74.21
-83.12
-91.62
-97.64
-98.86
-93.57
-81.18
-62.63
-40.11
-16.42
5.72
24.47
38.97
49.31
56.04
59.84
61.32
60.92
59.17
56.72
54.49
53.38
54.00
56.31
59.62
62.75
64.45
63.99
61.27
56.85
51.55
46.07
40.71
35.34
29.65
23.36
16.40
9.00
1.46
-5.98
-13.24
-20.34
-27.32
-34.09
-40.65
-47.12
-53.86
-61.25
-69.30
-77.23
-83.41
-85.77
-82.43
-72.56
-56.73
-36.86
-15.61
4.42
21.38
34.43
43.62
49.43
52.34
52.69
50.70
46.73
41.55
36.16
31.55
28.23
26.02
24.20
22.01
19.13
15.88
12.89
10.60
8.91
7.08
4.24
-0.16
-6.03
-12.80
-19.79
-26.56
-33.04
-39.34
-45.61
-51.95
-58.60
-65.92
-74.26
-83.52
-92.70
-99.93
-102.87
-99.64
-89.52
-73.23
-52.75
-30.52
-8.85
10.68
27.18
40.28
49.85
55.84
58.24
57.25
53.54
48.20
42.65
38.20
35.68
35.07
35.69
36.51
36.72
35.98
34.46
32.51
30.32
27.72
24.29
19.57
13.47
6.24
-1.49
-9.05
-16.00
-22.19
-27.83
-33.34
-39.26
-46.02
-53.89
-62.69
-71.56
-79.05
-83.22
-82.19
-74.80
-61.12
-42.60
-21.72
-1.22
16.72
30.96
41.46
48.86
53.85
56.76
57.47
