1520269328.00
64.000000
-0.00
-0.00
-0.00
-0.00
-0.00
-0.00
-0.00
-0.00
-0.00
-0.00
0.00
0.01
0.01
-0.00
-0.03
-0.05
-0.05
0.00
0.13
0.36
0.66
1.01
1.37
1.72
2.06
2.40
2.79
3.24
3.80
4.42
5.06
5.66
6.20
6.68
7.15
7.68
8.31
9.14
10.09
11.04
11.88
12.56
13.14
13.76
14.65
15.96
17.91
20.32
22.90
25.38
27.58
29.57
31.68
34.32
37.81
42.54
48.15
54.10
59.83
64.97
69.58
74.14
79.34
85.71
93.76
103.00
112.62
121.73
129.77
136.75
143.30
150.75
157.77
166.64
177.95
191.79
206.97
220.57
228.25
225.36
208.53
176.87
132.76
80.05
23.07
-34.94
-92.44
-149.16
-205.23
-260.37
-313.74
-363.87
-409.84
-450.91
-486.51
-515.74
-537.21
-549.18
-549.92
-538.35
-514.25
-478.81
-434.14
-382.83
-327.48
-270.34
-213.12
-157.13
-103.41
-52.86
-6.47
34.91
70.65
100.52
124.67
143.59
157.95
168.39
175.48
179.62
181.14
180.37
177.67
173.42
167.97
161.60
154.50
146.80
138.64
130.21
121.79
113.63
105.92
98.61
91.51
84.33
76.84
69.03
61.17
53.69
47.04
41.44
36.73
32.44
27.96
22.84
17.02
10.93
5.26
0.66
-2.53
-4.51
-5.87
-7.35
-9.60
-13.02
-17.69
-23.25
-28.80
-32.79
-33.28
-28.57
-17.95
-2.36
15.67
32.76
45.87
53.34
55.31
53.21
48.90
43.78
38.47
32.99
27.33
21.85
17.37
14.82
14.64
16.44
18.93
20.39
19.49
15.83
10.21
4.31
-0.08
-1.73
-0.44
2.86
6.60
9.33
10.32
9.76
8.40
6.86
5.16
2.65
-1.51
-7.72
-15.41
-23.16
-29.15
-31.92
-30.83
-26.10
-18.47
-8.91
1.64
12.06
21.02
27.03
28.98
26.62
20.88
13.58
6.75
1.91
-0.53
-1.14
-1.00
-0.97
-1.23
-1.35
-0.76
0.69
2.59
4.22
5.04
5.04
4.75
4.93
6.12
8.39
11.44
14.76
17.82
20.17
21.58
21.74
20.58
18.24
15.02
11.34
7.56
3.86
0.17
-3.78
-8.40
-13.90
-20.20
-26.74
-32.61
-36.71
-38.25
-36.94
-33.11
-27.49
-20.91
-14.16
-8.02
-3.35
-0.97
-1.39
-4.36
-8.66
-12.48
-14.00
-12.26
-7.56
-1.22
5.07
10.02
13.11
14.50
14.61
13.89
12.49
10.45
7.88
5.21
3.04
1.94
2.21
3.69
5.97
8.39
10.37
11.55
11.90
11.64
11.17
10.92
11.16
12.15
13.98
16.66
20.03
23.66
26.74
28.17
26.96
22.00
13.54
3.14
-6.88
-14.21
-17.40
-16.20
-11.30
-3.80
5.17
14.69
23.58
30.28
32.95
30.07
21.04
6.56
-11.52
-30.67
-48.35
-62.66
-72.74
-78.73
-81.46
-82.00
-81.18
-79.35
-76.44
-72.21
-66.62
-59.97
-52.71
-45.25
-37.76
-30.21
-22.73
-15.71
-9.80
-5.59
-3.27
-2.47
-2.39
-2.23
-1.46
0.05
2.18
4.68
7.26
9.59
11.24
11.78
10.93
8.70
5.43
1.64
-2.12
-5.43
-8.09
-9.97
-10.98
-11.01
-9.88
-7.47
-3.77
1.03
6.46
11.81
16.33
19.44
20.90
20.80
19.35
16.60
12.36
6.44
-1.05
-9.37
-17.30
-23.51
-27.13
-28.02
-26.73
-24.03
-20.52
-16.41
-11.63
-6.18
-0.45
4.86
9.00
11.60
12.82
13.28
13.73
14.76
16.72
19.74
23.93
29.39
36.12
43.92
52.34
60.81
68.92
76.68
84.60
93.43
103.62
114.89
126.06
135.51
141.89
144.81
145.04
143.97
142.74
141.58
139.79
136.18
129.66
119.68
106.31
90.23
72.62
55.20
39.80
27.75
19.11
12.37
4.69
-7.02
-24.87
-49.19
-78.31
-109.30
-138.72
-163.45
-181.04
-190.01
-189.91
-181.23
-165.10
-142.80
-115.57
-84.81
-52.57
-21.92
3.39
19.87
25.75
21.85
11.53
-0.51
-9.93
-14.31
-13.60
-9.47
-3.82
2.31
9.18
17.83
28.95
42.08
55.52
66.90
74.05
75.39
69.69
55.56
31.60
-2.62
-45.13
-90.71
-131.74
-160.47
-171.81
-165.08
-143.90
-114.21
-81.72
-50.21
-21.22
4.84
27.47
45.58
57.90
63.96
64.64
61.87
57.76
53.58
49.36
44.21
37.18
28.18
18.35
9.80
4.69
4.31
8.45
15.49
23.09
29.07
32.18
32.29
30.19
27.05
24.02
21.79
20.52
19.90
19.29
18.00
15.53
11.81
7.28
2.77
-0.81
-2.82
-3.13
-2.16
-0.63
0.75
1.54
1.63
1.08
0.01
-1.55
-3.60
-6.08
-8.73
-11.11
-12.66
-12.98
-11.97
-9.93
-7.51
-5.51
-4.67
-5.41
-7.87
-11.88
-17.11
-23.18
-29.78
-36.60
-43.35
-49.68
-55.24
-59.68
-62.78
-64.45
-64.68
-63.46
-60.66
-56.09
-49.61
-41.31
-31.59
-21.09
-10.58
-0.69
8.14
15.68
21.78
26.34
29.25
30.52
30.32
29.03
27.13
25.13
23.39
22.06
21.09
20.17
18.91
16.91
13.99
10.36
6.59
3.41
1.51
1.17
2.20
3.98
5.81
7.13
7.81
8.04
8.19
8.51
9.05
9.63
10.00
10.03
9.68
8.99
7.88
6.11
3.33
-0.73
-6.14
-12.64
-19.86
-27.37
-34.89
-42.26
-49.35
-55.91
-61.57
-65.86
-68.33
-68.77
-67.21
-64.03
-59.76
-55.00
-50.16
-45.37
-40.44
-34.88
-28.27
-20.40
-11.51
-2.28
6.34
13.42
18.31
20.81
21.21
20.16
18.47
16.92
16.14
16.47
17.92
20.17
22.67
24.86
26.29
26.78
26.40
25.39
23.97
22.36
20.73
19.24
18.08
17.37
17.12
17.15
17.14
16.80
15.99
14.75
13.26
11.68
10.07
8.25
5.98
3.03
-0.65
-4.82
-9.06
-12.91
-16.03
-18.35
-20.00
-21.15
-21.87
-22.06
-21.51
-20.05
-17.70
-14.66
-11.23
-7.66
-4.07
-0.45
3.24
6.96
10.55
13.85
16.75
19.27
21.56
23.77
25.94
27.90
29.33
29.86
29.32
27.84
25.94
24.30
23.44
23.49
23.96
23.98
22.57
19.12
13.69
7.09
0.63
-4.31
-6.78
-6.58
-4.32
-1.28
0.90
0.54
-3.67
-12.09
-23.75
-36.26
-46.39
-51.02
-48.37
-38.69
-24.17
-8.10
6.42
17.40
24.34
27.84
28.78
27.71
24.65
19.40
11.97
3.00
-6.31
-14.41
-19.91
-21.97
-20.48
-15.97
-9.30
-1.45
6.69
14.34
20.81
25.49
27.95
28.13
26.46
23.80
21.29
19.99
20.55
22.99
26.68
30.50
33.22
33.91
32.29
28.83
24.54
20.59
17.84
16.61
16.58
17.06
17.35
16.98
15.92
14.43
12.85
11.38
10.06
8.77
7.40
5.95
4.51
3.18
1.99
0.87
-0.31
-1.60
-2.92
-4.06
-4.78
-5.01
-4.86
-4.63
-4.63
-5.01
-5.61
-6.04
-5.90
-4.97
-3.35
-1.42
0.33
1.58
2.17
2.18
1.71
0.82
-0.48
-2.21
-4.34
-6.88
-9.85
-13.37
-17.62
-22.78
-28.89
-35.84
-43.25
-50.56
-57.09
-62.24
-65.60
-67.09
-66.97
-65.70
-63.77
-61.56
-59.22
-56.74
-53.99
-50.90
-47.45
-43.69
-39.68
-35.52
-31.34
-27.26
-23.41
-19.89
-16.74
-13.92
-11.26
-8.45
-5.05
-0.65
4.97
11.69
19.01
26.19
32.49
37.44
41.00
43.47
45.40
47.30
49.52
52.05
54.52
56.24
56.29
53.78
48.22
39.82
29.57
19.13
10.30
4.51
2.38
3.59
7.07
11.45
15.49
18.34
19.64
19.38
17.76
15.06
11.61
7.75
3.84
0.26
-2.68
-4.80
-6.00
-6.26
-5.57
-3.97
-1.59
1.32
4.28
6.74
8.12
8.03
6.38
3.44
-0.23
-3.94
-7.06
-9.21
-10.38
-10.94
-11.55
-12.87
-15.43
-19.44
-24.80
-31.24
-38.40
-46.01
-53.84
-61.71
-69.49
-77.05
-84.30
-91.14
-97.45
-102.99
-107.46
-110.48
-111.76
-111.21
-108.97
-105.39
-100.84
-95.55
-89.56
-82.79
-75.20
-66.93
-58.27
-49.63
-41.30
-33.37
-25.81
-18.50
-11.43
-4.70
1.56
7.35
12.81
18.14
23.45
28.65
33.49
37.72
41.22
44.03
46.20
47.67
48.20
47.54
45.54
42.42
38.68
34.90
31.52
28.62
26.00
23.33
20.37
17.04
13.44
9.79
6.35
3.41
1.28
0.24
0.44
1.82
4.11
6.87
9.68
12.25
14.45
16.31
17.90
19.24
20.36
21.22
21.83
22.26
22.51
22.64
22.62
22.42
22.05
21.56
21.03
20.54
20.10
19.63
18.97
17.95
16.43
14.37
11.86
9.09
6.27
3.54
0.88
-1.84
-4.81
-8.17
-11.90
-15.81
-19.55
-22.66
-24.62
-25.00
-23.48
-19.97
-14.65
-8.01
-0.72
6.45
12.85
18.10
22.06
24.83
26.59
27.49
27.64
27.08
25.89
24.18
22.13
19.88
17.50
15.02
12.45
9.87
7.44
5.30
3.53
2.05
0.64
-0.96
-2.98
-5.49
-8.37
-11.42
-14.37
-17.06
-19.42
-21.56
-23.69
-26.07
-28.83
-31.84
-34.65
-36.61
-37.04
-35.54
-32.16
-27.42
-22.21
-17.42
-13.68
-11.16
-9.64
-8.71
-7.98
-7.32
-6.75
-6.40
-6.24
-6.02
-5.17
-2.99
1.23
7.93
17.22
28.74
41.60
54.44
65.54
73.09
75.73
73.01
65.68
55.54
44.89
35.76
29.34
25.76
24.36
24.21
24.55
24.96
25.39
25.99
26.88
28.21
30.15
32.93
36.81
41.95
48.22
55.18
62.03
67.78
71.54
72.72
71.36
68.07
63.88
59.88
56.82
54.96
54.12
53.96
54.25
54.96
56.19
57.86
59.56
60.53
59.89
57.03
51.92
45.10
37.51
30.06
23.35
17.49
12.24
7.21
2.11
-3.17
-8.48
-13.53
-17.88
-21.06
-22.63
-22.21
-19.63
-15.05
-8.88
-1.85
5.18
11.42
16.29
19.51
21.16
21.51
20.89
19.60
17.84
15.70
13.29
10.72
8.16
5.71
3.41
1.15
-1.26
-4.06
-7.39
-11.26
-15.53
-19.90
-24.03
-27.59
-30.37
-32.29
-33.43
-33.96
-34.10
-34.00
-33.75
-33.43
-33.12
-32.95
-33.05
-33.46
-34.01
-34.39
-34.14
-32.92
-30.59
-27.32
-23.51
-19.64
-16.06
-12.97
-10.39
-8.33
-6.78
-5.79
-5.35
-5.35
-5.59
-5.80
-5.77
-5.43
-4.92
-4.50
-4.48
-5.05
-6.26
-7.94
-9.87
-11.78
-13.50
-14.98
-16.27
-17.44
-18.59
-19.76
-21.02
-22.38
-23.85
-25.33
-26.53
-27.04
-26.38
-24.18
-20.44
-15.52
-10.08
-4.88
-0.46
2.96
5.50
7.44
9.06
10.45
11.54
12.22
12.46
12.38
12.21
12.20
12.53
13.28
14.34
15.50
16.43
16.71
15.89
13.65
9.86
4.75
-1.16
-7.20
-12.68
-17.05
-20.01
-21.47
-21.49
-20.24
-17.95
-14.91
-11.50
-8.15
-5.29
-3.27
-2.21
-1.96
-2.21
-2.61
-2.90
-3.04
-3.08
-3.09
-2.95
-2.39
-1.06
1.20
4.27
7.70
10.87
13.19
14.24
13.87
12.12
9.15
5.19
0.49
-4.63
-9.83
-14.69
-18.87
-22.12
-24.34
-25.58
-25.95
-25.58
-24.62
-23.23
-21.57
-19.91
-18.47
-17.37
-16.54
-15.77
-14.74
-13.21
-11.13
-8.65
-6.10
-3.90
-2.43
-1.95
-2.50
-3.93
-5.85
-7.78
-9.19
-9.62
-8.78
-6.60
-3.26
0.82
5.03
8.71
11.22
12.19
11.55
9.62
6.95
4.20
1.89
0.22
-0.99
-2.25
-4.20
-7.39
-12.06
-18.13
-25.21
-32.73
-40.10
-46.71
-51.96
-55.19
-55.87
-53.67
-48.70
-41.53
-33.13
-24.60
-16.89
-10.64
-6.13
-3.36
-2.19
-2.36
-3.52
-5.24
-7.06
-8.53
-9.33
-9.33
-8.50
-6.94
-4.83
-2.40
0.10
2.41
4.31
5.75
6.73
7.37
7.76
7.96
8.02
8.02
8.05
8.19
8.48
8.92
9.51
10.22
11.09
12.13
13.33
14.60
15.80
16.85
17.72
18.46
19.16
19.90
20.71
21.58
22.41
23.07
23.35
23.09
22.15
20.52
18.39
16.13
14.18
12.98
12.86
13.95
16.24
19.54
23.57
27.97
32.31
36.12
38.87
39.99
38.98
35.64
30.19
23.47
16.68
11.09
7.58
6.30
6.72
7.92
9.00
9.50
9.41
8.95
8.36
7.63
6.58
5.04
3.05
0.87
-1.08
-2.47
-3.15
-3.25
-3.03
-2.77
-2.60
-2.50
-2.32
-1.88
-1.10
-0.02
1.18
2.33
3.28
4.05
4.80
5.68
6.76
7.97
9.08
9.87
10.23
10.24
10.13
10.09
10.20
10.30
10.12
9.44
8.19
6.56
4.88
3.51
2.68
2.49
2.88
3.71
4.80
5.97
7.04
7.90
8.41
8.47
8.06
7.20
6.05
4.82
3.77
3.12
3.00
3.37
4.11
5.02
5.88
6.42
6.41
5.62
3.97
1.56
-1.25
-3.96
-6.05
-7.22
-7.44
-6.94
-6.11
-5.39
-5.16
-5.76
-7.52
-10.77
-15.73
-22.46
-30.79
-40.29
-50.38
-60.41
-69.75
-77.82
-84.13
-88.30
-90.19
-89.95
-88.03
-85.10
-81.89
-78.96
-76.58
-74.67
-73.00
-71.35
-69.68
-68.10
-66.82
-65.92
-65.27
-64.60
-63.63
-62.27
-60.62
-58.84
-56.96
-54.69
-51.53
-46.92
-40.54
-32.52
-23.45
-14.13
-5.36
2.29
8.56
13.38
16.83
19.03
20.13
20.34
20.00
19.49
19.20
19.38
20.01
20.94
21.87
22.59
22.97
23.06
22.95
22.77
22.60
22.50
22.50
22.61
22.83
23.18
23.70
24.53
25.82
27.61
29.73
31.75
33.15
33.56
33.01
32.04
31.53
32.39
35.26
40.30
47.24
55.48
64.29
72.98
80.97
87.83
93.24
96.97
98.82
98.68
96.59
92.77
87.72
82.03
76.28
70.83
65.76
60.88
55.91
50.64
45.04
39.23
33.38
27.59
21.89
16.30
10.94
6.04
1.89
-1.26
-3.38
-4.65
-5.52
-6.46
-7.89
-9.96
-12.55
-15.30
-17.74
-19.39
-19.94
-19.27
-17.50
-14.89
-11.82
-8.65
-5.66
-3.01
-0.83
0.81
1.80
2.09
1.70
0.72
-0.65
-2.19
-3.70
-5.08
-6.28
-7.31
-8.19
-8.89
-9.41
-9.79
-10.08
-10.38
-10.78
-11.34
-12.06
-12.90
-13.77
-14.56
-15.15
-15.53
-15.76
-16.03
-16.60
-17.71
-19.45
-21.72
-24.18
-26.34
-27.64
-27.63
-26.07
-23.04
-18.91
-14.21
-9.53
-5.29
-1.69
1.27
3.66
5.51
6.76
7.28
7.03
6.14
4.92
3.74
2.96
2.76
3.16
4.01
5.04
5.92
6.33
6.00
4.82
2.89
0.50
-1.98
-4.20
-5.94
-7.21
-8.16
-9.12
-10.46
-12.60
-15.90
-20.62
-26.84
-34.44
-43.15
-52.62
-62.41
-72.00
-80.72
-87.78
-92.41
-94.07
-92.63
-88.54
-82.70
-76.27
-70.30
-65.44
-61.78
-58.90
-56.03
-52.32
-47.10
-40.05
-31.22
-21.01
-10.07
0.86
10.97
19.54
26.00
30.06
31.74
31.42
29.71
27.33
24.89
22.75
20.92
19.14
17.08
14.48
11.28
7.60
3.68
-0.27
-4.18
-8.11
-12.20
-16.52
-21.00
-25.35
-29.09
-31.65
-32.46
-31.13
-27.54
-21.91
-14.78
-6.83
1.18
8.62
14.97
19.92
23.34
25.29
26.01
25.84
25.11
24.10
23.01
21.94
20.90
19.85
18.72
17.42
15.97
14.47
13.11
12.10
11.49
11.14
10.75
9.97
8.53
6.40
3.76
0.99
-1.53
-3.45
-4.62
-5.15
-5.39
-5.78
-6.68
-8.07
-9.50
-10.16
-9.10
-5.61
0.55
9.05
19.12
29.72
39.84
48.69
55.77
60.88
64.09
65.61
65.81
65.05
63.74
62.18
60.65
59.30
58.18
57.22
56.26
55.12
53.72
52.11
50.41
48.80
47.34
45.92
44.22
41.87
38.54
34.07
28.60
22.46
16.06
9.78
3.92
-1.44
-6.39
-11.21
-16.20
-21.56
-27.18
-32.53
-36.72
-38.79
-38.08
-34.49
-28.57
-21.37
-14.00
-7.32
-1.74
2.76
6.35
9.20
11.34
12.75
13.49
13.73
13.76
13.82
14.01
14.25
14.31
14.04
13.36
12.35
11.20
10.04
8.95
7.87
6.71
5.36
3.74
1.82
-0.40
-2.92
-5.83
-9.20
-13.11
-17.53
-22.22
-26.79
-30.73
-33.69
-35.67
-37.16
-39.02
-42.18
-47.25
-54.21
-62.37
-70.66
-77.97
-83.48
-86.80
-87.90
-86.87
-83.83
-78.82
-71.94
-63.37
-53.48
-42.73
-31.69
-20.85
-10.66
-1.45
6.58
13.33
18.79
22.99
25.97
27.80
28.53
28.28
27.16
25.29
22.72
19.45
15.39
10.47
4.70
-1.76
-8.57
-15.31
-21.58
-27.08
-31.69
-35.43
-38.34
-40.47
-41.75
-42.05
-41.24
-39.14
-35.65
-30.68
-24.21
-16.30
-7.10
3.06
13.73
24.38
34.50
43.64
51.50
57.88
62.71
65.98
67.82
68.44
68.21
67.56
66.96
66.78
67.21
68.18
69.40
70.36
70.56
69.56
67.20
63.63
59.23
54.46
49.63
44.90
40.25
35.63
31.14
27.02
23.59
20.97
18.99
17.22
15.14
12.46
9.31
6.27
4.06
3.26
4.06
6.22
9.20
12.45
15.57
18.42
21.02
23.37
25.38
26.81
27.45
27.22
26.20
24.68
22.97
21.30
19.71
18.08
16.21
13.99
11.44
8.80
6.40
4.57
3.52
3.19
3.26
3.15
2.13
-0.40
-4.77
-10.81
-17.82
-24.79
-30.66
-34.72
-36.92
-37.91
-38.89
-41.16
-45.66
-52.57
-61.21
-70.31
-78.43
-84.50
-88.10
-89.46
-89.26
-88.22
-86.85
-85.41
-84.00
-82.64
-81.34
-80.04
-78.47
-76.16
-72.53
-67.06
-59.53
-50.09
-39.26
-27.84
-16.65
-6.39
2.53
10.07
16.50
22.23
27.60
32.74
37.47
41.44
44.20
45.44
44.95
42.69
38.77
33.52
27.55
21.72
16.97
13.96
12.80
12.96
13.64
14.17
14.47
15.01
16.51
19.43
23.59
28.25
32.48
35.62
37.55
38.64
39.43
40.26
41.16
41.97
42.48
42.65
42.61
42.56
42.63
42.80
42.89
42.60
41.60
39.68
36.85
33.43
29.91
26.86
24.67
23.40
22.80
22.36
21.58
20.10
17.80
14.77
11.21
7.34
3.33
-0.65
-4.48
-8.07
-11.37
-14.42
-17.29
-19.98
-22.31
-23.97
-24.48
-23.43
-20.56
-15.93
-9.95
-3.26
3.36
9.14
13.41
15.75
15.98
14.26
11.11
7.30
3.69
0.98
-0.48
-0.90
-1.02
-1.94
-4.81
-10.42
-19.00
-30.07
-42.65
-55.52
-67.56
-77.90
-85.96
-91.42
-94.09
-93.96
-91.24
-86.36
-80.01
-73.00
-66.11
-59.93
-54.78
-50.69
-47.43
-44.52
-41.37
-37.29
-31.68
-24.18
-14.80
-4.10
6.85
16.70
24.08
28.09
28.51
25.86
21.16
15.63
10.28
5.85
2.73
1.09
0.90
2.00
4.01
6.41
8.69
10.48
11.71
12.55
13.32
14.40
16.02
18.21
20.81
23.42
25.50
26.48
25.93
23.78
20.35
16.20
11.93
7.88
4.02
0.06
-4.27
-8.98
-13.65
-17.61
-20.14
-20.78
-19.39
-16.17
-11.49
-5.74
0.66
7.25
13.50
18.87
22.94
25.54
26.77
26.91
26.28
25.10
23.53
21.63
19.49
17.25
15.05
13.01
11.11
9.25
7.20
4.70
1.51
-2.54
-7.51
-13.22
-19.27
-25.05
-29.83
-32.99
-34.15
-33.29
-30.79
-27.33
-23.69
-20.49
-17.99
-15.91
-13.59
-10.22
-5.25
1.37
9.10
17.04
24.31
30.41
35.37
39.63
43.69
47.79
51.80
55.29
57.76
58.87
58.50
56.62
53.18
48.07
41.31
33.29
24.80
16.72
9.52
2.90
-3.99
-11.93
-20.87
-29.65
-36.26
-38.72
-35.89
-27.82
-15.65
-0.92
14.95
30.80
45.67
58.52
68.11
73.31
73.49
68.91
60.95
51.84
44.08
39.73
39.69
43.39
49.10
54.63
58.13
58.65
56.14
51.18
44.46
36.47
27.49
17.79
7.76
-2.00
-10.84
-18.24
-23.96
-28.05
-30.80
-32.49
-33.32
-33.38
-32.66
-31.21
-29.17
-26.72
-24.09
-21.44
-18.94
-16.65
-14.64
-12.89
-11.35
-9.94
-8.65
-7.56
-6.81
-6.50
-6.49
-6.41
-5.74
-4.05
-1.21
2.47
6.42
9.98
12.68
14.37
15.14
15.22
14.84
14.21
13.45
12.63
11.81
11.01
10.26
9.51
8.70
7.67
6.26
4.33
1.85
-1.11
-4.28
-7.34
-9.91
-11.74
-12.71
-12.87
-12.43
-11.70
-11.05
-10.77
-10.99
-11.65
-12.49
-13.18
-13.37
-12.91
-11.92
-10.71
-9.71
-9.24
-9.38
-9.93
-10.53
-10.83
-10.65
-10.06
-9.31
-8.76
-8.75
-9.62
-11.71
-15.34
-20.83
-28.35
-37.81
-48.79
-60.44
-71.65
-81.11
-87.60
-90.14
-88.21
-81.76
-71.29
-57.73
-42.43
-26.95
-12.94
-1.81
5.53
8.95
9.03
6.92
3.88
0.91
-1.41
-2.92
-3.70
-3.86
-3.43
-2.33
-0.45
2.24
5.63
9.33
12.78
15.35
16.57
16.25
14.51
11.72
8.29
4.59
0.86
-2.74
-6.17
-9.40
-12.38
-14.93
-16.68
-17.27
-16.49
-14.55
-12.21
-10.52
-10.40
-12.18
-15.46
-19.28
-22.70
-25.21
-26.93
-28.30
-29.82
-31.68
-33.80
-35.89
-37.68
-38.84
-39.01
-37.85
-35.24
-31.62
-27.94
-25.29
-24.33
-24.71
-25.09
-23.73
-19.41
-12.09
-3.00
6.01
13.23
17.66
19.12
17.84
14.03
7.79
-0.81
-11.38
-22.98
-34.24
-43.64
-49.79
-51.85
-49.76
-44.47
-37.99
-32.92
-31.73
-35.63
-43.93
-54.02
-62.25
-65.43
-62.03
-52.72
-39.85
-26.22
-13.94
-3.96
3.81
9.69
13.72
15.53
14.79
11.71
7.28
2.99
0.24
-0.40
0.60
2.02
2.52
1.34
-1.30
-4.35
-6.37
-6.16
-3.07
2.89
11.22
21.19
32.12
43.45
54.78
65.85
76.48
86.51
95.85
104.46
112.33
119.45
125.74
130.96
134.73
136.57
136.09
133.08
127.67
120.24
111.22
101.03
89.95
78.26
66.28
54.49
43.35
33.15
23.92
15.43
7.31
-0.82
-9.22
-17.97
-26.96
-35.92
-44.45
-52.00
-58.05
-62.21
-64.34
-64.60
-63.34
-60.93
-57.60
-53.36
-48.02
-41.32
-33.23
-24.12
-14.88
-6.73
-0.89
1.90
1.65
-0.82
-4.23
-7.24
-8.90
-8.85
-7.18
-4.18
-0.02
5.24
11.56
18.51
25.20
30.47
33.34
33.62
32.06
30.07
29.05
29.72
31.92
34.94
38.22
41.79
46.31
52.51
60.61
69.92
79.03
86.47
91.27
93.33
93.41
92.63
92.03
92.14
92.86
93.49
93.00
90.36
84.82
76.07
64.29
50.01
34.05
17.46
1.41
-12.88
-24.44
-32.86
-38.58
-42.80
-47.05
-52.61
-59.90
-68.42
-77.03
-84.63
-90.73
-95.57
-99.94
-104.57
-109.79
-115.44
-121.06
-126.32
-131.13
-135.55
-139.46
-142.32
-143.13
-140.68
-133.97
-122.57
-106.78
-87.46
-65.77
-42.86
-19.74
2.61
23.21
41.08
55.46
66.06
73.24
77.94
81.25
84.06
86.67
88.88
90.18
90.15
88.65
85.88
82.14
77.66
72.49
66.52
59.62
51.73
42.88
33.15
22.62
11.37
-0.54
-12.93
-25.54
-38.00
-49.88
-60.77
-70.38
-78.66
-85.77
-91.93
-97.22
-101.24
-102.98
-100.95
-93.69
-80.39
-61.42
-38.37
-13.58
10.51
31.93
49.27
61.53
67.84
67.58
60.72
48.27
32.31
15.51
0.19
-12.37
-22.12
-29.72
-35.72
-40.08
-42.26
-41.77
-38.81
-34.30
-29.47
-25.15
-21.41
-17.68
-13.34
-8.25
-2.95
1.64
4.75
6.17
6.23
5.51
4.55
3.62
2.87
2.47
2.69
3.79
5.83
8.49
11.14
13.08
13.82
13.29
11.80
9.90
8.07
6.62
5.61
4.96
4.57
4.32
4.13
3.89
3.55
3.09
2.58
2.12
1.76
1.43
0.95
0.06
-1.34
-3.19
-5.22
-7.06
-8.36
-8.88
-8.52
-7.32
-5.37
-2.84
0.06
3.13
6.15
8.85
10.96
12.22
12.49
11.81
10.43
8.72
7.04
5.67
4.69
4.09
3.79
3.72
3.85
4.13
4.46
4.76
4.99
5.13
5.25
5.34
5.28
4.89
3.95
2.44
0.56
-1.22
-2.31
-2.17
-0.46
2.87
7.60
13.32
19.55
25.81
31.71
36.98
41.55
45.50
49.08
52.59
56.24
60.02
63.68
66.81
68.96
69.76
68.98
66.52
62.39
56.79
50.01
42.48
34.61
26.73
18.98
11.34
3.69
-4.10
-12.08
-20.30
-28.80
-37.58
-46.56
-55.44
-63.62
-70.30
-74.69
-76.20
-74.70
-70.52
-64.41
-57.27
-49.89
-42.63
-35.38
-27.75
-19.40
-10.43
-1.52
6.26
11.91
14.93
15.52
14.41
12.44
10.20
7.81
5.11
1.94
-1.59
-5.11
-8.18
-10.50
-12.11
-13.26
-14.29
-15.44
-16.74
-18.07
-19.26
-20.19
-20.82
-21.15
-21.16
-20.71
-19.61
-17.62
-14.60
-10.61
-5.89
-0.86
4.02
8.35
11.84
14.36
15.94
16.67
16.72
16.24
15.42
14.40
13.36
12.43
11.71
11.23
10.91
10.64
10.28
9.74
8.99
8.05
6.94
5.70
4.38
3.03
1.76
0.63
-0.35
-1.31
-2.39
-3.78
-5.52
-7.52
-9.53
-11.18
-12.12
-12.02
-10.74
-8.32
-4.98
-1.09
2.92
6.66
9.87
12.37
14.11
15.09
15.37
15.06
14.27
13.20
11.99
10.78
9.67
8.68
7.81
7.03
6.30
5.60
4.93
4.26
3.59
2.90
2.19
1.44
0.70
-0.00
-0.66
-1.30
-1.98
-2.81
-3.88
-5.25
-6.88
-8.62
-10.24
-11.48
-12.08
-11.87
-10.77
-8.85
-6.30
-3.35
-0.25
2.75
5.46
7.69
9.29
10.17
10.31
9.84
8.95
7.93
7.04
6.43
6.12
5.94
5.68
5.20
4.45
3.56
2.75
2.21
2.01
2.05
2.12
2.00
1.54
0.77
-0.22
-1.26
-2.25
-3.17
-4.05
-4.97
-6.00
-7.16
-8.37
-9.49
-10.28
-10.50
-9.97
-8.65
-6.64
-4.18
-1.56
0.97
3.20
5.00
6.27
6.91
6.94
6.44
5.61
4.68
3.83
3.10
2.48
1.91
1.37
0.97
0.77
0.81
1.00
1.14
1.04
0.61
-0.06
-0.82
-1.49
-1.99
-2.36
-2.71
-3.15
-3.73
-4.45
-5.27
-6.16
-7.07
-7.92
-8.57
-8.81
-8.48
-7.47
-5.82
-3.71
-1.37
0.89
2.82
4.26
5.13
5.47
5.37
4.98
4.43
3.81
3.15
2.49
1.86
1.31
0.89
0.61
0.45
0.40
0.45
0.59
0.80
0.98
1.00
0.72
0.08
-0.84
-1.89
-2.84
-3.57
-4.03
-4.28
-4.45
-4.65
-4.92
-5.22
-5.41
-5.31
-4.71
-3.49
-1.69
0.50
2.72
4.66
6.09
6.98
7.45
7.64
7.66
7.50
7.10
6.39
5.39
4.23
3.02
1.87
0.76
-0.35
-1.45
-2.50
-3.35
-3.87
-4.03
-3.89
-3.62
-3.38
-3.30
-3.44
-3.77
-4.23
-4.72
-5.19
-5.63
-6.10
-6.64
-7.32
-8.13
-8.96
-9.68
-10.11
-10.14
-9.72
-8.89
-7.72
-6.33
-4.79
-3.19
-1.60
-0.13
1.05
1.79
1.96
1.58
0.83
-0.02
-0.67
-0.98
-0.96
-0.76
-0.56
-0.44
-0.40
-0.36
-0.26
-0.15
-0.12
-0.24
-0.52
-0.89
-1.24
-1.49
-1.66
-1.75
-1.85
-2.00
-2.29
-2.79
-3.61
-4.75
-6.10
-7.42
-8.37
-8.68
-8.24
-7.14
-5.64
-4.01
-2.42
-0.95
0.42
1.68
2.73
3.36
3.42
2.88
1.91
0.81
-0.05
-0.46
-0.36
0.10
0.71
1.27
1.69
1.96
2.17
2.37
2.59
2.82
3.02
3.15
3.19
3.13
2.98
2.74
2.43
2.13
1.92
1.83
1.77
1.58
1.00
-0.13
-1.77
-3.64
-5.36
-6.55
-7.02
-6.88
-6.38
-5.88
-5.59
-5.60
-5.86
-6.30
-6.88
-7.63
-8.56
-9.70
-10.95
-12.19
-13.28
-14.12
-14.70
-15.02
-15.15
-15.10
-14.90
-14.54
-14.00
-13.30
-12.48
-11.59
-10.69
-9.87
-9.20
-8.70
-8.42
-8.32
-8.35
-8.47
-8.63
-8.78
-8.87
-8.79
-8.40
-7.52
-5.98
-3.78
-1.08
1.77
4.34
6.26
7.36
7.70
7.54
7.14
6.72
6.34
5.91
5.39
4.77
4.16
3.72
3.54
3.57
3.65
3.57
3.20
2.55
1.78
1.04
0.40
-0.20
-0.90
-1.79
-2.84
-3.89
-4.82
-5.66
-6.58
-7.83
-9.57
-11.65
-13.66
-15.06
-15.44
-14.63
-12.84
-10.40
-7.69
-4.94
-2.29
0.21
2.42
4.16
5.30
5.80
5.78
5.49
5.14
4.85
4.66
4.49
4.29
4.05
3.76
3.41
2.98
2.48
2.00
1.71
1.74
2.06
2.46
2.62
2.22
1.16
-0.39
-2.11
-3.63
-4.79
-5.67
-6.56
-7.77
-9.44
-11.46
-13.46
-14.96
-15.53
-14.92
-13.19
-10.60
-7.57
-4.44
-1.41
1.43
4.06
6.40
8.26
9.39
9.66
9.13
8.11
7.02
6.23
5.91
6.03
6.40
6.81
7.08
7.15
7.03
6.77
6.45
6.11
5.73
5.28
4.70
3.96
3.04
1.98
0.82
-0.36
-1.55
-2.72
-3.87
-5.03
-6.25
-7.62
-9.24
-11.14
-13.20
-15.12
-16.43
-16.66
-15.48
-12.90
-9.25
-5.12
-1.12
2.31
4.99
7.00
8.52
9.63
10.34
10.53
10.19
9.43
8.51
7.77
7.45
7.62
8.15
8.78
9.29
9.55
9.56
9.39
9.13
8.83
8.49
8.05
7.44
6.61
5.51
4.21
2.80
1.40
0.13
-0.94
-1.83
-2.68
-3.73
-5.17
-7.13
-9.50
-11.97
-14.09
-15.36
-15.39
-14.04
-11.45
-7.98
-4.08
-0.20
3.32
6.27
8.60
10.34
11.58
12.37
12.74
12.69
12.24
11.48
10.61
9.80
9.19
8.83
8.69
8.67
8.70
8.75
8.81
8.85
8.77
8.51
8.02
7.32
6.50
5.61
4.68
3.66
2.50
1.19
-0.19
-1.54
-2.81
-4.00
-5.20
-6.56
-8.23
-10.23
-12.49
-14.72
-16.53
-17.47
-17.19
-15.52
-12.60
-8.80
-4.62
-0.54
3.09
6.11
8.52
10.41
11.84
12.83
13.35
13.41
13.03
12.36
11.58
10.90
10.47
10.36
10.51
10.77
11.00
11.10
11.01
10.78
10.43
9.99
9.43
8.69
7.67
6.32
4.67
2.85
1.06
-0.53
-1.81
-2.84
-3.79
-4.87
-6.24
-7.93
-9.84
-11.79
-13.60
-15.08
-16.03
-16.24
-15.52
-13.75
-10.97
-7.41
-3.41
0.59
4.26
7.36
9.78
11.51
12.57
13.02
12.97
12.53
11.89
11.25
10.80
10.68
10.89
11.32
11.80
12.13
12.19
11.96
11.51
10.98
10.47
10.02
9.60
9.12
8.51
7.72
6.75
5.63
4.40
3.11
1.79
0.46
-0.87
-2.19
-3.49
-4.78
-6.12
-7.59
-9.26
-11.18
-13.28
-15.39
-17.23
-18.47
-18.81
-17.99
-15.92
-12.72
-8.70
-4.34
-0.20
3.25
5.71
7.16
7.84
8.07
8.17
8.29
8.44
8.52
8.47
8.31
8.15
8.08
8.14
8.27
8.41
8.51
8.60
8.73
8.89
8.99
8.93
8.62
8.05
7.30
6.47
5.56
4.58
3.46
2.21
0.90
-0.38
-1.62
-2.84
-4.10
-5.43
-6.83
-8.31
-9.90
-11.64
-13.51
-15.32
-16.69
-17.19
-16.45
-14.37
-11.17
-7.35
-3.47
0.01
2.85
5.03
6.63
7.73
8.35
8.51
8.26
7.75
7.20
6.85
6.82
7.09
7.52
7.96
8.31
8.55
8.72
8.81
8.79
8.60
8.18
7.52
6.65
5.61
4.44
3.18
1.89
0.64
-0.47
-1.39
-2.11
-2.67
-3.17
-3.74
-4.47
-5.46
-6.77
-8.41
-10.33
-12.34
-14.17
-15.48
-15.96
-15.40
-13.77
-11.16
-7.86
-4.21
-0.55
2.76
5.48
7.43
8.59
9.04
8.94
8.54
8.05
7.62
7.31
7.10
6.91
6.69
6.44
6.25
6.21
6.35
6.64
6.98
7.21
7.24
7.06
6.72
6.28
5.80
5.24
4.57
3.72
2.69
1.52
0.29
-0.90
-2.03
-3.13
-4.31
-5.67
-7.24
-8.97
-10.75
-12.48
-14.08
-15.48
-16.55
-17.12
-16.97
-15.89
-13.83
-10.92
-7.47
-3.91
-0.60
2.22
4.44
6.08
7.20
7.86
8.09
7.97
7.61
7.19
6.89
6.82
6.98
7.25
7.44
7.44
7.26
7.00
6.81
6.79
6.89
6.98
6.90
6.51
5.81
4.89
3.87
2.85
1.88
0.93
-0.07
-1.13
-2.27
-3.41
-4.51
-5.53
-6.51
-7.56
-8.81
-10.37
-12.22
-14.15
-15.83
-16.88
-16.99
-16.05
-14.16
-11.59
-8.63
-5.55
-2.56
0.18
2.52
4.38
5.70
6.52
6.99
7.26
7.48
7.66
7.80
7.82
7.71
7.49
7.23
7.03
6.96
7.05
7.25
7.47
7.59
7.53
7.26
6.81
6.28
5.73
5.16
4.53
3.75
2.77
1.63
0.43
-0.74
-1.78
-2.71
-3.59
-4.48
-5.47
-6.62
-7.95
-9.53
-11.35
-13.36
-15.39
-17.09
-18.08
-17.99
-16.69
-14.26
-11.03
-7.42
-3.82
-0.52
2.34
4.67
6.42
7.51
7.92
7.74
7.15
6.41
5.76
5.38
5.33
5.54
5.91
6.33
6.68
6.92
7.04
7.08
7.07
7.02
6.91
6.70
6.31
5.70
4.87
3.84
2.67
1.44
0.22
-0.90
-1.89
-2.71
-3.40
-4.04
-4.71
-5.50
-6.50
-7.78
-9.37
-11.24
-13.23
-15.06
-16.38
-16.83
-16.15
-14.29
-11.42
-7.90
-4.24
-0.87
1.87
3.88
5.22
6.06
6.63
7.04
7.33
7.44
7.35
7.08
6.70
6.32
6.04
5.90
5.92
6.03
6.19
6.31
6.30
6.08
5.64
5.00
4.27
3.54
2.88
2.29
1.74
1.17
0.57
-0.09
-0.84
-1.73
-2.79
-3.97
-5.14
-6.18
-7.08
-8.00
-9.18
-10.83
-12.93
-15.17
-17.03
-18.01
-17.81
-16.42
-14.05
-11.03
-7.69
-4.31
-1.14
1.59
3.73
5.19
6.04
6.44
6.59
6.70
6.86
7.10
7.39
7.67
7.88
8.01
8.07
8.10
8.13
8.12
8.03
7.80
7.41
6.90
6.33
5.76
5.18
4.60
3.99
3.38
2.74
1.98
0.99
-0.39
-2.15
-4.13
-6.05
-7.61
-8.68
-9.38
-10.01
-10.90
-12.24
-13.98
-15.86
-17.52
-18.63
-18.92
-18.24
-16.52
-13.79
-10.23
-6.16
-2.03
1.69
4.61
6.56
7.58
7.91
7.84
7.63
7.40
7.24
7.16
7.22
7.49
8.01
8.74
9.52
10.16
10.48
10.39
9.93
9.26
8.53
7.85
7.24
6.64
5.96
5.18
4.30
3.44
2.69
2.09
1.58
1.00
0.15
-1.05
-2.58
-4.25
-5.84
-7.18
-8.25
-9.16
-10.08
-11.22
-12.67
-14.41
-16.30
-18.07
-19.39
-19.93
-19.43
-17.82
-15.20
-11.85
-8.13
-4.42
-1.02
1.88
4.16
5.82
6.88
7.42
7.56
7.43
7.22
7.07
7.06
7.23
7.54
7.91
8.29
8.64
8.92
9.11
9.17
9.05
8.76
8.35
7.87
7.38
6.88
6.34
5.71
4.93
3.95
2.73
1.29
-0.33
-2.01
-3.61
-4.99
-6.12
-7.08
-8.06
-9.24
-10.77
-12.66
-14.75
-16.75
-18.30
-19.02
-18.62
-16.99
-14.22
-10.62
-6.63
-2.70
0.78
3.60
5.71
7.20
8.17
8.71
8.89
8.77
8.43
8.02
7.72
7.66
7.84
8.16
8.46
8.62
8.63
8.57
8.53
8.53
8.50
8.32
7.92
7.31
6.63
5.99
5.44
4.92
4.32
3.51
2.44
1.17
-0.20
-1.55
-2.79
-3.94
-5.05
-6.18
-7.40
-8.72
-10.16
-11.69
-13.28
-14.82
-16.10
-16.85
-16.76
-15.64
-13.47
-10.47
-7.04
-3.59
-0.43
2.28
4.49
6.22
7.42
8.06
8.11
7.68
6.99
6.35
6.00
6.05
6.46
7.07
7.70
8.26
8.72
9.09
9.36
9.42
9.16
8.51
7.52
6.38
5.32
4.46
3.78
3.13
2.33
1.31
0.14
-1.03
-2.06
-2.94
-3.79
-4.73
-5.86
-7.14
-8.50
-9.88
-11.30
-12.84
-14.51
-16.14
-17.40
-17.85
-17.16
-15.21
-12.19
-8.51
-4.66
-1.11
1.89
4.22
5.95
7.16
7.98
8.49
8.75
8.81
8.72
8.55
8.39
8.33
8.38
8.52
8.68
8.80
8.88
8.95
9.04
9.18
9.29
9.27
8.98
8.34
7.34
6.05
4.57
3.03
1.52
0.09
-1.23
-2.44
-3.54
-4.54
-5.49
-6.49
-7.63
-9.02
-10.67
-12.51
-14.41
-16.19
-17.64
-18.55
-18.67
-17.81
-15.84
-12.83
-9.02
-4.88
-0.90
2.50
5.12
6.93
8.06
8.65
8.82
8.69
8.35
7.93
7.55
7.27
7.15
7.18
7.38
7.77
8.33
9.00
9.64
10.10
10.23
9.99
9.42
8.59
7.63
6.60
5.54
4.49
3.46
2.42
1.31
0.09
-1.29
-2.79
-4.30
-5.69
-6.92
-8.03
-9.22
-10.70
-12.63
-14.95
-17.38
-19.45
-20.65
-20.60
-19.16
-16.49
-12.98
-9.10
-5.30
-1.87
1.05
3.43
5.27
6.59
7.37
7.61
7.34
6.64
5.70
4.77
4.07
3.74
3.76
4.00
4.21
4.21
3.92
3.41
2.81
2.24
1.74
1.25
0.65
-0.18
-1.36
-2.92
-4.90
-7.26
-9.90
-12.65
-15.29
-17.66
-19.65
-21.30
-22.75
-24.19
-25.78
-27.56
-29.39
-30.92
-31.65
-31.04
-28.71
-24.51
-18.63
-11.54
-3.87
3.78
10.88
17.07
22.12
25.90
28.39
29.66
29.88
29.28
28.15
26.75
25.33
24.04
22.95
22.09
21.42
20.88
20.39
19.90
19.29
18.48
17.41
16.12
14.73
13.38
12.14
10.98
9.72
8.19
6.31
4.17
1.99
0.01
-1.67
-3.09
-4.38
-5.71
-7.17
-8.81
-10.64
-12.67
-14.78
-16.74
-18.17
-18.63
-17.81
-15.65
-12.42
-8.62
-4.80
-1.43
1.25
3.24
4.68
5.72
6.49
7.00
7.24
7.20
6.99
6.80
6.79
7.07
7.59
8.18
8.64
8.88
8.89
8.79
8.65
8.51
8.33
8.04
7.60
7.01
6.27
5.39
4.37
3.22
1.98
0.66
-0.71
-2.14
-3.56
-4.88
-6.00
-6.87
-7.57
-8.35
-9.47
-11.15
-13.36
-15.77
-17.89
-19.15
-19.15
-17.74
-15.06
-11.50
-7.57
-3.77
-0.48
2.12
4.01
5.32
6.21
6.81
7.22
7.51
7.77
8.07
8.45
8.86
9.20
9.36
9.29
9.08
8.87
8.81
8.98
9.32
9.68
9.87
9.77
9.33
8.61
7.71
6.74
5.77
4.82
3.89
2.96
1.95
0.84
-0.37
-1.62
-2.81
-3.87
-4.80
-5.72
-6.75
-8.02
-9.59
-11.44
-13.46
-15.52
-17.42
-18.90
-19.68
-19.48
-18.16
-15.76
-12.56
-8.96
-5.40
-2.23
0.41
2.50
4.12
5.37
6.34
7.09
7.68
8.12
8.43
8.60
8.63
8.53
8.35
8.18
8.08
8.13
8.37
8.77
9.23
9.60
9.74
9.52
8.94
8.08
7.09
6.10
5.17
4.30
3.44
2.56
1.68
0.80
-0.13
-1.20
-2.51
-4.05
-5.66
-7.12
-8.23
-8.97
-9.54
-10.25
-11.37
-12.94
-14.71
-16.25
-17.12
-17.00
-15.80
-13.67
-10.88
-7.73
-4.50
-1.39
1.41
3.74
5.50
6.63
7.16
7.24
7.03
6.71
6.42
6.20
6.07
6.02
6.04
6.14
6.36
6.71
7.13
7.55
7.85
7.92
7.72
7.28
6.67
6.02
5.41
4.84
4.29
3.65
2.87
1.92
0.85
-0.22
-1.19
-1.96
-2.56
-3.08
-3.68
-4.53
-5.78
-7.47
-9.56
-11.86
-14.04
-15.73
-16.52
-16.12
-14.48
-11.79
-8.50
-5.11
-2.07
0.35
2.12
3.41
4.41
5.29
6.09
6.75
7.15
7.23
7.03
6.67
6.31
6.06
5.94
5.93
5.98
6.08
6.27
6.57
6.92
7.19
7.21
6.83
6.05
4.94
3.72
2.58
1.63
0.86
0.16
-0.63
-1.64
-2.89
-4.25
-5.52
-6.53
-7.21
-7.67
-8.18
-9.06
-10.50
-12.47
-14.65
-16.56
-17.70
-17.72
-16.53
-14.27
-11.30
-7.97
-4.66
-1.64
0.89
2.80
4.07
4.72
4.87
4.68
4.33
3.99
3.78
3.83
4.18
4.82
5.64
6.46
7.11
7.49
7.67
7.77
7.90
8.05
8.11
7.92
7.43
6.74
6.00
5.34
4.78
4.17
3.31
2.08
0.53
-1.19
-2.87
-4.34
-5.59
-6.63
-7.52
-8.31
-9.00
-9.67
-10.47
-11.58
-13.11
-14.97
-16.81
-18.12
-18.37
-17.25
-14.81
-11.47
-7.81
-4.35
-1.38
1.09
3.19
5.05
6.68
7.97
8.78
9.09
9.03
8.82
8.66
8.66
8.79
8.98
9.17
9.31
9.42
9.50
9.56
9.57
9.54
9.50
9.47
9.38
9.16
8.64
7.76
6.54
5.11
3.69
2.46
1.51
0.82
0.26
-0.29
-0.92
-1.63
-2.42
-3.28
-4.30
-5.53
-7.01
-8.65
-10.31
-11.85
-13.25
-14.59
-15.97
-17.35
-18.50
-19.01
-18.51
-16.86
-14.23
-11.02
-7.68
-4.52
-1.69
0.79
2.92
4.59
5.72
6.30
6.45
6.42
6.44
6.65
7.08
7.65
8.23
8.77
9.20
9.48
9.60
9.58
9.44
9.22
8.97
8.64
8.21
7.60
6.82
5.93
5.05
4.30
3.72
3.23
2.69
1.99
1.06
-0.05
-1.22
-2.29
-3.16
-3.83
-4.36
-4.91
-5.62
-6.59
-7.89
-9.52
-11.39
-13.37
-15.21
-16.63
-17.31
-17.03
-15.71
-13.48
-10.61
-7.47
-4.42
-1.69
0.60
2.43
3.86
4.93
5.67
6.12
6.36
6.48
6.57
6.72
6.94
7.20
7.44
7.63
7.77
7.89
8.06
8.28
8.48
8.56
8.38
7.87
7.03
5.98
4.88
3.85
2.97
2.23
1.57
0.95
0.33
-0.34
-1.10
-2.00
-3.06
-4.22
-5.35
-6.37
-7.24
-8.07
-9.03
-10.27
-11.79
-13.40
-14.78
-15.52
-15.34
-14.15
-12.09
-9.44
-6.59
-3.86
-1.46
0.53
2.15
3.46
4.53
5.40
6.07
6.55
6.83
6.96
6.97
6.90
6.80
6.72
6.70
6.78
6.97
7.24
7.53
7.78
7.94
7.98
7.85
7.49
6.88
6.00
4.94
3.85
2.91
2.22
1.78
1.48
1.13
0.57
-0.26
-1.30
-2.45
-3.59
-4.65
-5.65
-6.64
-7.72
-8.96
-10.44
-12.17
-14.06
-15.87
-17.24
-17.77
-17.19
-15.45
-12.73
-9.40
-5.89
-2.60
0.23
2.45
4.05
5.07
5.63
5.85
5.86
5.72
5.47
5.12
4.73
4.40
4.24
4.34
4.72
5.31
6.00
6.63
7.09
7.29
7.21
6.91
6.48
6.05
5.63
5.20
4.63
3.85
2.84
1.70
0.55
-0.55
-1.62
-2.78
-4.08
-5.45
-6.73
-7.75
-8.48
-9.13
-10.04
-11.45
-13.33
-15.34
-16.94
-17.59
-17.02
-15.22
-12.47
-9.14
-5.58
-2.14
0.89
3.26
4.84
5.64
5.85
5.74
5.57
5.49
5.51
5.58
5.63
5.63
5.61
5.65
5.79
6.02
6.33
6.66
6.94
7.10
7.10
6.88
6.45
5.79
4.93
3.96
2.95
2.02
1.19
0.45
-0.31
-1.19
-2.21
-3.34
-4.46
-5.48
-6.44
-7.46
-8.71
-10.31
-12.23
-14.26
-16.11
-17.45
-18.02
-17.66
-16.33
-14.09
-11.13
-7.74
-4.25
-1.03
1.68
3.71
5.07
5.83
6.16
6.24
6.25
6.32
6.52
6.82
7.13
7.35
7.41
7.35
7.23
7.16
7.16
7.20
7.22
7.16
6.98
6.73
6.43
6.11
5.74
5.27
4.64
3.80
2.73
1.47
0.08
-1.34
-2.67
-3.85
-4.86
-5.80
-6.81
-8.04
-9.58
-11.37
-13.26
-14.99
-16.27
-16.85
-16.53
-15.20
-12.91
-9.90
-6.53
-3.23
-0.35
1.92
3.62
4.91
5.93
6.74
7.28
7.46
7.28
6.86
6.40
6.12
6.14
6.47
6.98
7.54
8.00
8.28
8.34
8.23
8.00
7.69
7.30
6.79
6.11
5.25
4.25
3.23
2.27
1.41
0.60
-0.25
-1.24
-2.38
-3.64
-4.90
-6.09
-7.17
-8.19
-9.28
-10.55
-12.04
-13.64
-15.05
-15.87
-15.68
-14.28
-11.74
-8.42
-4.85
-1.52
1.24
3.33
4.83
5.85
6.47
6.72
6.64
6.29
5.82
5.41
5.24
5.38
5.78
6.31
6.75
6.96
6.85
6.47
5.97
5.51
5.22
5.09
5.05
4.93
4.62
4.01
3.07
1.81
0.30
-1.32
-2.84
-4.07
-4.90
-5.38
-5.69
-6.12
-6.88
-8.14
-9.85
-11.78
-13.56
-14.74
-14.96
-14.02
-12.00
-9.20
-6.06
-3.03
-0.35
1.87
3.66
5.06
6.07
6.68
6.90
6.81
6.57
6.35
6.27
6.35
6.59
6.88
7.13
7.26
7.22
7.00
6.63
6.17
5.70
5.26
4.88
4.54
4.19
3.71
3.03
2.10
0.93
-0.42
-1.82
-3.18
-4.46
-5.62
-6.70
-7.73
-8.78
-9.98
-11.48
-13.34
-15.41
-17.32
-18.51
-18.50
-17.03
-14.24
-10.59
-6.65
-2.92
0.30
2.89
4.91
6.41
7.46
8.14
8.53
8.72
8.78
8.71
8.53
8.27
7.98
7.79
7.79
7.98
8.30
8.61
8.80
8.78
8.57
8.19
7.68
7.03
6.22
5.22
4.02
2.70
1.34
0.06
-1.09
-2.07
-2.92
-3.69
-4.45
-5.27
-6.29
-7.62
-9.34
-11.42
-13.69
-15.81
-17.40
-18.09
-17.69
-16.18
-13.74
-10.70
-7.40
-4.17
-1.24
1.30
3.45
5.30
6.92
8.34
9.53
10.39
10.87
10.97
10.80
10.52
10.30
10.25
10.42
10.79
11.25
11.72
12.09
12.30
12.30
12.05
11.51
10.68
9.61
8.39
7.20
6.15
5.30
4.57
3.80
2.82
1.55
0.04
-1.55
-3.04
-4.29
-5.25
-5.95
-6.51
-7.10
-7.94
-9.21
-10.99
-13.22
-15.64
-17.86
-19.44
-20.01
-19.38
-17.57
-14.81
-11.42
-7.77
-4.16
-0.80
2.16
4.67
6.65
8.06
8.91
9.28
9.33
9.28
9.30
9.52
9.96
10.56
11.21
11.80
12.23
12.41
12.30
11.98
11.55
11.15
10.87
10.69
10.48
10.06
9.34
8.32
7.14
5.98
4.97
4.10
3.27
2.38
1.35
0.25
-0.82
-1.72
-2.48
-3.18
-4.05
-5.24
-6.77
-8.55
-10.39
-12.12
-13.68
-15.08
-16.28
-17.13
-17.37
-16.69
-14.92
-12.15
-8.72
-5.14
-1.86
0.82
2.90
4.51
5.85
7.01
7.96
8.61
8.89
8.82
8.55
8.26
8.10
8.10
8.22
8.38
8.53
8.72
9.04
9.53
10.12
10.60
10.74
10.35
9.43
8.11
6.70
5.46
4.59
4.10
3.83
3.57
3.08
2.23
1.03
-0.38
-1.82
-3.11
-4.18
-5.05
-5.81
-6.54
-7.32
-8.17
-9.16
-10.38
-11.86
-13.47
-14.92
-15.72
-15.42
-13.80
-10.96
-7.35
-3.56
-0.12
2.66
4.69
6.07
6.92
7.33
7.38
7.14
6.76
6.42
6.30
6.50
7.02
7.72
8.37
8.82
9.01
9.01
8.98
9.04
9.24
9.49
9.61
9.41
8.78
7.76
6.44
5.02
3.65
2.45
1.47
0.71
0.11
-0.42
-0.97
-1.63
-2.44
-3.41
-4.48
-5.57
-6.59
-7.55
-8.48
-9.50
-10.71
-12.10
-13.57
-14.86
-15.66
-15.73
-14.97
-13.43
-11.32
-8.87
-6.30
-3.74
-1.26
1.05
3.08
4.70
5.79
6.29
6.28
5.96
5.58
5.37
5.46
5.86
6.45
7.08
7.62
8.03
8.32
8.50
8.54
8.42
8.11
7.66
7.14
6.60
6.05
5.46
4.80
4.06
3.30
2.56
1.86
1.14
0.37
-0.52
-1.47
-2.46
-3.43
-4.37
-5.30
-6.16
-6.89
-7.42
-7.77
-8.15
-8.86
-10.14
-12.03
-14.25
-16.27
-17.49
-17.52
-16.27
-14.00
-11.15
-8.17
-5.34
-2.76
-0.45
1.62
3.40
4.79
5.72
6.19
6.32
6.28
6.24
6.27
6.37
6.51
6.67
6.82
6.99
7.16
7.31
7.41
7.45
7.45
7.40
7.28
7.04
6.60
5.93
5.09
4.18
3.31
2.57
1.95
1.38
0.77
0.10
-0.64
-1.42
-2.19
-2.97
-3.77
-4.61
-5.50
-6.42
-7.37
-8.33
-9.34
-10.44
-11.70
-13.12
-14.60
-15.90
-16.69
-16.62
-15.47
-13.23
-10.15
-6.68
-3.30
-0.41
1.80
3.30
4.21
4.69
4.93
5.05
5.15
5.27
5.41
5.56
5.69
5.80
5.90
5.99
6.09
6.21
6.33
6.48
6.62
6.69
6.62
6.35
5.85
5.13
4.25
3.31
2.38
1.55
0.88
0.36
-0.08
-0.55
-1.19
-2.07
-3.16
-4.36
-5.52
-6.56
-7.52
-8.51
-9.66
-10.99
-12.39
-13.64
-14.48
-14.67
-14.10
-12.76
-10.77
-8.33
-5.69
-3.10
-0.76
1.18
2.66
3.68
4.29
4.57
4.60
4.48
4.32
4.22
4.28
4.54
4.99
5.51
5.95
6.20
6.22
6.12
6.06
6.15
6.40
6.67
6.76
6.51
5.87
4.97
3.98
3.04
2.20
1.42
0.60
-0.29
-1.22
-2.12
-2.90
-3.58
-4.22
-4.90
-5.70
-6.66
-7.78
-9.06
-10.51
-12.06
-13.59
-14.86
-15.56
-15.38
-14.16
-11.94
-8.99
-5.74
-2.65
-0.04
1.91
3.21
3.98
4.36
4.46
4.33
4.05
3.72
3.48
3.42
3.55
3.80
4.05
4.20
4.24
4.23
4.23
4.32
4.49
4.67
4.82
4.85
4.72
4.39
3.85
3.14
2.29
1.40
0.55
-0.23
-0.97
-1.73
-2.58
-3.52
-4.52
-5.53
-6.57
-7.74
-9.14
-10.80
-12.62
-14.33
-15.58
-16.04
-15.55
-14.14
-11.98
-9.36
-6.53
-3.71
-1.05
1.35
3.39
5.02
6.18
6.86
7.08
6.86
6.33
5.62
4.95
4.53
4.48
4.84
5.52
6.35
7.12
7.68
7.92
7.80
7.33
6.56
5.59
4.59
3.73
3.14
2.79
2.54
2.17
1.51
0.49
-0.82
-2.27
-3.65
-4.85
-5.84
-6.68
-7.48
-8.37
-9.45
-10.81
-12.49
-14.40
-16.35
-17.98
-18.88
-18.67
-17.14
-14.36
-10.67
-6.55
-2.51
1.04
3.88
5.93
7.26
7.97
8.17
8.02
7.67
7.26
6.90
6.69
6.66
6.81
7.11
7.49
7.86
8.14
8.29
8.34
8.31
8.21
8.00
7.61
6.97
6.12
5.16
4.27
3.53
2.95
2.37
1.60
0.51
-0.88
-2.43
-3.91
-5.20
-6.28
-7.28
-8.36
-9.67
-11.26
-13.07
-14.92
-16.58
-17.74
-18.15
-17.64
-16.15
-13.83
-10.92
-7.69
-4.41
-1.27
1.59
4.03
5.94
7.27
8.06
8.44
8.58
8.65
8.72
8.81
8.91
9.06
9.35
9.81
10.42
11.06
11.56
11.78
11.71
11.40
10.96
10.51
10.05
9.55
8.96
8.23
7.37
6.37
5.25
4.04
2.81
1.65
0.62
-0.23
-0.98
-1.73
-2.57
-3.54
-4.63
-5.78
-6.97
-8.17
-9.46
-10.90
-12.57
-14.48
-16.49
-18.36
-19.67
-19.98
-18.98
-16.59
-13.07
-8.90
-4.65
-0.83
2.27
4.57
6.12
7.05
7.50
7.59
7.46
7.24
7.09
7.14
7.47
8.05
8.79
9.56
10.22
10.70
11.04
11.32
11.58
11.80
11.87
11.66
11.10
10.25
9.21
8.14
7.12
6.18
5.30
4.44
3.57
2.67
1.69
0.62
-0.53
-1.72
-2.86
-3.90
-4.85
-5.77
-6.78
-7.98
-9.42
-11.13
-13.08
-15.16
-17.16
-18.72
-19.40
-18.86
-16.96
-13.90
-10.18
-6.34
-2.86
0.04
2.35
4.18
5.63
6.73
7.46
7.82
7.86
7.73
7.56
7.50
7.61
7.92
8.40
8.98
9.60
10.19
10.68
11.03
11.23
11.26
11.11
10.76
10.20
9.42
8.42
7.27
6.03
4.81
3.71
2.75
1.93
1.14
0.32
-0.59
-1.58
-2.58
-3.54
-4.45
-5.40
-6.51
-7.91
-9.63
-11.61
-13.63
-15.47
-16.84
-17.53
-17.41
-16.44
-14.64
-12.11
-9.00
-5.52
-1.99
1.27
3.97
5.94
7.18
7.83
8.08
8.09
7.95
7.71
7.41
7.15
7.03
7.16
7.50
7.95
8.40
8.75
9.02
9.26
9.53
9.78
9.91
9.80
9.35
8.56
7.52
6.39
5.32
4.42
3.71
3.12
2.50
1.74
0.75
-0.45
-1.74
-3.02
-4.21
-5.33
-6.42
-7.56
-8.81
-10.18
-11.65
-13.18
-14.65
-15.85
-16.47
-16.20
-14.87
-12.50
-9.35
-5.86
-2.44
0.56
2.99
4.81
6.05
6.76
7.03
6.99
6.77
6.51
6.30
6.18
6.15
6.24
6.45
6.80
7.28
7.81
8.30
8.67
8.87
8.86
8.63
8.16
7.41
6.41
5.23
4.02
2.91
1.97
1.19
0.46
-0.32
-1.20
-2.20
-3.25
-4.33
-5.41
-6.46
-7.49
-8.49
-9.49
-10.58
-11.87
-13.36
-14.94
-16.29
-17.02
-16.78
-15.42
-13.06
-10.02
-6.68
-3.40
-0.42
2.14
4.21
5.73
6.71
7.22
7.42
7.48
7.54
7.63
7.72
7.74
7.67
7.51
7.36
7.30
7.36
7.54
7.77
7.95
8.01
7.91
7.62
7.15
6.50
5.68
4.77
3.80
2.85
1.97
1.18
0.46
-0.27
-1.06
-1.96
-2.96
-4.02
-5.05
-6.03
-7.00
-8.08
-9.40
-11.02
-12.94
-14.97
-16.80
-18.08
-18.43
-17.65
-15.69
-12.75
-9.17
-5.41
-1.87
1.17
3.54
5.21
6.22
6.68
6.74
6.62
6.55
6.70
7.09
7.66
8.23
8.64
8.80
8.74
8.57
8.41
8.34
8.39
8.48
8.56
8.51
8.31
7.94
7.44
6.87
6.28
5.68
5.08
4.46
3.82
3.11
2.30
1.29
0.00
-1.58
-3.35
-5.09
-6.56
-7.64
-8.31
-8.76
-9.25
-10.02
-11.24
-12.92
-14.87
-16.78
-18.23
-18.82
-18.28
-16.58
-13.92
-10.70
-7.29
-4.02
-1.08
1.47
3.59
5.23
6.33
6.86
6.88
6.51
5.98
5.53
5.32
5.43
5.81
6.33
6.81
7.13
7.25
7.22
7.14
7.09
7.10
7.14
7.13
7.00
6.69
6.19
5.49
4.62
3.64
2.60
1.58
0.62
-0.26
-1.12
-2.04
-3.08
-4.29
-5.60
-6.95
-8.32
-9.72
-11.23
-12.84
-14.41
-15.59
-15.92
-15.04
-12.87
-9.66
-5.96
-2.37
0.66
3.00
4.74
6.03
6.96
7.51
7.59
7.20
6.50
5.76
5.27
5.16
5.37
5.70
5.96
6.08
6.15
6.28
6.53
6.83
7.02
6.92
6.45
5.68
4.77
3.90
3.18
2.62
2.13
1.58
0.87
-0.07
-1.20
-2.46
-3.73
-4.97
-6.14
-7.29
-8.50
-9.82
-11.23
-12.65
-13.91
-14.83
-15.18
-14.78
-13.53
-11.44
-8.67
-5.51
-2.27
0.75
3.34
5.42
6.94
7.91
8.31
8.16
7.57
6.73
5.91
5.30
5.01
4.98
5.11
5.30
5.53
5.84
6.25
6.69
7.02
7.06
6.68
5.90
4.87
3.80
2.87
2.17
1.64
1.19
0.65
-0.08
-1.03
-2.17
-3.37
-4.52
-5.54
-6.46
-7.41
-8.54
-9.97
-11.68
-13.52
-15.23
-16.51
-17.11
-16.85
-15.67
-13.61
-10.81
-7.49
-3.97
-0.62
2.27
4.49
5.98
6.80
7.09
6.99
6.66
6.21
5.80
5.60
5.74
6.28
7.09
7.95
8.58
8.78
8.53
7.98
7.36
6.82
6.42
6.12
5.85
5.57
5.33
5.13
4.92
4.56
3.91
2.92
1.69
0.40
-0.75
-1.72
-2.58
-3.50
-4.59
-5.86
-7.21
-8.52
-9.75
-11.00
-12.43
-14.15
-16.04
-17.78
-18.89
-18.93
-17.72
-15.37
-12.26
-8.84
-5.52
-2.53
0.05
2.22
4.00
5.35
6.25
6.71
6.82
6.68
6.44
6.21
6.09
6.11
6.29
6.59
6.94
7.28
7.56
7.78
7.98
8.21
8.42
8.53
8.38
7.88
7.02
5.93
4.80
3.83
3.11
2.58
2.07
1.41
0.49
-0.66
-1.93
-3.16
-4.29
-5.35
-6.40
-7.52
-8.69
-9.87
-11.02
-12.18
-13.38
-14.61
-15.65
-16.16
-15.77
-14.29
-11.83
-8.75
-5.50
-2.41
0.39
2.91
5.14
6.92
8.03
8.33
7.91
7.10
6.36
6.03
6.22
6.76
7.36
7.78
7.94
7.92
7.86
7.83
7.81
7.73
7.52
7.18
6.80
6.43
6.08
5.69
5.16
4.43
3.53
2.53
1.52
0.54
-0.44
-1.45
-2.52
-3.59
-4.60
-5.50
-6.32
-7.18
-8.21
-9.51
-11.14
-12.99
-14.88
-16.48
-17.45
-17.49
-16.46
-14.38
-11.50
-8.17
-4.76
-1.60
1.12
3.31
4.96
6.11
6.83
7.18
7.27
7.17
6.95
6.61
6.21
5.79
5.50
5.47
5.80
6.48
7.35
8.15
8.64
8.66
8.23
7.50
6.70
5.99
5.43
4.95
4.38
3.61
2.58
1.39
0.18
-0.94
-1.89
-2.74
-3.60
-4.56
-5.66
-6.89
-8.19
-9.56
-10.97
-12.39
-13.67
-14.58
-14.83
-14.18
-12.55
-10.02
-6.85
-3.41
-0.09
2.75
4.89
6.25
6.95
7.21
7.25
7.21
7.10
6.88
6.49
6.00
5.52
5.22
5.17
5.37
5.70
6.05
6.37
6.64
6.88
7.06
7.09
6.88
6.37
5.59
4.65
3.72
2.88
2.15
1.44
0.61
-0.42
-1.66
-3.05
-4.44
-5.71
-6.81
-7.80
-8.81
-9.96
-11.33
-12.86
-14.37
-15.54
-16.04
-15.56
-13.98
-11.37
-8.02
-4.34
-0.78
2.33
4.79
6.52
7.57
8.02
7.99
7.62
7.08
6.54
6.17
6.07
6.22
6.59
7.09
7.65
8.24
8.81
9.30
9.68
9.89
9.91
9.70
9.26
8.58
7.69
6.64
5.55
4.50
3.54
2.64
1.72
0.70
-0.44
-1.64
-2.83
-3.94
-5.05
-6.28
-7.78
-9.63
-11.76
-13.99
-16.04
-17.58
-18.31
-18.00
-16.56
-14.08
-10.83
-7.23
-3.72
-0.65
1.77
3.54
4.73
5.51
5.98
6.18
6.12
5.83
5.44
5.09
4.96
5.16
5.68
6.40
7.13
7.75
8.14
8.31
8.29
8.07
7.61
6.86
5.85
4.67
3.48
2.43
1.62
1.02
0.55
0.07
-0.54
-1.33
-2.33
-3.49
-4.79
-6.17
-7.58
-9.03
-10.51
-12.01
-13.45
-14.68
-15.51
-15.69
-15.02
-13.43
-11.04
-8.07
-4.93
-1.97
0.53
2.44
3.81
4.76
5.42
5.89
6.21
6.36
6.33
6.17
6.01
5.97
6.14
6.49
6.91
7.26
7.42
7.41
7.32
7.26
7.26
7.26
7.11
6.69
5.99
5.12
4.26
3.50
2.84
2.14
1.28
0.20
-1.01
-2.21
-3.26
-4.16
-5.03
-6.04
-7.33
-8.92
-10.72
-12.51
-14.03
-15.02
-15.23
-14.50
-12.78
-10.19
-6.99
-3.54
-0.24
2.64
4.90
6.51
7.53
8.05
8.17
7.99
7.58
7.04
6.46
5.96
5.63
5.49
5.52
5.64
5.79
5.91
5.99
6.02
5.96
5.79
5.46
4.97
4.34
3.59
2.71
1.68
0.50
-0.81
-2.15
-3.43
-4.57
-5.58
-6.51
-7.50
-8.68
-10.18
-12.02
-14.12
-16.22
-17.99
-19.05
-19.11
-18.09
-16.10
-13.38
-10.26
-7.08
-4.09
-1.51
0.54
2.01
2.91
3.34
3.47
3.43
3.35
3.34
3.44
3.68
4.07
4.55
5.00
5.31
5.42
5.32
5.12
4.94
4.86
4.88
4.89
4.73
4.25
3.39
2.17
0.71
-0.83
-2.32
-3.65
-4.77
-5.75
-6.70
-7.76
-9.08
-10.70
-12.55
-14.38
-15.83
-16.52
-16.20
-14.78
-12.45
-9.53
-6.37
-3.27
-0.42
2.10
4.27
6.05
7.40
8.29
8.70
8.66
8.26
7.68
7.10
6.68
6.49
6.50
6.60
6.70
6.76
6.78
6.82
6.84
6.78
6.55
6.07
5.34
4.40
3.29
2.04
0.65
-0.84
-2.36
-3.84
-5.23
-6.61
-8.08
-9.77
-11.69
-13.71
-15.51
-16.72
-16.94
-15.95
-13.74
-10.57
-6.91
-3.25
-0.01
2.64
4.70
6.31
7.58
8.53
9.10
9.31
9.22
9.04
8.98
9.15
9.54
9.99
10.33
10.46
10.38
10.18
9.97
9.79
9.65
9.49
9.21
8.75
8.04
7.07
5.85
4.42
2.84
1.22
-0.32
-1.67
-2.76
-3.65
-4.50
-5.55
-7.00
-8.89
-11.10
-13.28
-14.97
-15.76
-15.38
-13.80
-11.19
-7.93
-4.46
-1.19
1.60
3.82
5.54
6.91
8.07
9.09
9.95
10.61
11.07
11.35
11.50
11.56
11.56
11.54
11.54
11.63
11.84
12.16
12.49
12.66
12.53
11.98
11.06
9.88
8.63
7.47
6.50
5.72
5.10
4.51
3.83
2.96
1.82
0.41
-1.18
-2.82
-4.33
-5.61
-6.68
-7.71
-8.94
-10.58
-12.62
-14.75
-16.47
-17.21
-16.58
-14.53
-11.35
-7.61
-3.90
-0.69
1.81
3.62
4.93
5.94
6.81
7.59
8.25
8.76
9.12
9.35
9.52
9.67
9.75
9.72
9.55
9.28
9.08
9.10
9.41
9.92
10.40
10.59
10.33
9.62
8.64
7.62
6.73
6.05
5.50
4.98
4.33
3.47
2.34
0.96
-0.59
-2.18
-3.65
-4.85
-5.74
-6.39
-7.01
-7.84
-9.08
-10.74
-12.57
-14.16
-15.02
-14.82
-13.46
-11.13
-8.23
-5.21
-2.41
-0.02
1.96
3.59
4.95
6.02
6.74
7.08
7.08
6.89
6.72
6.68
6.81
6.98
7.05
6.94
6.66
6.36
6.17
6.17
6.35
6.59
6.79
6.89
6.81
6.50
5.91
5.06
4.01
2.92
1.93
1.13
0.54
0.03
-0.52
-1.24
-2.17
-3.29
-4.56
-5.97
-7.48
-9.05
-10.57
-11.84
-12.58
-12.57
-11.71
-10.05
-7.85
-5.43
-3.10
-1.06
0.64
2.04
3.21
4.17
4.90
5.37
5.61
5.68
5.70
5.73
5.78
5.84
5.89
5.94
6.08
6.35
6.73
7.11
7.35
7.30
6.96
6.41
5.76
5.11
4.49
3.89
3.30
2.71
2.15
1.61
1.03
0.33
-0.58
-1.66
-2.82
-3.91
-4.80
-5.48
-6.04
-6.60
-7.29
-8.17
-9.25
-10.51
-11.84
-13.09
-14.03
-14.41
-13.98
-12.67
-10.57
-7.96
-5.20
-2.61
-0.39
1.34
2.62
3.48
4.04
4.40
4.67
4.93
5.19
5.44
5.61
5.65
5.54
5.30
4.97
4.63
4.35
4.15
4.03
3.93
3.79
3.56
3.19
2.68
2.05
1.33
0.56
-0.22
-0.96
-1.64
-2.25
-2.78
-3.27
-3.73
-4.21
-4.72
-5.26
-5.88
-6.64
-7.58
-8.72
-9.99
-11.21
-12.14
-12.47
-12.00
-10.70
-8.71
-6.37
-4.02
-1.96
-0.28
1.06
2.20
3.24
4.22
5.04
5.56
5.71
5.52
5.15
4.80
4.61
4.59
4.65
4.69
4.66
4.64
4.73
5.00
5.36
5.60
5.50
4.93
3.97
2.86
1.88
1.21
0.85
0.67
0.44
0.00
-0.69
-1.60
-2.63
-3.69
-4.68
-5.59
-6.38
-7.07
-7.66
-8.20
-8.75
-9.40
-10.24
-11.29
-12.46
-13.51
-14.13
-14.00
-13.00
-11.18
-8.80
-6.18
-3.62
-1.31
0.64
2.18
3.28
3.91
4.14
4.10
3.96
3.89
3.95
4.13
4.33
4.45
4.43
4.31
4.17
4.11
4.19
4.39
4.62
4.73
4.60
4.17
3.46
2.61
1.77
1.05
0.44
-0.11
-0.71
-1.40
-2.16
-2.91
-3.59
-4.18
-4.75
-5.38
-6.12
-6.96
-7.91
-8.94
-10.09
-11.29
-12.44
-13.30
-13.61
-13.18
-11.94
-9.99
-7.57
-4.95
-2.38
-0.06
1.88
3.36
4.34
4.85
4.99
4.87
4.61
4.28
3.91
3.55
3.27
3.18
3.37
3.82
4.42
4.93
5.17
5.06
4.70
4.26
3.90
3.66
3.45
3.11
2.55
1.80
0.98
0.22
-0.45
-1.08
-1.77
-2.58
-3.47
-4.34
-5.07
-5.65
-6.21
-6.95
-8.07
-9.60
-11.34
-12.89
-13.79
-13.68
-12.46
-10.31
-7.65
-4.91
-2.41
-0.26
1.60
3.22
4.63
5.69
6.26
6.25
5.75
4.98
4.22
3.68
3.41
3.37
3.43
3.49
3.55
3.65
3.82
4.08
4.39
4.66
4.79
4.70
4.34
3.71
2.83
1.79
0.73
-0.22
-0.96
-1.47
-1.87
-2.32
-2.98
-3.94
-5.13
-6.45
-7.78
-9.07
-10.33
-11.56
-12.72
-13.66
-14.15
-13.97
-12.99
-11.26
-8.95
-6.32
-3.65
-1.19
0.91
2.55
3.73
4.51
4.92
5.02
4.83
4.40
3.78
3.13
2.60
2.36
2.49
2.98
3.69
4.45
5.05
5.40
5.47
5.30
4.97
4.57
4.14
3.67
3.15
2.52
1.78
0.92
-0.01
-0.93
-1.80
-2.65
-3.56
-4.67
-6.03
-7.61
-9.30
-10.92
-12.40
-13.71
-14.79
-15.52
-15.64
-14.83
-12.92
-10.01
-6.51
-3.00
0.01
2.28
3.85
4.93
5.74
6.40
6.89
7.17
7.24
7.18
7.11
7.15
7.32
7.60
7.92
8.16
8.27
8.19
7.89
7.40
6.77
6.08
5.46
4.98
4.65
4.38
4.02
3.39
2.38
0.96
-0.74
-2.53
-4.24
-5.76
-7.13
-8.48
-9.96
-11.67
-13.55
-15.40
-16.94
-17.87
-17.95
-17.07
-15.25
-12.59
-9.35
-5.85
-2.46
0.48
2.75
4.31
5.26
5.82
6.13
6.29
6.32
6.22
6.07
5.96
6.03
6.29
6.67
7.02
7.18
7.06
6.67
6.11
5.52
5.04
4.72
4.52
4.29
3.84
3.06
2.01
0.89
-0.08
-0.81
-1.37
-1.99
-2.89
-4.17
-5.77
-7.57
-9.46
-11.37
-13.19
-14.69
-15.49
-15.20
-13.61
-10.85
-7.36
-3.76
-0.59
1.85
3.54
4.60
5.28
5.72
6.01
6.21
6.34
6.45
6.61
6.86
7.20
7.55
7.82
7.93
7.86
7.68
7.51
7.43
7.48
7.55
7.53
7.30
6.81
6.08
5.14
3.98
2.61
1.05
-0.63
-2.30
-3.86
-5.23
-6.41
-7.50
-8.61
-9.81
-11.10
-12.32
-13.23
-13.49
-12.85
-11.22
-8.71
-5.65
-2.43
0.57
3.11
5.04
6.36
7.08
7.30
7.13
6.75
6.36
6.12
6.16
6.45
6.92
7.41
7.75
7.85
7.67
7.27
6.76
6.23
5.74
5.26
4.73
4.07
3.24
2.23
1.07
-0.19
-1.50
-2.80
-4.04
-5.19
-6.31
-7.51
-8.88
-10.42
-11.92
-13.04
-13.39
-12.68
-10.90
-8.27
-5.15
-1.90
1.19
3.92
6.19
7.88
8.92
9.30
9.08
8.46
7.68
6.97
6.50
6.33
6.44
6.74
7.09
7.38
7.55
7.63
7.64
7.64
7.57
7.38
6.95
6.23
5.27
4.16
3.03
1.95
0.90
-0.16
-1.33
-2.63
-4.07
-5.62
-7.29
-9.10
-11.02
-12.93
-14.56
-15.50
-15.37
-13.98
-11.39
-7.99
-4.35
-0.98
1.76
3.80
5.27
6.39
7.33
8.16
8.83
9.27
9.46
9.43
9.26
9.06
8.91
8.86
8.95
9.15
9.44
9.77
10.03
10.14
10.02
9.67
9.17
8.59
7.95
7.22
6.29
5.07
3.60
2.01
0.48
-0.80
-1.78
-2.53
-3.21
-3.92
-4.77
-5.79
-6.99
-8.40
-10.01
-11.69
-13.14
-13.95
-13.72
-12.28
-9.74
-6.51
-3.15
-0.15
2.24
3.96
5.15
6.01
6.67
7.21
7.65
7.94
8.07
8.03
7.83
7.55
7.28
7.16
7.30
7.72
8.36
9.09
9.72
10.06
10.01
9.52
8.66
7.58
6.47
5.50
4.77
4.27
3.87
3.41
2.73
1.75
0.48
-0.94
-2.35
-3.60
-4.59
-5.35
-6.00
-6.74
-7.71
-8.96
-10.42
-11.82
-12.85
-13.15
-12.49
-10.79
-8.24
-5.19
-2.04
0.85
3.29
5.26
6.79
7.88
8.47
8.51
8.01
7.20
6.43
6.01
6.10
6.58
7.18
7.59
7.67
7.45
7.11
6.84
6.71
6.71
6.70
6.55
6.17
5.61
4.97
4.41
3.98
3.66
3.32
2.82
2.04
1.03
-0.07
-1.10
-1.91
-2.50
-2.99
-3.53
-4.35
-5.54
-7.11
-8.92
-10.73
-12.20
-13.01
-12.94
-11.90
-10.02
-7.58
-4.94
-2.45
-0.37
1.18
2.23
2.95
3.50
4.03
4.54
4.96
5.15
5.04
4.67
4.17
3.70
3.40
3.29
3.38
3.62
3.98
4.42
4.87
5.23
5.38
5.24
4.83
4.25
3.66
3.18
2.84
2.56
2.15
1.47
0.45
-0.80
-2.09
-3.16
-3.88
-4.29
-4.61
-5.11
-6.02
-7.36
-8.93
-10.41
-11.42
-11.69
-11.05
-9.55
-7.37
-4.82
-2.26
-0.03
1.66
2.78
3.42
3.76
3.96
4.09
4.17
4.20
4.21
4.26
4.42
4.68
4.97
5.19
5.29
5.28
5.27
5.37
5.69
6.20
6.82
7.42
7.89
8.20
8.39
8.55
8.71
8.89
9.06
9.18
9.21
9.10
8.83
8.42
7.91
7.43
7.11
7.06
7.25
7.51
7.51
6.91
5.51
3.35
0.81
-1.53
-2.98
-2.94
-1.10
2.47
7.34
12.79
18.05
22.44
25.55
27.27
27.78
27.44
26.63
25.63
24.45
22.88
20.61
17.43
13.31
8.52
3.49
-1.32
-5.50
-8.78
-10.92
-11.75
-11.14
-9.16
-6.06
-2.34
1.41
4.68
7.13
8.74
9.69
10.30
10.88
11.63
12.57
13.50
14.08
13.93
12.71
10.35
7.01
3.08
-0.95
-4.67
-7.81
-10.35
-12.34
-13.84
-14.84
-15.21
-14.85
-13.73
-11.92
-9.59
-6.88
-3.86
-0.59
2.68
5.57
7.64
8.68
8.46
6.96
4.42
1.49
-1.00
-2.42
-2.39
-0.87
2.09
5.98
10.19
14.12
17.50
20.29
22.31
23.47
23.92
24.42
25.28
26.45
27.49
27.95
27.51
25.11
20.25
13.34
6.75
1.67
-1.62
-3.73
-5.10
-5.95
-8.29
-13.72
-22.52
-31.19
-38.30
-43.85
-49.29
-55.65
-63.70
-77.00
-97.88
-125.81
-153.42
-176.28
-192.23
-201.76
-205.47
-204.39
-204.15
-210.00
-224.48
-241.98
-260.88
-282.00
-308.21
-340.24
-350.35
-317.99
-239.02
-158.42
-89.00
-34.22
14.59
57.13
93.02
