1520262433.00
64.000000
-0.00
-0.00
-0.00
-0.00
-0.00
-0.00
-0.00
-0.00
-0.00
-0.00
0.00
0.01
0.01
-0.00
-0.03
-0.05
-0.05
0.00
0.13
0.36
0.66
1.01
1.37
1.72
2.06
2.40
2.79
3.24
3.80
4.42
5.06
5.66
6.20
6.68
7.15
7.68
8.31
9.14
10.09
11.04
11.88
12.56
13.14
13.76
14.65
15.96
17.91
20.32
22.90
25.38
27.58
29.57
31.68
34.32
37.81
42.54
48.15
54.10
59.83
64.97
69.58
74.14
79.34
85.71
93.76
103.00
112.62
121.73
129.77
136.75
143.30
150.75
157.77
166.64
177.95
191.79
206.97
220.57
228.25
225.36
208.53
176.87
132.76
80.05
23.07
-34.94
-92.44
-149.16
-205.23
-260.37
-313.74
-363.87
-409.83
-450.91
-486.50
-515.74
-537.23
-549.22
-549.96
-538.37
-514.21
-478.67
-433.88
-382.45
-327.02
-269.84
-212.63
-156.66
-102.95
-52.37
-5.90
35.58
71.43
101.35
125.50
144.38
158.69
169.15
176.37
180.75
182.57
182.07
179.51
175.23
169.65
163.18
156.15
148.81
141.30
133.69
126.02
118.33
110.69
103.16
95.80
88.68
81.83
75.25
68.95
62.95
57.25
51.86
46.78
42.03
37.59
33.45
29.61
26.07
22.81
19.83
17.11
14.67
12.48
10.54
8.83
7.35
6.07
4.97
4.05
3.27
2.62
2.09
1.65
1.30
1.01
0.79
0.61
0.47
0.37
0.29
0.23
0.19
0.16
0.15
0.15
0.16
0.17
0.20
0.22
0.26
0.30
0.34
0.39
0.43
0.49
0.54
0.59
0.64
0.70
0.77
0.83
0.90
0.98
1.06
1.15
1.26
1.37
1.49
1.64
1.80
1.97
2.17
2.40
2.64
2.92
3.22
3.55
3.92
4.31
4.74
5.22
5.75
6.32
6.94
7.59
8.24
8.88
9.53
10.19
10.91
11.72
12.62
13.64
14.74
15.90
17.06
18.22
19.37
20.53
21.69
22.82
23.79
24.45
24.58
23.99
22.60
20.38
17.42
13.88
9.85
5.45
0.71
-4.37
-9.72
-15.18
-20.43
-25.06
-28.70
-31.17
-32.57
-33.26
-33.72
-34.41
-35.45
-36.69
-37.66
-37.85
-37.02
-35.33
-33.37
-31.94
-31.69
-32.83
-34.99
-37.39
-39.22
-39.96
-39.71
-38.99
-38.67
-39.67
-42.71
-48.09
-55.45
-63.44
-69.77
-71.62
-66.39
-53.08
-32.99
-9.61
12.41
28.91
37.44
37.88
31.99
22.76
12.96
4.61
-1.15
-3.84
-3.34
0.20
6.40
14.51
23.89
33.56
42.38
49.47
54.32
57.12
58.73
60.53
61.65
62.01
61.14
58.34
52.97
45.00
35.29
25.31
16.53
9.69
4.80
0.96
-2.87
-7.01
-10.85
-13.21
-13.27
-11.30
-8.81
-7.75
-9.89
-15.98
-25.38
-36.39
-46.86
-54.78
-58.76
-58.12
-52.79
-43.38
-31.02
-17.07
-2.82
10.72
22.89
33.29
41.60
47.57
51.01
51.93
50.65
47.87
44.43
41.14
38.47
36.61
35.49
34.97
34.90
35.23
35.91
36.73
37.21
36.55
33.98
29.08
22.13
14.11
6.41
0.27
-3.73
-5.78
-6.64
-7.22
-8.20
-9.79
-11.89
-14.25
-16.69
-19.10
-21.44
-23.58
-25.41
-26.84
-27.94
-28.98
-30.27
-32.12
-34.73
-38.17
-42.32
-46.90
-51.39
-55.09
-57.16
-56.88
-53.83
-48.04
-40.09
-30.85
-21.29
-12.20
-4.10
2.74
8.27
12.54
15.67
17.82
19.22
20.08
20.61
20.89
20.97
20.89
20.77
20.76
21.09
21.86
23.05
24.44
25.74
26.61
26.86
26.40
25.28
23.62
21.58
19.32
17.01
14.82
12.87
11.17
9.56
7.84
5.76
3.20
0.23
-2.95
-6.15
-9.33
-12.69
-16.57
-21.17
-26.40
-31.73
-36.38
-39.60
-40.93
-40.33
-38.02
-34.38
-29.73
-24.41
-18.78
-13.23
-8.19
-3.92
-0.47
2.27
4.54
6.51
8.24
9.72
10.92
11.80
12.36
12.57
12.44
12.01
11.42
10.92
10.85
11.47
12.88
14.90
17.07
18.84
19.69
19.38
18.05
16.06
13.85
11.75
9.83
8.05
6.27
4.48
2.73
1.11
-0.38
-1.84
-3.45
-5.43
-7.95
-11.17
-15.13
-19.74
-24.68
-29.43
-33.30
-35.61
-35.86
-33.90
-29.94
-24.49
-18.20
-11.63
-5.17
0.98
6.75
12.10
16.89
20.89
23.90
25.87
26.94
27.50
27.94
28.52
29.34
30.33
31.41
32.48
33.52
34.49
35.33
36.02
36.57
37.06
37.54
38.00
38.23
37.92
36.84
34.88
32.21
29.10
25.81
22.51
19.15
15.64
11.91
7.99
4.00
0.06
-3.79
-7.55
-11.31
-15.07
-18.74
-22.11
-24.98
-27.31
-29.27
-31.26
-33.70
-36.80
-40.44
-44.08
-46.98
-48.50
-48.17
-45.87
-41.71
-35.97
-29.05
-21.48
-13.86
-6.86
-0.95
3.65
7.07
9.65
11.80
13.76
15.61
17.25
18.55
19.44
19.90
20.02
19.89
19.63
19.39
19.32
19.56
20.20
21.23
22.50
23.80
24.78
25.20
24.87
23.71
21.85
19.53
17.07
14.81
12.94
11.47
10.25
8.99
7.45
5.52
3.29
0.97
-1.26
-3.32
-5.28
-7.27
-9.42
-11.74
-14.16
-16.54
-18.80
-20.98
-23.21
-25.72
-28.71
-32.23
-36.06
-39.66
-42.26
-43.01
-41.34
-37.14
-30.94
-23.67
-16.32
-9.69
-4.12
0.40
4.10
7.17
9.66
11.53
12.79
13.53
13.91
14.15
14.38
14.70
15.12
15.66
16.27
16.92
17.49
17.89
18.08
18.07
17.95
17.76
17.48
17.07
16.42
15.47
14.23
12.74
11.09
9.40
7.70
6.01
4.30
2.56
0.80
-0.89
-2.45
-3.79
-4.92
-5.81
-6.46
-6.84
-6.98
-6.95
-6.94
-7.20
-7.90
-9.14
-10.87
-13.04
-15.61
-18.62
-22.05
-25.60
-28.66
-30.34
-29.86
-26.83
-21.60
-15.16
-8.82
-3.79
-0.68
0.42
-0.18
-2.28
-5.92
-11.44
-18.99
-28.18
-38.25
-48.56
-58.99
-69.79
-80.91
-91.25
-98.59
-100.36
-95.02
-83.16
-67.54
-52.16
-40.57
-34.72
-34.69
-39.47
-48.03
-59.81
-74.41
-90.57
-105.59
-115.55
-116.77
-107.50
-88.94
-65.10
-41.08
-21.00
-6.27
4.33
13.34
22.79
33.01
42.70
50.14
54.48
56.25
56.94
57.73
58.68
58.44
55.00
46.93
34.37
19.53
6.07
-1.98
-1.72
7.72
25.03
47.40
71.54
94.58
114.51
130.06
140.52
145.48
144.96
139.44
129.74
116.58
100.23
80.45
57.01
30.71
3.99
-19.19
-34.49
-38.85
-31.94
-16.37
3.19
21.77
35.59
42.72
42.69
35.75
22.41
3.64
-18.65
-41.36
-60.77
-73.78
-79.08
-77.58
-71.88
-64.83
-58.29
-52.53
-46.48
-38.66
-28.04
-14.64
0.60
16.23
30.75
43.07
52.57
59.07
62.64
63.57
62.22
59.07
54.71
49.68
44.48
39.40
34.59
30.09
25.99
22.50
19.92
18.57
18.49
19.52
21.22
23.03
24.43
24.98
24.42
22.72
20.04
16.81
13.59
10.84
8.71
6.94
4.97
2.27
-1.43
-5.94
-10.78
-15.46
-19.74
-23.61
-27.16
-30.42
-33.15
-34.98
-35.50
-34.46
-31.83
-27.80
-22.76
-17.24
-11.84
-7.10
-3.38
-0.78
0.89
1.96
2.79
3.59
4.45
5.30
6.02
6.50
6.71
6.69
6.57
6.53
6.74
7.39
8.59
10.26
12.19
14.02
15.34
15.79
15.24
13.75
11.58
9.06
6.50
4.09
1.83
-0.39
-2.66
-5.01
-7.38
-9.69
-11.94
-14.25
-16.81
-19.87
-23.55
-27.74
-32.15
-36.30
-39.63
-41.61
-41.77
-39.85
-35.82
-29.99
-22.96
-15.54
-8.56
-2.65
1.93
5.28
7.72
9.64
11.27
12.74
14.01
15.03
15.73
16.10
16.13
15.80
15.20
14.50
14.03
14.12
15.07
16.93
19.44
22.03
24.02
24.85
24.29
22.54
20.12
17.64
15.46
13.58
11.69
9.36
6.36
2.77
-1.03
-4.65
-7.85
-10.64
-13.21
-15.76
-18.40
-21.18
-24.16
-27.50
-31.32
-35.61
-40.01
-43.82
-46.18
-46.31
-43.85
-38.99
-32.38
-24.92
-17.47
-10.64
-4.75
0.12
3.97
6.82
8.69
9.65
9.84
9.51
8.97
8.50
8.36
8.62
9.26
10.18
11.20
12.20
13.10
13.93
14.75
15.58
16.32
16.83
16.84
16.15
14.62
12.29
9.33
5.98
2.51
-0.85
-3.87
-6.42
-8.51
-10.30
-12.16
-14.53
-17.75
-21.89
-26.59
-31.16
-34.77
-36.67
-36.38
-33.82
-29.12
-22.69
-15.09
-7.07
0.53
6.92
11.57
14.42
15.84
16.42
16.75
17.14
17.62
17.99
18.05
17.77
17.35
17.15
17.49
18.53
20.14
21.98
23.63
24.76
25.21
25.02
24.33
23.19
21.56
19.34
16.54
13.39
10.27
7.57
5.43
3.56
1.44
-1.50
-5.61
-10.83
-16.81
-23.14
-29.44
-35.44
-40.81
-45.04
-47.45
-47.31
-44.22
-38.31
-30.31
-21.35
-12.58
-4.87
1.39
6.28
10.09
13.12
15.59
17.68
19.56
21.40
23.32
25.27
27.03
28.22
28.58
28.10
27.05
25.94
25.19
25.03
25.32
25.68
25.68
25.03
23.63
21.57
19.04
16.24
13.32
10.28
7.09
3.73
0.24
-3.27
-6.68
-9.88
-12.87
-15.70
-18.46
-21.23
-24.06
-27.03
-30.23
-33.78
-37.62
-41.44
-44.55
-46.03
-45.05
-41.19
-34.74
-26.56
-17.83
-9.69
-2.88
2.41
6.35
9.36
11.84
14.06
16.10
17.91
19.33
20.25
20.59
20.44
19.99
19.51
19.23
19.23
19.46
19.79
20.08
20.34
20.63
20.96
21.26
21.30
20.79
19.61
17.77
15.53
13.22
11.03
8.99
6.93
4.61
1.87
-1.26
-4.59
-7.85
-10.86
-13.53
-15.97
-18.42
-21.13
-24.31
-28.02
-32.11
-36.18
-39.67
-41.89
-42.23
-40.27
-35.94
-29.54
-21.72
-13.34
-5.33
1.59
6.96
10.75
13.19
14.66
15.58
16.26
16.82
17.26
17.54
17.64
17.63
17.67
17.94
18.53
19.38
20.35
21.28
22.09
22.73
23.16
23.23
22.64
21.06
18.40
14.92
11.23
8.06
5.90
4.81
4.40
4.10
3.39
2.02
-0.01
-2.56
-5.53
-8.84
-12.42
-16.25
-20.27
-24.42
-28.60
-32.71
-36.53
-39.65
-41.58
-41.80
-40.02
-36.19
-30.62
-23.88
-16.67
-9.65
-3.36
1.85
5.88
8.80
10.80
12.11
12.92
13.35
13.45
13.32
13.03
12.77
12.73
13.07
13.79
14.77
15.76
16.52
16.93
16.99
16.78
16.37
15.74
14.80
13.47
11.76
9.81
7.79
5.87
4.06
2.31
0.54
-1.26
-3.04
-4.74
-6.36
-8.01
-9.88
-12.18
-15.07
-18.62
-22.70
-26.96
-30.73
-33.24
-33.72
-31.71
-27.29
-21.03
-13.85
-6.73
-0.38
4.82
8.81
11.70
13.62
14.63
14.82
14.34
13.44
12.45
11.65
11.21
11.10
11.16
11.19
11.06
10.79
10.52
10.44
10.61
10.93
11.10
10.75
9.55
7.40
4.47
1.20
-1.90
-4.40
-6.12
-7.20
-7.98
-8.98
-10.62
-13.18
-16.67
-20.86
-25.30
-29.41
-32.56
-34.23
-34.09
-32.07
-28.35
-23.33
-17.46
-11.26
-5.21
0.25
4.77
8.18
10.52
11.99
12.90
13.50
13.92
14.15
14.14
13.89
13.49
13.12
12.94
13.04
13.44
14.09
14.86
15.56
15.98
15.92
15.20
13.81
11.87
9.54
7.00
4.39
1.83
-0.50
-2.38
-3.69
-4.50
-5.09
-5.88
-7.27
-9.43
-12.25
-15.49
-18.87
-22.23
-25.49
-28.50
-30.97
-32.40
-32.29
-30.31
-26.48
-21.15
-14.98
-8.67
-2.82
2.17
6.15
9.18
11.41
12.99
14.03
14.61
14.85
14.91
15.00
15.27
15.72
16.25
16.68
16.93
17.02
17.06
17.20
17.50
17.89
18.17
18.06
17.35
15.96
13.98
11.65
9.24
6.87
4.57
2.20
-0.31
-2.96
-5.57
-7.89
-9.74
-11.11
-12.21
-13.36
-14.89
-16.99
-19.63
-22.66
-25.71
-28.40
-30.27
-30.89
-29.96
-27.40
-23.31
-18.00
-11.93
-5.63
0.37
5.62
9.82
12.84
14.73
15.67
15.94
15.81
15.57
15.41
15.41
15.59
15.90
16.27
16.65
16.95
17.13
17.13
16.94
16.55
15.98
15.21
14.27
13.20
12.02
10.72
9.28
7.65
5.75
3.55
1.08
-1.53
-4.07
-6.34
-8.23
-9.74
-10.99
-12.14
-13.41
-14.95
-16.89
-19.32
-22.24
-25.52
-28.85
-31.67
-33.31
-33.17
-30.93
-26.76
-21.26
-15.30
-9.64
-4.72
-0.59
3.02
6.39
9.62
12.49
14.59
15.58
15.40
14.33
12.95
11.86
11.48
11.92
12.94
14.16
15.23
15.95
16.34
16.52
16.59
16.54
16.27
15.60
14.43
12.79
10.83
8.75
6.73
4.81
2.91
0.91
-1.29
-3.71
-6.28
-8.79
-11.05
-12.92
-14.42
-15.75
-17.23
-19.23
-21.98
-25.42
-29.25
-32.94
-35.84
-37.35
-37.02
-34.67
-30.44
-24.80
-18.44
-12.11
-6.46
-1.89
1.51
3.85
5.40
6.41
7.11
7.62
8.03
8.30
8.36
8.16
7.72
7.21
6.83
6.77
7.03
7.43
7.76
7.89
7.91
8.05
8.57
9.53
10.71
11.68
11.89
11.04
9.08
6.32
3.27
0.41
-1.98
-3.87
-5.44
-6.91
-8.47
-10.21
-12.15
-14.33
-16.71
-19.20
-21.53
-23.23
-23.70
-22.42
-19.20
-14.26
-8.23
-2.00
3.54
7.75
10.38
11.65
12.03
12.06
12.06
12.05
11.83
11.19
10.11
8.82
7.69
7.04
7.04
7.63
8.63
9.83
11.04
12.10
12.85
13.20
13.08
12.53
11.58
10.26
8.56
6.43
3.89
1.09
-1.72
-4.23
-6.26
-7.81
-9.09
-10.45
-12.25
-14.70
-17.87
-21.65
-25.73
-29.62
-32.69
-34.27
-33.81
-31.08
-26.29
-20.04
-13.21
-6.63
-0.91
3.69
7.25
9.95
12.00
13.47
14.37
14.65
14.38
13.69
12.82
12.00
11.44
11.26
11.49
12.12
13.01
14.01
14.92
15.59
15.93
15.89
15.46
14.59
13.17
11.13
8.50
5.55
2.67
0.25
-1.54
-2.84
-4.05
-5.55
-7.61
-10.23
-13.17
-16.23
-19.24
-22.26
-25.30
-28.31
-31.02
-32.95
-33.60
-32.61
-29.92
-25.82
-20.84
-15.57
-10.49
-5.83
-1.60
2.32
5.99
9.38
12.32
14.61
16.10
16.82
16.91
16.61
16.15
15.67
15.24
14.92
14.71
14.68
14.85
15.12
15.34
15.26
14.71
13.62
12.14
10.49
8.92
7.56
6.38
5.25
4.01
2.55
0.84
-1.06
-3.10
-5.19
-7.26
-9.35
-11.57
-14.15
-17.37
-21.31
-25.73
-30.02
-33.26
-34.58
-33.48
-30.04
-24.85
-18.78
-12.59
-6.77
-1.42
3.47
7.88
11.64
14.48
16.19
16.73
16.38
15.58
14.81
14.39
14.38
14.66
15.02
15.29
15.42
15.44
15.42
15.42
15.43
15.34
15.05
14.45
13.52
12.22
10.65
8.84
6.83
4.58
2.04
-0.83
-3.95
-7.12
-10.11
-12.73
-14.96
-17.00
-19.22
-21.95
-25.42
-29.53
-33.91
-37.97
-41.00
-42.34
-41.51
-38.37
-33.14
-26.44
-19.11
-12.02
-5.78
-0.73
3.15
6.08
8.29
9.97
11.19
11.95
12.30
12.28
12.04
11.71
11.45
11.39
11.60
12.05
12.67
13.36
14.07
14.73
15.26
15.50
15.22
14.18
12.32
9.79
6.92
4.08
1.45
-0.98
-3.43
-6.05
-8.95
-12.11
-15.48
-19.00
-22.64
-26.22
-29.31
-31.26
-31.43
-29.35
-25.02
-18.91
-11.82
-4.68
1.80
7.19
11.37
14.46
16.63
18.03
18.71
18.65
17.86
16.41
14.55
12.68
11.28
10.68
11.00
12.01
13.33
14.56
15.50
16.09
16.35
16.21
15.48
13.92
11.46
8.32
4.99
1.98
-0.41
-2.27
-3.98
-6.06
-8.92
-12.70
-17.28
-22.36
-27.50
-32.15
-35.63
-37.26
-36.47
-33.03
-27.18
-19.64
-11.40
-3.49
3.29
8.60
12.53
15.41
17.66
19.51
20.96
21.88
22.10
21.66
20.80
19.86
19.20
18.99
19.20
19.68
20.21
20.66
20.96
21.10
21.00
20.57
19.67
18.19
16.09
13.46
10.48
7.44
4.58
2.04
-0.20
-2.30
-4.56
-7.20
-10.40
-14.25
-18.77
-23.78
-28.93
-33.58
-36.98
-38.35
-37.23
-33.56
-27.73
-20.46
-12.58
-4.85
2.17
8.11
12.77
16.15
18.39
19.72
20.46
20.85
21.05
21.14
21.16
21.16
21.15
21.13
21.05
20.84
20.48
20.03
19.60
19.30
19.15
19.03
18.72
17.94
16.54
14.50
11.92
8.97
5.80
2.55
-0.66
-3.74
-6.63
-9.32
-11.94
-14.73
-17.98
-21.86
-26.34
-31.07
-35.45
-38.72
-40.21
-39.50
-36.51
-31.56
-25.19
-18.04
-10.68
-3.51
3.24
9.40
14.76
19.05
22.00
23.48
23.64
22.92
21.94
21.22
21.01
21.23
21.57
21.79
21.79
21.65
21.54
21.49
21.36
20.88
19.87
18.29
16.32
14.20
12.11
10.09
8.02
5.72
3.14
0.37
-2.35
-4.76
-6.74
-8.40
-10.04
-12.12
-14.95
-18.64
-22.98
-27.50
-31.59
-34.61
-36.05
-35.52
-32.93
-28.44
-22.54
-15.94
-9.42
-3.63
1.12
4.82
7.68
9.96
11.81
13.24
14.15
14.47
14.27
13.82
13.43
13.39
13.78
14.43
15.07
15.46
15.53
15.35
15.10
14.84
14.46
13.77
12.64
11.06
9.21
7.34
5.63
4.09
2.58
0.87
-1.21
-3.72
-6.55
-9.55
-12.56
-15.50
-18.37
-21.16
-23.73
-25.79
-26.93
-26.69
-24.77
-21.12
-16.03
-10.06
-3.91
1.79
6.59
10.33
13.06
14.92
16.05
16.48
16.22
15.33
14.07
12.74
11.68
11.05
10.77
10.70
10.72
10.85
11.24
11.95
12.84
13.55
13.59
12.64
10.65
7.92
4.96
2.19
-0.15
-2.07
-3.77
-5.53
-7.58
-10.06
-12.99
-16.36
-20.03
-23.73
-27.00
-29.26
-29.87
-28.43
-24.91
-19.75
-13.69
-7.59
-2.12
2.34
5.70
8.11
9.80
10.95
11.73
12.18
12.31
12.16
11.77
11.32
10.98
10.97
11.37
12.14
13.08
13.96
14.61
14.96
14.99
14.66
13.86
12.48
10.56
8.26
5.86
3.62
1.66
-0.05
-1.64
-3.22
-4.84
-6.47
-8.13
-9.92
-12.03
-14.66
-17.94
-21.78
-25.77
-29.30
-31.62
-32.05
-30.27
-26.34
-20.82
-14.51
-8.21
-2.51
2.35
6.35
9.61
12.27
14.41
16.13
17.55
18.75
19.73
20.38
20.51
20.00
18.93
17.57
16.35
15.61
15.54
16.02
16.74
17.36
17.57
17.22
16.31
14.91
13.19
11.27
9.28
7.32
5.38
3.42
1.33
-0.97
-3.45
-5.95
-8.30
-10.36
-12.15
-13.86
-15.74
-17.98
-20.56
-23.26
-25.69
-27.43
-28.09
-27.36
-25.09
-21.35
-16.44
-10.92
-5.45
-0.63
3.15
5.81
7.55
8.63
9.26
9.59
9.64
9.54
9.43
9.50
9.84
10.45
11.20
11.95
12.64
13.30
14.04
14.93
15.91
16.79
17.27
17.10
16.14
14.48
12.28
9.82
7.32
4.91
2.65
0.55
-1.42
-3.31
-5.13
-6.92
-8.76
-10.76
-13.04
-15.65
-18.65
-21.99
-25.50
-28.82
-31.41
-32.65
-31.98
-29.21
-24.61
-18.83
-12.77
-7.26
-2.75
0.64
3.07
4.84
6.13
7.05
7.67
8.09
8.47
8.90
9.37
9.70
9.68
9.13
8.11
6.88
5.81
5.18
5.07
5.29
5.46
5.29
4.59
3.39
1.82
-0.03
-2.08
-4.29
-6.54
-8.63
-10.35
-11.64
-12.59
-13.53
-14.81
-16.66
-19.04
-21.66
-24.11
-25.90
-26.61
-25.92
-23.64
-19.80
-14.67
-8.77
-2.81
2.49
6.59
9.19
10.30
10.17
9.25
8.11
7.30
7.29
8.30
10.30
12.92
15.64
17.91
19.20
19.21
17.89
15.52
12.64
9.97
8.13
7.46
7.95
9.18
10.64
11.91
12.68
12.84
12.27
10.82
8.29
4.57
-0.24
-5.79
-11.56
-16.97
-21.54
-24.93
-27.08
-28.04
-28.00
-27.12
-25.49
-23.16
-20.19
-16.74
-13.08
-9.52
-6.29
-3.49
-1.14
0.78
2.20
3.01
3.21
2.87
2.26
1.74
1.63
2.17
3.45
5.41
7.83
10.34
12.42
13.44
12.84
10.33
6.02
0.61
-4.91
-9.40
-11.95
-12.25
-10.59
-7.79
-4.91
-2.82
-2.02
-2.55
-4.14
-6.35
-8.74
-10.87
-12.29
-12.71
-11.97
-10.12
-7.43
-4.26
-0.99
2.13
5.05
7.79
10.50
13.38
16.56
20.02
23.56
26.82
29.27
30.52
30.39
29.04
26.88
24.35
21.71
18.97
15.96
12.58
8.96
5.54
2.87
1.44
1.35
2.31
3.67
4.66
4.60
3.11
0.23
-3.58
-7.55
-10.73
-12.37
-12.10
-10.18
-7.43
-4.97
-3.81
-4.49
-6.90
-10.40
-14.09
-17.08
-18.82
-19.05
-17.73
-15.00
-11.12
-6.50
-1.70
2.61
5.89
7.91
8.88
9.33
9.87
10.86
12.27
13.75
14.81
15.12
14.59
13.46
12.12
10.91
10.01
9.39
8.86
8.18
7.16
5.75
3.94
1.80
-0.58
-3.08
-5.58
-7.94
-10.04
-11.81
-13.23
-14.36
-15.26
-16.05
-16.87
-17.89
-19.35
-21.42
-24.19
-27.52
-31.10
-34.47
-37.13
-38.66
-38.77
-37.31
-34.32
-29.98
-24.62
-18.73
-12.85
-7.55
-3.20
0.01
2.23
3.78
5.01
6.14
7.14
7.91
8.33
8.47
8.54
8.79
9.36
10.18
11.04
11.76
12.28
12.72
13.22
13.74
14.04
13.77
12.71
10.90
8.74
6.73
5.24
4.34
3.75
3.03
1.77
-0.23
-2.97
-6.18
-9.45
-12.25
-13.98
-14.11
-12.35
-8.71
-3.56
2.39
8.40
13.89
18.59
22.55
26.02
29.23
32.25
34.90
36.80
37.54
36.88
34.85
31.81
28.34
25.01
22.27
20.22
18.74
17.58
16.52
15.56
14.82
14.45
14.37
14.25
13.44
11.27
7.26
1.47
-5.43
-12.30
-18.04
-22.13
-24.85
-27.22
-30.47
-35.48
-42.42
-50.73
-59.53
-67.91
-75.13
-80.44
-82.98
-81.80
-76.26
-66.54
-53.82
-40.10
-27.43
-17.22
-9.87
-4.98
-1.89
-0.11
0.54
0.15
-0.90
-1.83
-1.64
0.50
4.84
10.99
18.14
25.47
32.39
38.52
43.65
47.50
49.75
50.14
48.62
45.39
40.82
35.37
29.38
23.15
16.83
10.68
4.93
-0.19
-4.55
-8.22
-11.41
-14.50
-17.82
-21.67
-26.21
-31.39
-37.03
-42.78
-48.15
-52.53
-55.27
-55.73
-53.53
-48.73
-41.83
-33.77
-25.61
-18.27
-12.22
-7.49
-3.72
-0.46
2.58
5.50
8.23
10.69
12.85
14.76
16.47
17.96
19.20
20.12
20.72
21.01
21.10
21.10
21.05
20.91
20.60
19.94
18.80
17.10
14.85
12.15
9.19
6.18
3.28
0.60
-1.96
-4.59
-7.58
-11.14
-15.21
-19.47
-23.28
-25.95
-26.88
-25.80
-22.75
-18.05
-12.26
-6.03
-0.05
5.18
9.33
12.40
14.59
16.23
17.52
18.52
19.14
19.33
19.16
18.89
18.85
19.23
20.01
20.92
21.58
21.65
20.90
19.30
16.87
13.63
9.63
4.98
-0.07
-5.10
-9.67
-13.43
-16.25
-18.25
-19.79
-21.36
-23.41
-26.26
-29.95
-34.18
-38.36
-41.67
-43.33
-42.73
-39.62
-34.17
-26.89
-18.57
-10.06
-2.16
4.52
9.59
13.01
14.99
15.87
15.98
15.58
14.90
14.14
13.58
13.43
13.79
14.60
15.64
16.64
17.41
17.83
17.90
17.65
17.00
15.83
13.94
11.20
7.64
3.45
-0.96
-5.13
-8.60
-11.12
-12.80
-14.10
-15.66
-17.96
-20.98
-24.17
-26.57
-27.12
-25.00
-19.87
-11.92
-1.94
8.75
18.29
24.67
26.31
22.73
14.85
4.82
-4.70
-11.48
-14.32
-13.18
-8.78
-2.09
6.01
14.74
23.31
30.87
36.61
39.95
40.73
39.21
35.98
31.76
27.27
23.09
19.62
16.92
14.76
12.76
10.55
7.93
5.00
2.05
-0.63
-2.97
-5.16
-7.58
-10.58
-14.33
-18.82
-23.90
-29.37
-34.99
-40.42
-45.17
-48.57
-49.99
-49.04
-45.69
-40.34
-33.63
