1520261523.00
64.000000
-0.00
-0.00
-0.00
-0.00
-0.00
-0.00
-0.00
-0.00
-0.00
-0.00
0.00
0.01
0.01
-0.00
-0.03
-0.05
-0.05
0.00
0.13
0.36
0.66
1.01
1.37
1.72
2.06
2.40
2.79
3.24
3.80
4.42
5.06
5.66
6.20
6.68
7.15
7.68
8.31
9.14
10.09
11.04
11.88
12.56
13.14
13.76
14.65
15.96
17.91
20.32
22.90
25.38
27.58
29.57
31.68
34.32
37.81
42.54
48.15
54.10
59.83
64.97
69.58
74.14
79.34
85.71
93.76
103.00
112.62
121.73
129.77
136.75
143.30
150.75
157.77
166.64
177.95
191.79
206.97
220.57
228.25
225.36
208.53
176.87
132.76
80.05
23.07
-34.94
-92.44
-149.16
-205.23
-260.37
-313.74
-363.87
-409.83
-450.91
-486.50
-515.74
-537.23
-549.22
-549.96
-538.37
-514.21
-478.67
-433.88
-382.45
-327.02
-269.84
-212.63
-156.66
-102.95
-52.37
-5.90
35.58
71.43
101.35
125.50
144.38
158.69
169.15
176.37
180.75
182.57
182.07
179.51
175.23
169.65
163.18
156.15
148.81
141.30
133.69
126.02
118.33
110.69
103.16
95.80
88.68
81.83
75.25
68.95
62.95
57.25
51.86
46.78
42.03
37.59
33.45
29.61
26.07
22.81
19.83
17.11
14.67
12.48
10.54
8.83
7.35
6.07
4.97
4.05
3.27
2.62
2.09
1.65
1.30
1.01
0.79
0.61
0.47
0.37
0.29
0.23
0.18
0.15
0.14
0.13
0.13
0.14
0.16
0.19
0.22
0.25
0.29
0.33
0.37
0.42
0.46
0.51
0.56
0.61
0.67
0.72
0.78
0.85
0.92
1.00
1.09
1.19
1.30
1.43
1.57
1.72
1.89
2.09
2.31
2.54
2.80
3.09
3.41
3.78
4.17
4.61
5.06
5.52
5.98
6.44
6.94
7.48
8.10
8.81
9.58
10.42
11.27
12.12
12.98
13.89
14.87
15.96
17.16
18.43
19.70
20.87
21.82
22.49
22.80
22.71
22.19
21.14
19.44
16.96
13.59
9.32
4.32
-1.06
-6.43
-11.37
-15.66
-19.24
-22.27
-24.97
-27.50
-29.86
-31.83
-33.14
-33.54
-33.03
-31.95
-30.81
-30.20
-30.45
-31.54
-33.06
-34.46
-35.24
-35.24
-34.65
-33.94
-33.64
-34.25
-36.12
-39.46
-44.00
-48.81
-52.13
-51.80
-46.05
-34.44
-18.33
-0.58
15.46
27.32
34.13
36.58
36.26
34.63
32.48
29.96
27.01
23.85
20.96
18.95
18.08
18.18
18.76
19.25
19.31
18.99
18.62
18.62
19.24
20.40
21.73
22.77
23.16
22.78
21.66
20.11
18.43
16.83
15.36
13.97
12.60
11.21
9.78
8.28
6.71
5.18
3.87
3.03
2.78
3.00
3.27
3.13
2.23
0.53
-1.76
-4.32
-6.89
-9.39
-11.84
-14.26
-16.51
-18.29
-19.22
-19.05
-17.70
-15.34
-12.20
-8.58
-4.72
-0.77
3.05
6.59
9.60
11.90
13.36
13.98
13.88
13.25
12.26
11.05
9.76
8.51
7.46
6.69
6.23
6.02
5.94
5.86
5.69
5.34
4.74
3.83
2.52
0.85
-1.05
-3.02
-4.89
-6.65
-8.45
-10.54
-13.10
-16.06
-19.02
-21.40
-22.63
-22.33
-20.46
-17.21
-12.96
-8.13
-3.08
1.83
6.27
9.96
12.72
14.52
15.50
15.88
15.86
15.52
14.96
14.27
13.65
13.37
13.61
14.32
15.21
15.79
15.66
14.68
13.11
11.39
9.89
8.73
7.72
6.49
4.80
2.63
0.14
-2.50
-5.32
-8.51
-12.26
-16.48
-20.71
-24.19
-26.23
-26.51
-25.17
-22.66
-19.54
-16.16
-12.67
-9.09
-5.46
-1.95
1.18
3.74
5.66
7.09
8.26
9.30
10.15
10.55
10.17
8.86
6.76
4.35
2.23
0.90
0.49
0.75
1.12
1.00
-0.03
-2.02
-4.76
-7.80
-10.67
-13.01
-14.71
-15.90
-16.91
-18.11
-19.70
-21.66
-23.69
-25.42
-26.50
-26.70
-25.88
-23.96
-20.89
-16.68
-11.60
-6.12
-0.83
3.74
7.34
10.06
12.23
14.22
16.26
18.32
20.11
21.29
21.56
20.81
19.25
17.18
15.03
13.08
11.42
9.98
8.61
7.21
5.74
4.21
2.59
0.79
-1.37
-4.04
-7.29
-10.97
-14.79
-18.28
-21.01
-22.62
-22.97
-22.10
-20.19
-17.43
-13.99
-10.01
-5.67
-1.26
2.84
6.22
8.61
9.95
10.42
10.33
9.95
9.46
8.85
8.08
7.05
5.78
4.37
3.04
2.02
1.46
1.33
1.40
1.29
0.71
-0.41
-1.90
-3.39
-4.61
-5.55
-6.53
-8.06
-10.55
-14.03
-18.06
-21.92
-24.81
-26.24
-26.04
-24.34
-21.40
-17.47
-12.76
-7.56
-2.22
2.85
7.28
10.85
13.52
15.36
16.51
17.09
17.23
17.03
16.66
16.28
15.96
15.71
15.48
15.26
15.05
14.89
14.76
14.51
13.92
12.85
11.30
9.45
7.56
5.82
4.27
2.78
1.14
-0.86
-3.31
-6.25
-9.61
-13.25
-16.88
-20.13
-22.57
-23.86
-23.84
-22.55
-20.14
-16.75
-12.55
-7.72
-2.56
2.47
6.91
10.44
12.95
14.60
15.63
16.21
16.36
16.00
15.10
13.77
12.28
10.97
10.14
9.89
10.16
10.75
11.43
11.95
12.13
11.87
11.04
9.58
7.44
4.72
1.72
-1.16
-3.54
-5.24
-6.38
-7.38
-8.77
-10.93
-13.96
-17.60
-21.37
-24.74
-27.30
-28.81
-29.21
-28.50
-26.60
-23.43
-18.93
-13.28
-6.94
-0.54
5.23
9.88
13.27
15.52
16.87
17.56
17.71
17.41
16.73
15.85
14.98
14.29
13.86
13.69
13.75
13.98
14.32
14.62
14.71
14.38
13.59
12.48
11.26
10.08
8.87
7.36
5.28
2.59
-0.44
-3.30
-5.52
-6.91
-7.67
-8.25
-9.17
-10.79
-13.20
-16.28
-19.71
-23.07
-25.84
-27.53
-27.74
-26.27
-23.17
-18.74
-13.43
-7.79
-2.43
2.16
5.68
8.08
9.60
10.65
11.59
12.57
13.51
14.12
14.15
13.58
12.64
11.67
10.99
10.72
10.80
11.07
11.38
11.63
11.78
11.77
11.47
10.68
9.18
6.90
4.01
0.89
-1.96
-4.18
-5.70
-6.85
-8.24
-10.44
-13.76
-18.02
-22.66
-26.96
-30.35
-32.65
-33.90
-34.20
-33.44
-31.34
-27.60
-22.23
-15.69
-8.75
-2.27
3.13
7.19
10.00
11.79
12.76
13.02
12.62
11.73
10.52
9.27
8.21
7.46
7.01
6.76
6.58
6.33
5.91
5.29
4.47
3.50
2.39
1.12
-0.38
-2.11
-4.06
-6.18
-8.44
-10.90
-13.68
-16.91
-20.59
-24.49
-28.17
-31.05
-32.62
-32.49
-30.53
-26.86
-21.84
-15.95
-9.79
-3.96
1.08
5.09
8.11
10.34
12.03
13.30
14.11
14.33
13.89
12.93
11.74
10.75
10.27
10.37
10.90
11.53
11.96
12.10
11.95
11.61
11.03
10.00
8.24
5.61
2.24
-1.37
-4.62
-7.02
-8.54
-9.54
-10.72
-12.67
-15.70
-19.63
-23.99
-28.12
-31.40
-33.31
-33.45
-31.61
-27.74
-22.05
-15.01
-7.33
0.22
6.95
12.38
16.38
19.08
20.82
21.96
22.81
23.48
23.96
24.11
23.84
23.18
22.25
21.32
20.60
20.21
20.11
20.13
20.08
19.78
19.16
18.21
17.01
15.61
14.05
12.36
10.55
8.60
6.51
4.33
2.08
-0.24
-2.66
-5.29
-8.16
-11.29
-14.63
-18.08
-21.57
-25.04
-28.32
-31.15
-33.10
-33.67
-32.47
-29.34
-24.43
-18.13
-10.97
-3.53
3.58
9.82
14.73
18.03
19.79
20.39
20.42
20.39
20.61
21.03
21.47
21.68
21.55
21.18
20.72
20.32
20.04
19.84
19.58
19.20
18.65
17.89
16.92
15.67
14.12
12.21
9.93
7.34
4.54
1.65
-1.14
-3.70
-5.94
-7.89
-9.71
-11.69
-14.12
-17.16
-20.79
-24.70
-28.36
-31.18
-32.61
-32.31
-30.13
-26.17
-20.67
-14.02
-6.72
0.63
7.40
13.13
17.54
20.59
22.40
23.11
22.96
22.20
21.15
20.21
19.66
19.54
19.69
19.80
19.60
19.04
18.30
17.62
17.14
16.83
16.53
15.99
15.00
13.47
11.35
8.68
5.56
2.22
-1.05
-3.97
-6.35
-8.22
-9.82
-11.60
-14.03
-17.44
-21.87
-27.00
-32.24
-36.84
-40.18
-41.79
-41.40
-38.95
-34.53
-28.46
-21.23
-13.58
-6.27
0.09
5.19
9.03
11.79
13.67
14.71
14.93
14.36
13.15
11.56
9.90
8.42
7.25
6.43
5.92
5.70
5.71
5.89
6.10
6.19
5.99
5.35
4.20
2.56
0.56
-1.69
-4.07
-6.52
-9.13
-12.06
-15.51
-19.59
-24.20
-28.96
-33.32
-36.58
-38.16
-37.68
-35.06
-30.55
-24.56
-17.66
-10.41
-3.35
3.06
8.41
12.46
15.16
16.63
17.22
17.29
17.15
16.87
16.41
15.64
14.56
13.37
12.40
11.94
12.14
12.83
13.61
14.03
13.73
12.58
10.68
8.26
5.57
2.85
0.25
-2.20
-4.57
-7.07
-9.99
-13.59
-18.00
-23.15
-28.65
-33.93
-38.22
-40.75
-40.89
-38.31
-33.11
-25.81
-17.29
-8.59
-0.66
5.84
10.65
13.91
16.00
17.38
18.43
19.35
20.19
20.90
21.39
21.64
21.63
21.40
21.03
20.64
20.36
20.33
20.57
20.93
21.08
20.66
19.39
17.25
14.46
11.36
8.26
5.27
2.37
-0.59
-3.65
-6.76
-9.86
-12.99
-16.37
-20.30
-24.99
-30.33
-35.77
-40.43
-43.26
-43.44
-40.66
-35.21
-27.83
-19.56
-11.41
-4.08
2.05
6.93
10.72
13.58
15.75
17.42
18.81
20.12
21.52
23.03
24.54
25.82
26.66
27.01
27.00
26.90
26.97
27.32
27.83
28.17
27.99
27.07
25.46
23.38
21.10
18.77
16.34
13.63
10.50
6.99
3.31
-0.22
-3.39
-6.18
-8.76
-11.41
-14.34
-17.71
-21.57
-25.87
-30.44
-34.99
-39.11
-42.30
-44.10
-44.09
-42.00
-37.76
-31.52
-23.72
-15.10
-6.55
1.17
7.56
12.57
16.51
19.69
22.25
24.08
25.00
25.03
24.53
24.07
24.14
24.95
26.30
27.83
29.21
30.31
31.19
31.93
32.44
32.48
31.76
30.13
27.74
24.89
22.00
19.28
16.76
14.23
11.47
8.34
4.88
1.32
-2.13
-5.36
-8.46
-11.60
-14.98
-18.70
-22.80
-27.27
-32.08
-37.13
-42.14
-46.63
-49.91
-51.32
-50.37
-46.92
-41.23
-33.90
-25.68
-17.35
-9.51
-2.56
3.38
8.31
12.31
15.41
17.60
18.85
19.28
19.11
18.72
18.52
18.70
19.30
20.13
20.93
21.52
21.83
21.90
21.80
21.59
21.23
20.63
19.64
18.18
16.22
13.81
11.07
8.13
5.05
1.85
-1.50
-5.02
-8.71
-12.58
-16.62
-20.91
-25.48
-30.27
-35.02
-39.18
-42.10
-43.17
-42.00
-38.53
-32.97
-25.76
-17.55
-9.14
-1.44
4.78
9.10
11.69
13.18
14.40
15.94
17.92
19.93
21.40
21.93
21.56
20.73
19.94
19.54
19.49
19.52
19.35
18.86
18.13
17.32
16.48
15.45
13.94
11.69
8.68
5.13
1.44
-2.09
-5.31
-8.35
-11.44
-14.81
-18.54
-22.66
-27.13
-31.94
-37.04
-42.17
-46.76
-49.96
-50.91
-49.00
-44.13
-36.73
-27.64
-17.89
-8.37
0.24
7.54
13.36
17.71
20.72
22.61
23.71
24.31
24.67
24.97
25.26
25.54
25.78
25.93
25.98
25.92
25.75
25.50
25.15
24.65
23.93
22.88
21.40
19.45
17.00
14.10
10.78
7.11
3.16
-0.95
-5.00
-8.72
-11.88
-14.49
-16.81
-19.39
-22.81
-27.40
-32.95
-38.77
-43.83
-47.18
-48.21
-46.80
-43.20
-37.77
-30.83
-22.69
-13.75
-4.65
3.84
10.96
16.30
19.87
22.07
23.45
24.48
25.36
26.11
26.62
26.80
26.69
26.41
26.13
26.01
26.12
26.44
26.87
27.21
27.23
26.66
25.37
23.34
20.75
17.87
14.95
12.15
9.41
6.58
3.47
0.04
-3.59
-7.19
-10.56
-13.67
-16.75
-20.14
-24.17
-28.98
-34.36
-39.83
-44.71
-48.29
-49.99
-49.49
-46.72
-41.80
-35.01
-26.76
-17.61
-8.25
0.57
8.20
14.29
18.79
21.96
24.16
25.69
26.74
27.38
27.69
27.82
27.94
28.24
28.78
29.46
30.11
30.56
30.74
30.64
30.28
29.60
28.50
26.84
24.58
21.77
18.58
15.21
11.81
8.43
4.99
1.43
-2.26
-5.98
-9.58
-12.99
-16.31
-19.89
-24.09
-29.14
-34.90
-40.84
-46.07
-49.68
-50.98
-49.63
-45.72
-39.64
-31.93
-23.28
-14.40
-6.03
1.15
6.69
10.49
12.81
14.12
14.94
15.63
16.32
16.92
17.32
17.45
17.40
17.32
17.38
17.60
17.94
18.24
18.38
18.26
17.78
16.83
15.29
13.06
10.19
6.92
3.62
0.65
-1.83
-3.99
-6.27
-9.19
-13.13
-18.12
-23.86
-29.79
-35.27
-39.65
-42.35
-42.91
-41.00
-36.62
-30.07
-22.01
-13.33
-4.94
2.47
8.52
13.18
16.58
18.92
20.29
20.73
20.27
19.04
17.33
15.48
13.81
12.54
11.76
11.48
11.63
12.12
12.80
13.43
13.72
13.39
12.21
10.18
7.45
4.32
1.08
-2.12
-5.29
-8.60
-12.30
-16.60
-21.61
-27.27
-33.23
-38.87
-43.38
-45.87
-45.62
-42.29
-36.06
-27.61
-18.03
-8.46
0.19
7.41
13.19
17.74
21.36
24.20
26.28
27.55
28.10
28.13
27.93
27.68
27.35
26.77
25.79
24.43
22.99
21.91
21.46
21.61
22.07
22.32
21.91
20.55
18.20
15.01
11.31
7.46
3.83
0.62
-2.24
-5.10
-8.51
-12.93
-18.52
-25.01
-31.76
-38.00
-42.96
-46.09
-46.99
-45.43
-41.37
-34.92
-26.58
-17.15
-7.64
0.89
7.74
12.74
16.23
18.82
21.06
23.20
25.17
26.69
27.59
27.91
27.91
27.86
27.93
28.07
28.15
28.06
27.86
27.64
27.42
27.10
26.42
25.15
23.14
20.43
17.19
13.58
9.75
5.85
2.03
-1.56
-4.77
-7.57
-10.09
-12.60
-15.46
-19.05
-23.58
-29.02
-34.99
-40.77
-45.43
-48.06
-47.98
-44.98
-39.36
-31.82
-23.27
-14.56
-6.37
0.89
7.03
11.99
15.83
18.68
20.74
22.21
23.27
24.07
24.69
25.17
25.51
25.72
25.82
25.90
26.09
26.51
27.17
27.96
28.58
28.71
28.10
26.73
24.74
22.36
19.84
17.25
14.63
11.97
9.32
6.73
4.27
1.90
-0.44
-2.83
-5.33
-7.95
-10.73
-13.78
-17.27
-21.37
-26.10
-31.19
-36.10
-40.14
-42.61
-43.04
-41.24
-37.34
-31.69
-24.81
-17.25
-9.59
-2.39
3.91
8.94
12.56
14.81
15.97
16.39
16.46
16.51
16.70
17.02
17.37
17.66
17.89
18.12
18.41
18.77
19.07
19.19
19.02
18.56
17.90
17.12
16.24
15.14
13.70
11.84
9.62
7.24
4.84
2.53
0.25
-2.09
-4.57
-7.16
-9.76
-12.36
-15.13
-18.45
-22.64
-27.75
-33.29
-38.35
-41.92
-43.23
-42.06
-38.69
-33.72
-27.70
-21.14
-14.39
-7.92
-2.19
2.34
5.47
7.35
8.39
9.11
9.85
10.72
11.62
12.35
12.81
13.01
13.10
13.28
13.64
14.13
14.56
14.69
14.34
13.49
12.23
10.72
9.06
7.24
5.19
2.90
0.43
-2.11
-4.63
-7.15
-9.87
-13.01
-16.73
-20.96
-25.44
-29.72
-33.27
-35.60
-36.32
-35.22
-32.29
-27.72
-21.93
-15.46
-8.94
-2.91
2.21
6.28
9.32
11.47
12.89
13.75
14.20
14.43
14.63
14.96
15.47
16.10
16.65
16.97
17.00
16.81
16.52
16.21
15.90
15.52
14.97
14.18
13.13
11.84
10.33
8.60
6.65
4.48
2.13
-0.35
-2.85
-5.30
-7.69
-10.08
-12.68
-15.75
-19.52
-24.01
-28.90
-33.58
-37.25
-39.21
-39.01
-36.60
-32.29
-26.60
-20.16
-13.55
-7.26
-1.66
2.99
6.59
9.24
11.15
12.59
13.83
14.98
16.03
16.86
17.31
17.32
16.92
16.28
15.64
15.27
15.35
15.87
16.71
17.54
18.05
17.96
17.20
15.87
14.20
12.42
10.63
8.81
6.83
4.61
2.21
-0.18
-2.32
-4.09
-5.55
-6.95
-8.64
-10.90
-13.86
-17.50
-21.60
-25.86
-29.92
-33.41
-36.00
-37.45
-37.55
-36.18
-33.25
-28.80
-23.14
-16.80
-10.52
-5.02
-0.75
2.27
4.39
6.12
7.87
9.74
11.55
13.00
13.87
14.20
14.24
14.34
14.74
15.55
16.65
17.76
18.60
18.96
18.79
18.17
17.24
16.11
14.80
13.29
11.61
9.87
8.26
6.93
5.93
5.15
4.32
3.23
1.80
0.18
-1.41
-2.74
-3.80
-4.85
-6.30
-8.57
-11.90
-16.15
-20.83
-25.19
-28.51
-30.27
-30.29
-28.68
-25.68
-21.59
-16.73
-11.41
-6.07
-1.17
2.89
5.91
7.91
9.13
9.88
10.42
10.91
11.42
11.95
12.44
12.83
13.06
13.13
13.12
13.16
13.36
13.65
13.89
13.87
13.52
12.86
11.97
10.87
9.45
7.51
4.95
1.90
-1.25
-4.01
-6.04
-7.35
-8.26
-9.32
-11.03
-13.66
-17.16
-21.24
-25.42
-29.25
-32.34
-34.40
-35.23
-34.67
-32.63
-29.16
-24.51
-19.18
-13.82
-9.04
-5.18
-2.23
0.10
2.15
4.08
5.82
7.11
7.75
7.73
7.24
6.58
5.99
5.58
5.35
5.31
5.45
5.79
6.28
6.77
7.01
6.72
5.66
3.83
1.45
-1.14
-3.57
-5.64
-7.38
-9.00
-10.75
-12.84
-15.30
-18.12
-21.22
-24.53
-27.86
-30.86
-32.94
-33.49
-32.06
-28.57
-23.40
-17.26
-10.92
-5.03
0.01
4.05
7.13
9.31
10.74
11.54
11.92
12.11
12.30
12.63
13.07
13.45
13.54
13.20
12.49
11.63
10.88
10.36
10.01
9.62
9.03
8.17
7.10
5.87
4.48
2.82
0.80
-1.57
-4.07
-6.48
-8.63
-10.61
-12.67
-15.11
-18.07
-21.41
-24.81
-27.84
-30.06
-31.08
-30.60
-28.46
-24.72
-19.72
-14.06
-8.38
-3.21
1.17
4.72
7.57
9.83
11.53
12.68
13.36
13.70
13.89
14.06
14.25
14.42
14.51
14.52
14.51
14.57
14.70
14.85
14.91
14.77
14.36
13.61
12.45
10.83
8.74
6.26
3.57
0.83
-1.78
-4.13
-6.18
-7.95
-9.52
-11.06
-12.81
-15.01
-17.86
-21.42
-25.51
-29.72
-33.42
-35.87
-36.44
-34.74
-30.78
-25.02
-18.17
-11.03
-4.29
1.66
6.70
10.82
14.08
16.49
18.06
18.91
19.22
19.26
19.22
19.19
19.15
19.10
19.10
19.28
19.72
20.37
21.09
21.57
21.64
21.23
20.45
19.44
18.28
16.94
15.36
13.51
11.47
9.32
7.08
4.70
2.08
-0.72
-3.51
-6.01
-8.03
-9.64
-11.15
-13.08
-15.82
-19.51
-23.90
-28.43
-32.39
-35.05
-35.89
-34.64
-31.38
-26.48
-20.50
-14.10
-7.85
-2.17
2.73
6.79
10.07
12.66
14.60
15.93
16.71
17.05
17.15
17.24
17.45
17.76
18.05
18.19
18.14
18.02
17.99
18.13
18.39
18.57
18.40
17.71
16.42
14.56
12.30
9.82
7.26
4.73
2.22
-0.30
-2.83
-5.29
-7.54
-9.56
-11.49
-13.74
-16.75
-20.72
-25.41
-30.10
-33.79
-35.66
-35.32
-32.88
-28.81
-23.67
-17.92
-11.92
-6.01
-0.56
4.11
7.78
10.47
12.37
13.75
14.73
15.30
15.35
14.88
14.06
13.29
12.92
13.14
13.85
14.72
15.42
15.72
15.56
15.01
14.09
12.74
10.88
8.51
5.83
3.19
0.95
-0.72
-1.95
-3.08
-4.55
-6.77
-9.91
-13.92
-18.55
-23.41
-28.04
-31.87
-34.34
-34.96
-33.49
-30.01
-24.95
-18.92
-12.56
-6.39
-0.74
4.20
8.32
11.59
14.12
16.06
17.68
19.15
20.48
21.52
22.05
22.01
21.52
20.90
20.46
20.38
20.66
21.16
21.70
22.10
22.21
21.79
20.65
18.65
15.85
12.53
9.11
5.92
3.15
0.75
-1.46
-3.64
-5.89
-8.24
-10.65
-13.12
-15.72
-18.50
-21.54
-24.85
-28.28
-31.49
-34.02
-35.36
-35.09
-33.04
-29.33
-24.33
-18.54
-12.47
-6.56
-1.11
3.71
7.82
11.24
13.99
16.16
17.84
19.16
20.26
21.17
21.87
22.25
22.27
21.99
21.59
21.33
21.38
21.76
22.29
22.67
22.61
21.96
20.74
19.12
17.33
15.60
14.10
12.88
11.84
10.80
9.54
7.89
5.86
3.56
1.14
-1.29
-3.71
-6.18
-8.77
-11.55
-14.61
-17.98
-21.72
-25.79
-29.97
-33.87
-36.88
-38.40
-37.91
-35.23
-30.53
-24.35
-17.46
-10.59
-4.38
0.84
5.01
8.26
10.75
12.65
14.06
15.05
15.71
16.17
16.59
17.08
17.74
18.59
19.59
20.64
21.65
22.54
23.25
23.83
24.30
24.70
24.95
24.92
24.46
23.55
22.26
20.73
19.06
17.28
15.42
13.54
11.87
10.65
10.00
9.82
9.67
8.91
6.87
3.07
-2.59
-9.91
-18.31
-27.03
-35.23
-42.19
-47.45
-50.90
-52.64
-52.85
-51.64
-48.93
-44.64
-38.84
-31.87
-24.26
-16.65
-9.58
-3.40
1.79
6.03
9.47
12.21
14.36
16.00
17.26
18.22
19.03
19.75
20.33
20.69
20.67
20.20
19.32
18.24
17.26
16.60
16.32
16.25
16.07
15.45
14.20
12.37
10.25
8.18
6.48
5.24
4.29
3.33
2.09
0.55
-1.11
-2.62
-3.81
-4.82
-6.02
-7.87
-10.67
-14.39
-18.69
-22.98
-26.66
-29.24
-30.43
-30.11
-28.33
-25.23
-21.04
-16.15
-11.00
-6.12
-1.93
1.40
3.92
5.90
7.64
9.25
10.62
11.50
11.70
11.24
10.31
9.24
8.28
7.62
7.33
7.43
7.95
8.86
10.02
11.21
12.15
12.55
12.19
10.94
8.80
5.93
2.68
-0.53
-3.29
-5.43
-7.08
-8.62
-10.49
-12.91
-15.82
-18.85
-21.57
-23.71
-25.15
-25.94
-26.09
-25.50
-23.98
-21.33
-17.58
-13.03
-8.18
-3.58
0.37
3.54
6.04
8.08
9.76
11.04
11.84
12.13
12.02
11.75
11.63
11.82
12.37
13.17
14.03
14.77
15.20
15.19
14.70
13.77
12.53
11.19
9.91
8.80
7.86
7.01
6.15
5.18
4.03
2.62
0.92
-1.01
-3.03
-4.98
-6.75
-8.37
-9.96
-11.69
-13.65
-15.88
-18.35
-21.09
-24.02
-26.91
-29.34
-30.73
-30.49
-28.36
-24.46
-19.33
-13.76
-8.46
-3.94
-0.34
2.46
4.71
6.65
8.36
9.82
10.94
11.71
12.23
12.68
13.21
13.81
14.35
14.60
14.55
14.34
14.27
14.60
15.32
16.18
16.76
16.67
15.79
14.23
12.28
10.29
8.49
6.94
5.59
4.28
2.83
1.13
-0.84
-2.95
-5.02
-6.90
-8.52
-9.92
-11.29
-12.82
-14.64
-16.78
-19.18
-21.76
-24.41
-26.97
-29.24
-30.94
-31.70
-31.16
-29.10
-25.55
-20.78
-15.32
-9.71
-4.38
0.44
4.71
8.45
11.58
13.98
15.51
16.22
16.34
16.31
16.50
17.07
17.93
18.80
19.45
19.84
20.08
20.34
20.62
20.82
20.73
20.21
19.28
18.10
16.88
15.71
14.55
13.28
11.74
9.86
7.69
5.37
3.01
0.74
-1.35
-3.20
-4.75
-6.04
-7.15
-8.27
-9.61
-11.42
-13.84
-16.86
-20.25
-23.63
-26.55
-28.60
-29.53
-29.27
-27.94
-25.68
-22.65
-18.94
-14.72
-10.22
-5.81
-1.87
1.31
3.59
5.01
5.70
5.91
5.87
5.80
5.89
6.20
6.64
7.01
7.14
6.95
6.57
6.23
6.17
6.48
6.99
7.44
7.51
7.04
6.02
4.63
3.09
1.60
0.24
-1.06
-2.35
-3.67
-4.95
-6.06
-6.91
-7.62
-8.53
-10.06
-12.56
-16.07
-20.20
-24.29
-27.62
-29.69
-30.27
-29.42
-27.32
-24.16
-20.11
-15.42
-10.40
-5.48
-1.07
2.56
5.31
7.24
8.51
9.23
9.50
9.39
9.07
8.74
8.62
8.82
9.32
9.98
10.64
11.15
11.50
11.71
11.78
11.68
11.31
10.59
9.51
8.13
6.50
4.62
2.44
-0.05
-2.70
-5.20
-7.22
-8.61
-9.55
-10.53
-12.10
-14.62
-18.07
-22.07
-26.12
-29.74
-32.60
-34.42
-34.98
-34.05
-31.50
-27.43
-22.22
-16.44
-10.66
-5.28
-0.47
3.78
7.51
10.72
13.34
15.24
16.40
16.85
16.73
16.27
15.70
15.25
15.12
15.36
15.94
16.68
17.36
17.76
17.78
17.44
16.84
16.03
15.03
13.81
12.35
10.68
8.87
6.95
4.91
2.70
0.32
-2.11
-4.35
-6.13
-7.32
-8.10
-8.85
-10.09
-12.23
-15.46
-19.60
-24.23
-28.78
-32.70
-35.50
-36.87
-36.60
-34.62
-30.98
-25.92
-19.85
-13.42
-7.30
-2.04
2.15
5.42
8.12
10.56
12.80
14.68
15.91
16.41
16.37
16.16
16.20
16.67
17.50
18.43
19.18
19.57
19.60
19.35
18.90
18.35
17.75
17.19
16.73
16.36
15.95
15.24
13.92
11.73
8.58
4.66
0.35
-3.90
-7.72
-10.93
-13.58
-15.91
-18.24
-20.85
-23.98
-27.78
-32.31
-37.55
-43.36
-49.47
-55.48
-60.93
-65.42
-68.58
-70.17
-70.04
-68.24
-64.94
-60.60
-55.82
-51.25
-47.47
-44.83
-43.43
-43.11
-43.57
-44.33
-44.82
-44.33
-42.12
-37.58
-30.40
-20.68
-8.89
4.28
18.13
32.01
45.41
57.95
69.26
78.96
86.73
92.33
95.67
96.84
96.08
93.67
89.89
84.98
79.17
72.77
66.09
59.46
53.06
46.94
41.00
35.11
29.23
23.48
18.03
13.00
8.28
3.59
-1.42
-7.01
-13.15
-19.51
-25.52
-30.51
-33.90
-35.31
-34.62
-31.93
-27.48
-21.64
-14.86
-7.67
-0.60
5.82
11.18
15.20
17.79
19.04
19.22
18.73
18.06
17.62
17.70
18.30
19.22
20.16
20.89
21.35
21.59
21.69
21.64
21.41
20.92
20.20
19.30
18.28
17.07
15.50
13.42
10.73
7.51
3.97
0.40
-3.01
-6.16
-9.13
-12.08
-15.24
-18.82
-22.91
-27.41
-32.05
-36.37
-39.86
-41.97
-42.23
-40.29
-36.02
-29.58
-21.56
-12.83
-4.39
2.91
8.65
12.83
15.71
17.53
18.41
18.37
17.49
16.06
14.65
13.88
14.13
15.36
17.14
18.82
19.85
20.05
19.53
18.62
17.59
16.58
15.47
14.07
12.20
9.79
6.94
3.84
0.63
-2.62
-5.97
-9.57
-13.57
-18.06
-23.01
-28.25
-33.44
-38.17
-41.93
-44.24
-44.66
-42.89
-38.83
-32.68
-24.89
-16.14
-7.25
1.03
8.14
13.82
18.10
21.22
23.43
24.98
25.96
26.42
26.48
26.25
25.93
25.67
25.54
25.55
25.63
25.80
26.07
26.47
26.88
27.08
26.77
25.74
23.90
21.36
18.29
14.83
11.06
7.04
2.94
-0.99
-4.50
-7.46
-9.95
-12.24
-14.78
-17.92
-21.88
-26.59
-31.80
-37.03
-41.73
-45.28
-47.07
-46.64
-43.76
-38.46
-31.13
-22.49
-13.42
-4.79
2.75
8.92
13.74
17.52
20.51
22.87
24.64
25.89
26.76
27.50
28.34
29.36
30.44
31.34
31.84
31.89
31.68
31.51
31.55
31.79
31.98
31.80
31.07
29.79
28.15
26.28
24.22
21.82
18.90
15.42
11.53
7.53
3.71
0.25
-2.80
-5.46
-7.73
-9.63
-11.29
-13.00
-15.15
-18.09
-21.97
-26.69
-31.93
-37.30
-42.33
-46.56
-49.38
-50.23
-48.72
-44.81
-38.87
-31.60
-23.74
-15.94
-8.61
-2.01
3.75
8.59
12.52
15.64
18.06
19.93
21.38
22.51
23.44
24.34
25.32
26.45
27.64
28.75
29.67
30.41
31.07
31.74
32.36
32.77
32.69
31.96
30.60
28.84
26.94
25.04
23.03
20.66
17.69
14.07
10.00
5.81
1.86
-1.71
-4.91
-7.88
-10.71
-13.39
-15.85
-18.10
-20.33
-22.87
-26.08
-30.12
-34.85
-39.79
-44.27
-47.61
-49.24
-48.80
-46.14
-41.36
-34.74
-26.79
-18.20
-9.72
-2.10
4.13
8.74
11.88
13.89
15.21
16.19
17.02
17.76
18.39
18.91
19.36
19.84
20.40
21.11
21.98
23.01
24.19
25.39
26.41
26.92
26.58
25.17
22.73
19.55
16.12
12.94
10.32
8.33
6.77
5.30
3.58
1.45
-1.10
-3.92
-6.87
-9.83
-12.74
-15.65
-18.68
-21.97
-25.63
-29.72
-34.04
-38.20
-41.62
-43.60
-43.59
-41.24
-36.60
-29.99
-22.06
-13.59
-5.41
1.71
7.14
10.63
12.29
12.67
12.50
12.46
12.90
13.79
14.83
15.67
16.19
16.43
16.63
16.86
17.09
17.17
17.01
16.67
16.31
16.03
15.71
15.10
13.91
12.03
9.61
6.90
4.15
1.46
-1.22
-3.94
-6.68
-9.35
-11.87
-14.26
-16.69
-19.46
-22.80
-26.78
-31.22
-35.71
-39.67
-42.44
-43.40
-42.13
-38.51
-32.79
-25.53
-17.52
-9.55
-2.32
3.77
8.58
12.20
14.82
16.64
17.78
18.37
18.57
18.66
18.87
19.34
20.03
20.76
21.30
21.56
21.67
21.84
22.30
23.01
23.72
24.01
23.52
22.13
20.02
17.62
15.35
13.45
11.90
10.47
8.89
7.01
4.87
2.62
0.42
-1.70
-3.81
-6.03
-8.36
-10.69
-12.93
-15.01
-17.05
-19.32
-22.12
-25.65
-29.89
-34.58
-39.20
-43.12
-45.72
-46.51
-45.22
-41.85
-36.60
-29.90
-22.29
-14.44
-7.02
-0.58
4.57
8.40
11.06
12.80
13.84
14.38
14.67
15.03
15.74
16.97
18.60
20.28
21.64
22.47
22.83
22.97
23.14
23.44
23.78
24.01
24.01
23.77
23.33
22.68
21.69
20.17
18.03
15.33
12.38
9.55
7.22
5.50
4.29
3.23
1.87
-0.16
-3.03
-6.59
-10.43
-14.01
-17.03
-19.48
-21.72
-24.24
-27.41
-31.24
-35.33
-39.07
-41.93
-43.69
-44.33
-43.89
-42.20
-38.90
-33.72
-26.70
-18.48
-10.13
-2.78
2.86
6.74
9.35
11.40
13.34
15.22
16.77
17.66
17.81
17.48
17.12
17.15
17.74
18.79
20.03
21.18
22.13
22.90
23.54
24.05
24.26
23.96
22.98
21.30
19.14
16.86
14.78
13.04
11.60
10.24
8.72
6.89
4.74
2.38
-0.07
-2.53
-5.00
-7.50
-10.05
-12.63
-15.19
-17.73
-20.33
-23.08
-26.12
-29.53
-33.21
-36.92
-40.18
-42.39
-42.96
-41.53
-37.99
-32.59
-25.88
-18.56
-11.33
-4.77
0.77
5.18
8.54
11.04
12.86
14.17
15.05
15.58
15.81
15.83
15.71
15.52
15.31
15.15
15.13
15.35
15.85
16.54
17.25
17.71
17.73
17.27
16.43
15.32
14.07
12.68
11.13
9.40
7.49
5.42
3.14
0.61
-2.23
-5.33
-8.50
-11.53
-14.26
-16.78
-19.39
-22.49
-26.26
-30.60
-35.04
-38.97
-41.79
-43.11
-42.76
-40.66
-36.86
-31.49
-24.83
-17.42
-9.96
-3.23
2.22
6.16
8.77
10.42
11.54
12.30
12.72
12.66
12.10
11.19
10.31
9.86
10.10
11.02
12.38
13.82
15.05
15.84
16.16
15.98
15.29
14.05
12.27
10.01
7.42
4.72
2.07
-0.38
-2.66
-4.92
-7.37
-10.27
-13.77
-17.90
-22.52
-27.42
-32.29
-36.86
-40.85
-43.92
-45.65
-45.61
-43.40
-38.90
-32.35
-24.38
-15.89
-7.80
-0.84
4.63
8.59
11.37
13.35
14.93
16.34
17.65
18.81
19.75
20.39
20.71
20.77
20.68
20.62
20.81
21.36
22.32
23.53
24.64
25.29
25.20
24.28
22.68
20.66
18.44
16.14
13.75
11.21
8.51
5.67
2.79
-0.03
-2.70
-5.16
-7.47
-9.77
-12.32
-15.37
-19.14
-23.69
-28.88
-34.43
-39.94
-44.93
-48.95
-51.51
-52.13
-50.47
-46.44
-40.16
-32.14
-23.12
-13.97
-5.50
1.73
7.46
11.81
15.12
17.78
20.00
21.80
23.06
23.79
24.15
24.49
25.15
26.33
27.95
29.70
31.20
32.12
32.31
31.79
30.71
29.38
28.15
27.27
26.73
26.21
25.11
22.86
19.24
14.61
9.82
5.83
3.18
1.70
0.49
-1.66
-5.69
-11.71
-18.89
-25.83
-31.22
-34.63
-36.77
-39.23
-43.69
-51.02
-60.84
-71.67
-81.55
-88.75
-91.89
-89.96
-82.38
-69.79
-55.24
-44.07
-42.50
-54.37
-78.49
-107.93
-132.61
-143.50
-136.58
-114.02
-82.35
-48.85
-18.38
7.49
29.38
48.12
63.60
74.95
81.56
83.84
83.16
81.15
78.96
76.93
74.65
71.36
66.43
59.73
51.91
43.99
37.08
31.74
27.45
22.94
16.62
7.41
-4.73
-18.88
-33.62
-47.67
-60.30
-71.32
-80.76
-88.64
-94.83
-99.25
-102.00
-103.46
-103.92
-103.32
-101.05
-96.06
-87.32
-74.33
-57.47
-37.93
-17.43
2.34
20.10
35.15
47.33
56.86
64.15
69.68
73.98
77.45
80.47
83.24
85.85
88.13
89.76
90.34
89.62
87.66
84.96
82.31
80.53
79.98
80.37
80.72
79.78
76.56
70.78
62.91
53.90
44.66
35.65
26.81
17.83
8.54
-0.72
-9.13
-15.67
-19.59
-20.75
-19.63
-17.11
-14.04
-10.98
-8.13
-5.42
-2.61
0.59
4.54
9.68
16.35
24.65
34.30
44.63
54.70
63.54
70.28
74.18
74.61
71.11
63.55
52.33
38.50
23.72
9.85
-1.39
-8.87
-12.16
-11.69
-8.47
-3.99
0.10
2.43
2.22
-0.59
-5.43
-11.56
-18.27
-25.24
-32.24
-39.01
-45.12
-49.96
-53.15
-54.74
-55.15
-55.01
-54.67
-53.95
-52.22
-48.72
-42.91
-34.75
-24.72
-13.59
-2.27
8.44
17.98
26.10
32.85
38.46
43.12
46.90
49.60
50.98
50.85
49.32
46.83
43.99
41.42
39.55
38.51
38.14
38.15
38.20
38.06
37.58
36.70
35.39
33.61
31.27
28.34
24.85
20.93
16.81
12.76
9.09
5.98
3.48
1.38
-0.76
-3.54
-7.43
-12.61
-18.78
-25.17
-30.71
-34.30
-35.13
-32.80
-27.45
-19.70
-10.51
-0.93
8.06
15.83
22.25
27.69
32.93
38.87
46.12
54.73
63.97
72.49
78.81
81.88
81.49
78.37
73.82
69.16
65.22
62.24
60.07
58.44
57.28
56.55
56.08
55.38
53.72
50.43
45.27
38.61
31.28
24.16
17.79
12.29
7.39
2.76
-1.79
-6.28
-10.66
-14.99
-19.54
-24.66
-30.71
-37.86
-46.06
-54.91
-63.68
-71.35
-76.82
-79.16
-77.95
-73.38
-66.19
-57.37
-47.93
-38.69
-30.28
-23.15
-17.52
-13.34
-10.25
-7.69
-5.15
-2.36
0.58
3.31
5.48
6.92
7.72
8.16
8.58
9.23
10.24
11.62
13.24
14.95
16.56
17.84
18.66
18.92
18.51
17.41
15.60
13.23
10.55
7.91
5.49
3.28
1.03
-1.67
-5.02
-8.97
-13.14
-17.12
-20.56
-23.40
-25.79
-27.98
-30.25
-32.85
-36.06
-40.07
-44.87
-49.96
-54.44
-57.14
-57.10
-53.88
-47.78
-39.57
-30.23
-20.64
-11.43
-3.00
4.35
10.50
15.51
19.65
23.23
26.51
29.57
32.21
34.25
35.54
36.18
36.49
36.89
37.69
39.00
40.56
41.73
41.59
39.30
34.32
26.76
17.31
7.03
-3.04
-12.15
-19.89
-26.11
-30.70
-33.53
-34.57
-34.04
-32.40
-30.27
-28.21
-26.63
-25.69
-25.55
-26.37
-28.30
-31.28
-34.94
-38.65
-41.71
-43.60
-44.00
-42.79
-39.87
-35.09
-28.36
-19.91
-10.49
-1.26
6.45
11.57
13.70
13.11
10.52
6.74
2.45
-1.94
-6.12
-9.81
-12.68
-14.39
-14.76
-13.84
-11.94
-9.50
-6.96
-4.68
-2.94
-1.90
-1.68
-2.32
-3.81
-6.08
-8.99
-12.39
-16.06
-19.64
-22.68
-24.77
-25.70
-25.64
-25.15
-25.13
-26.42
-29.50
-34.21
-39.77
-44.96
-48.48
-49.28
-46.77
-40.90
-32.20
-21.73
-11.02
-1.86
4.16
6.06
3.86
-1.41
-8.01
-14.14
-18.43
-20.30
-19.82
-17.47
-13.79
-9.27
-4.36
0.51
4.82
8.17
10.41
11.73
12.57
13.47
14.73
16.35
18.01
19.25
19.73
19.39
18.50
17.58
17.10
17.29
17.89
18.22
17.36
14.50
9.26
1.81
-7.19
-16.95
-26.70
-35.93
-44.22
-51.22
-56.39
-59.10
-58.79
-55.15
-48.41
-39.27
-28.80
-18.14
-8.40
-0.41
5.26
8.45
9.46
9.05
8.38
8.72
11.09
15.92
22.79
30.47
37.24
41.50
42.30
39.61
34.35
27.97
21.91
17.16
13.97
11.97
10.47
8.89
6.91
4.54
1.99
-0.55
-2.98
-5.25
-7.36
-9.33
-11.26
-13.35
-15.99
-19.55
-24.28
-30.12
-36.56
-42.74
-47.60
-50.14
-49.66
-45.89
-39.04
-29.69
-18.74
-7.16
4.06
14.12
22.48
28.94
33.66
37.05
39.55
41.52
43.10
44.26
44.94
45.16
45.03
44.74
44.51
44.52
44.94
45.86
47.31
48.96
50.10
49.69
46.71
40.56
31.42
20.21
8.36
-2.68
-11.85
-18.69
-23.30
-26.08
-27.62
-28.45
-29.07
-30.01
-31.69
-34.41
-38.09
-42.30
-46.20
-48.88
-49.57
-47.92
-44.08
-38.64
-32.39
-26.05
-20.11
-14.84
-10.24
-6.25
-2.74
0.34
2.97
5.06
6.50
7.18
7.10
6.39
5.24
3.94
2.75
1.90
1.46
1.40
1.54
1.62
1.33
0.43
-1.08
-3.02
-5.06
-6.86
-8.27
-9.31
-10.26
-11.43
-13.14
-15.57
-18.82
-22.78
-27.19
-31.50
-34.98
-36.80
-36.31
-33.21
-27.68
-20.42
-12.31
-4.33
2.77
8.51
12.77
15.67
17.50
18.56
19.01
18.90
18.24
17.12
15.78
14.56
13.72
13.33
13.24
13.27
13.29
13.34
13.51
13.76
13.87
13.50
12.33
10.25
7.37
3.97
0.37
-3.18
-6.52
-9.61
-12.59
-15.70
-19.31
-23.62
-28.53
-33.43
-37.32
-39.12
-38.12
-34.23
-28.00
-20.45
-12.59
-5.21
1.28
6.83
11.46
15.22
18.14
20.24
21.63
22.50
23.10
23.70
24.47
25.43
26.42
27.22
27.53
27.30
26.58
25.69
24.89
24.39
24.13
23.91
23.38
22.26
20.41
17.84
14.66
11.06
7.22
3.29
-0.62
-4.44
-8.14
-11.60
-14.71
-17.35
-19.46
-21.06
-22.29
-23.38
-24.68
-26.58
-29.35
-33.06
-37.49
-42.12
-46.20
-48.94
-49.71
-48.16
-44.35
-38.63
-31.59
-23.90
-16.18
-8.87
-2.20
3.85
9.35
14.35
18.74
22.34
24.96
26.54
27.26
27.41
27.35
27.30
27.35
27.45
27.52
27.54
27.59
27.80
28.28
29.05
30.02
31.00
31.76
32.09
31.78
30.71
28.90
26.46
23.65
20.68
17.69
14.69
11.59
8.32
4.89
1.47
-1.73
-4.51
-6.83
-8.76
-10.56
-12.48
-14.79
-17.71
-21.37
-25.81
-30.87
-36.20
-41.31
-45.63
-48.62
-49.93
-49.31
-46.69
-42.11
-35.73
-27.93
-19.28
-10.47
-2.18
5.09
11.14
16.04
19.98
23.19
25.74
27.59
28.67
29.02
28.87
28.59
28.58
29.08
30.07
31.35
32.56
33.41
33.78
33.72
33.33
32.65
31.63
30.16
28.18
25.79
23.22
20.71
18.38
16.19
14.05
11.88
9.70
7.57
5.47
3.23
0.56
-2.80
-6.86
-11.31
-15.59
-19.16
-21.76
-23.56
-25.14
-27.21
-30.31
-34.54
-39.52
-44.40
-48.26
-50.25
-49.81
-46.81
-41.47
-34.33
-26.10
-17.57
-9.46
-2.38
3.34
7.61
10.64
12.71
14.15
15.19
15.94
16.51
16.94
17.28
17.58
17.77
17.71
17.38
16.94
16.73
17.15
18.42
20.45
22.79
24.77
25.83
25.65
24.23
21.84
18.85
15.65
12.50
9.59
6.94
4.46
2.01
-0.52
-3.20
-5.95
-8.68
-11.33
-14.00
-16.94
-20.49
-24.80
-29.77
-34.89
-39.36
-42.33
-43.15
-41.62
-37.91
-32.49
-25.90
-18.66
-11.19
-3.85
3.03
9.13
14.17
17.95
20.37
21.44
21.29
20.20
18.59
16.92
15.56
14.79
14.65
15.00
15.63
16.32
16.86
17.09
16.90
16.24
15.08
13.49
11.47
9.04
6.21
3.07
-0.17
-3.25
-5.89
-7.97
-9.65
-11.29
-13.28
-15.96
-19.43
-23.60
-28.23
-32.93
-37.27
-40.66
-42.55
-42.42
-40.00
-35.35
-28.89
-21.31
-13.40
-5.89
0.77
6.40
11.10
15.03
18.27
20.77
22.37
22.98
22.73
21.94
21.04
20.34
19.90
19.66
19.51
19.44
19.56
20.03
20.82
21.69
22.26
22.19
21.25
19.47
17.06
14.35
11.61
9.08
6.75
4.46
1.90
-1.24
-5.05
-9.36
-13.74
-17.79
-21.31
-24.43
-27.53
-31.01
-34.99
-39.27
-43.39
-46.80
-48.98
-49.46
-47.87
-43.93
-37.57
-29.15
-19.45
-9.60
-0.74
6.37
11.50
14.97
17.32
19.06
20.41
21.35
21.81
21.83
21.74
21.90
22.61
23.82
25.19
26.29
26.87
27.05
27.26
27.92
29.13
30.51
31.34
30.96
29.10
25.98
22.16
18.18
14.40
10.90
7.60
4.39
1.23
-1.90
-5.02
-8.12
-11.14
-13.96
-16.48
-18.73
-20.88
-23.25
-26.20
-29.89
-34.27
-39.09
-43.93
-48.27
-51.51
-53.00
-52.24
-48.96
-43.27
-35.67
-26.92
-17.85
-9.17
-1.37
5.32
10.89
15.42
18.96
21.56
23.21
23.99
24.16
24.09
24.08
24.32
24.77
25.23
25.49
25.51
25.43
25.40
25.55
25.77
25.88
25.64
24.96
23.89
22.61
21.30
20.06
18.95
17.83
16.49
14.67
12.27
9.40
6.35
3.49
0.99
-1.22
-3.42
-5.79
-8.35
-10.87
-13.17
-15.34
-17.92
-21.61
-26.91
-33.70
-41.11
-47.79
-52.38
-54.00
-52.39
-47.91
-41.29
-33.32
-24.76
-16.23
-8.23
-1.13
4.87
9.79
13.73
16.88
19.41
21.38
22.83
23.71
24.08
24.03
23.76
23.52
23.54
23.96
24.82
26.01
27.34
28.58
29.44
29.71
29.26
28.06
26.25
24.09
21.84
19.70
17.70
15.71
13.52
10.94
7.86
4.33
0.51
-3.36
-7.02
-10.29
-13.12
-15.60
-18.00
-20.60
-23.65
-27.26
-31.41
-35.90
-40.40
-44.39
-47.18
-48.06
-46.41
-42.02
-35.15
-26.56
-17.27
-8.30
-0.47
5.80
10.40
13.55
15.57
16.80
17.48
17.75
17.64
17.18
16.46
15.62
14.86
14.30
14.03
14.11
14.58
15.46
16.68
17.95
18.85
18.99
18.04
15.97
12.94
9.27
5.29
1.31
-2.44
-5.77
-8.55
-10.81
-12.66
-14.38
-16.31
-18.84
-22.31
-26.91
-32.52
-38.58
-44.16
-48.13
-49.52
-47.82
-43.14
-36.16
-27.80
-18.96
-10.29
-2.20
5.06
11.24
16.10
19.46
21.33
21.98
21.85
21.47
21.24
21.34
21.67
22.06
22.39
22.70
23.17
23.97
25.13
26.54
27.92
28.96
29.43
29.19
28.18
26.40
23.91
20.85
17.42
13.81
10.22
6.73
3.40
0.24
-2.82
-5.89
-9.09
-12.48
-16.04
-19.64
-23.25
-27.01
-31.24
-36.26
-42.19
-48.67
-54.87
-59.69
-62.09
-61.46
-57.70
-51.15
-42.45
-32.43
-22.02
-12.08
-3.34
3.81
9.40
13.68
17.01
19.55
21.28
22.10
22.12
21.66
21.27
21.38
22.16
23.43
24.76
25.80
26.39
26.59
26.60
26.57
26.50
26.22
25.37
23.55
20.49
16.17
10.96
5.50
0.52
-3.46
-6.34
-8.60
-11.37
-16.31
-25.27
-39.58
-59.18
-82.13
-104.68
-122.24
-130.82
-128.32
-115.14
-93.83
-68.12
-41.76
-17.78
1.86
16.19
25.12
29.28
29.94
28.85
27.91
28.72
32.26
38.61
46.84
55.26
61.90
65.16
64.39
60.21
54.24
48.45
44.27
42.03
40.73
38.66
34.15
26.57
16.69
6.43
-1.99
-7.06
-8.65
-8.08
-7.39
-8.31
-11.49
-16.26
-20.92
-23.36
-21.49
-13.57
1.45
23.42
50.12
77.04
98.00
107.03
100.69
79.82
49.36
16.56
-11.89
-32.04
-43.47
-48.15
-48.78
-47.32
-44.69
-41.40
-38.25
-36.55
-37.61
-41.90
-48.52
-55.39
-59.98
-60.27
-55.40
-45.87
-33.25
-19.50
-6.40
4.92
14.12
21.45
27.47
32.74
37.56
41.97
45.85
49.08
51.61
53.44
54.44
54.29
52.46
48.49
42.26
34.16
25.05
16.01
8.02
1.69
-2.84
-5.70
-7.29
-8.02
-8.38
-8.79
-9.59
-11.01
-13.14
-15.90
-19.16
-22.70
-26.25
-29.53
-32.37
-34.77
-37.01
-39.58
-43.03
-47.74
-53.85
-61.13
-69.22
-77.64
-86.12
-94.59
-103.20
-112.19
-121.58
-131.03
-139.70
-146.40
-149.90
-149.19
-143.74
-133.59
-119.39
-102.13
-83.04
-63.22
-43.43
-23.93
-4.62
14.69
33.91
52.53
69.73
84.71
97.03
106.57
113.37
117.42
118.60
116.94
112.86
107.34
101.70
97.12
94.19
92.68
91.72
90.23
87.34
82.71
76.52
69.30
61.71
54.29
47.36
40.96
34.94
28.99
22.78
16.06
8.70
0.80
-7.31
-15.20
-22.33
-28.21
-32.49
-34.92
-35.34
-33.62
-29.75
-23.91
-16.58
-8.54
-0.70
6.12
11.42
15.10
17.38
18.56
18.91
18.61
17.86
16.96
16.37
16.51
17.47
18.93
20.29
21.03
20.98
20.50
20.15
20.35
21.05
21.72
21.68
20.43
17.93
14.47
10.54
6.50
2.57
-1.15
-4.67
-8.02
-11.36
-14.92
-19.04
-23.88
-29.34
-34.93
-39.87
-43.22
-44.14
-42.12
-37.15
-29.67
-20.54
-10.73
-1.07
7.87
15.85
22.78
28.59
33.10
36.11
37.56
37.65
36.84
35.62
34.34
33.12
31.85
30.40
28.76
27.08
25.67
24.77
24.53
24.89
25.56
26.16
26.32
25.75
24.34
22.16
19.39
16.36
13.30
10.34
7.43
4.45
1.27
-2.19
-6.00
-10.24
-14.97
-20.18
-25.55
-30.45
-33.97
-35.22
-33.63
-29.27
-22.77
-15.10
-7.18
0.44
7.61
14.44
21.05
27.39
33.18
38.01
41.68
44.18
45.81
47.09
48.54
