1520871211.00
64.000000
-0.00
-0.00
-0.00
-0.00
-0.00
-0.00
-0.00
-0.00
-0.00
-0.00
0.00
0.01
0.01
-0.00
-0.03
-0.05
-0.05
0.00
0.13
0.36
0.66
1.01
1.37
1.72
2.06
2.40
2.79
3.24
3.80
4.42
5.06
5.66
6.20
6.68
7.15
7.68
8.31
9.14
10.09
11.04
11.88
12.56
13.14
13.76
14.65
15.96
17.91
20.32
22.90
25.38
27.58
29.57
31.68
34.32
37.81
42.54
48.15
54.10
59.83
64.97
69.58
74.14
79.34
85.71
93.76
103.00
112.62
121.73
129.77
136.75
143.30
150.75
157.77
166.64
177.95
191.79
206.97
220.57
228.25
225.36
208.53
176.87
132.76
80.05
23.07
-34.94
-92.44
-149.16
-205.23
-260.37
-313.74
-363.88
-409.84
-450.91
-486.50
-515.73
-537.22
-549.20
-549.92
-538.31
-514.12
-478.56
-433.72
-382.25
-326.77
-269.54
-212.27
-156.23
-102.46
-51.82
-5.28
36.27
72.19
102.19
126.42
145.38
159.79
170.34
177.67
182.17
184.12
183.76
181.36
177.27
171.90
165.65
158.87
151.82
144.62
137.36
130.07
122.81
115.63
108.61
101.81
95.30
89.10
83.22
77.69
72.51
67.68
63.23
59.16
55.47
52.15
49.21
46.63
44.41
42.55
41.06
39.93
39.15
38.71
38.57
38.67
38.91
39.17
39.28
39.06
38.33
36.93
34.73
31.65
27.70
22.91
17.42
11.44
5.21
-0.99
-6.89
-12.23
-16.81
-20.47
-23.15
-24.81
-25.52
-25.38
-24.53
-23.10
-21.26
-19.13
-16.83
-14.42
-11.97
-9.51
-7.07
-4.67
-2.30
0.07
2.45
4.87
7.37
9.98
12.69
15.48
18.35
21.31
24.38
27.58
30.93
34.50
38.33
42.35
46.50
50.76
55.13
59.62
64.26
69.09
74.19
79.65
85.31
91.09
96.94
102.82
108.72
114.62
120.53
126.47
132.49
138.32
143.71
148.47
152.33
155.03
156.18
155.28
151.58
146.47
140.43
133.78
126.72
119.40
111.96
104.49
97.12
89.99
83.30
76.91
70.76
64.85
59.21
53.88
48.90
44.32
40.21
36.63
33.43
30.48
27.73
25.11
22.62
20.22
17.93
15.74
13.71
11.74
9.77
7.82
5.92
4.10
2.40
0.81
-0.69
-2.09
-3.47
-4.85
-6.20
-7.45
-8.57
-9.51
-10.31
-11.02
-11.72
-12.50
-13.38
-14.31
-15.20
-15.98
-16.65
-17.37
-18.34
-19.83
-21.98
-24.81
-28.11
-31.55
-34.87
-37.95
-40.96
-44.32
-48.49
-53.78
-60.18
-67.34
-74.63
-81.53
-87.83
-93.80
-100.14
-107.64
-116.90
-127.98
-140.38
-153.33
-166.01
-178.06
-189.60
-201.26
-214.02
-229.01
-247.32
-269.57
-295.30
-322.47
-347.43
-365.68
-373.28
-368.30
-351.61
-326.48
-297.27
-267.81
-240.30
-215.25
-192.13
-170.34
-149.70
-130.53
-113.22
-97.86
-84.18
-71.68
-59.95
-48.87
-38.65
-29.79
-22.72
-17.69
-14.49
-12.52
-10.98
-9.20
-6.92
-4.38
-2.24
-1.22
-1.81
-4.11
-7.74
-12.00
-15.98
-18.71
-19.34
-17.28
-12.35
-4.91
4.25
14.05
23.50
31.89
38.87
44.42
48.60
51.46
53.00
53.25
52.38
50.67
48.60
46.61
45.03
44.01
43.48
43.29
43.20
43.04
42.76
42.36
41.89
41.38
40.80
40.03
38.98
37.55
35.66
33.19
30.06
26.23
21.86
17.28
12.92
9.08
5.82
2.84
-0.33
-4.15
-8.82
-14.25
-20.00
-25.42
-29.68
-31.95
-31.60
-28.36
-22.47
-14.65
-5.90
2.76
10.57
17.14
22.42
26.57
29.75
32.09
33.58
34.24
34.18
33.66
33.00
32.51
32.32
32.36
32.42
32.28
31.92
31.45
31.08
30.91
30.82
30.55
29.78
28.35
26.24
23.49
20.21
16.44
12.32
8.04
3.91
0.17
-3.06
-5.86
-8.55
-11.52
-15.18
-19.72
-25.08
-30.78
-35.93
-39.39
-40.10
-37.45
-31.53
-23.20
-13.73
-4.40
3.94
10.92
16.59
21.12
24.58
26.96
28.26
28.60
28.32
27.86
27.62
27.78
28.32
29.07
29.78
30.29
30.57
30.71
30.81
30.93
31.01
30.89
30.34
29.12
27.08
24.13
20.35
15.91
11.12
6.27
1.62
-2.67
-6.63
-10.45
-14.36
-18.55
-23.01
-27.51
-31.55
-34.49
-35.66
-34.62
-31.23
-25.78
-18.87
-11.32
-3.91
2.74
8.25
12.48
15.47
17.26
17.95
17.58
16.38
14.60
12.70
11.12
10.18
9.99
10.43
11.29
12.35
13.52
14.76
16.03
17.21
18.02
18.21
17.58
16.10
13.90
11.22
8.27
5.24
2.25
-0.66
-3.58
-6.72
-10.35
-14.70
-19.75
-25.07
-29.81
-32.89
-33.34
-30.62
-24.89
-16.95
-8.01
0.74
8.44
14.74
19.68
23.46
26.23
27.99
28.70
28.43
27.47
26.22
25.10
24.32
23.82
23.39
22.82
22.08
21.21
20.36
19.57
18.75
17.73
16.37
14.62
12.50
10.02
7.18
4.01
0.69
-2.54
-5.42
-7.95
-10.42
-13.43
-17.53
-22.97
-29.39
-35.80
-40.90
-43.52
-42.99
-39.38
-33.34
-25.85
-17.91
-10.20
-3.08
3.37
9.22
14.41
18.77
22.03
24.01
24.69
24.35
23.48
22.59
22.09
22.13
22.61
23.22
23.61
23.58
23.08
22.29
21.36
20.40
19.32
17.95
16.07
13.62
10.71
7.61
4.53
1.71
-0.78
-2.94
-4.84
-6.67
-8.74
-11.41
-15.05
-19.78
-25.30
-30.89
-35.55
-38.28
-38.41
-35.83
-30.95
-24.58
-17.58
-10.65
-4.15
1.83
7.32
12.33
16.71
20.23
22.67
23.98
24.36
24.16
23.80
23.60
23.68
24.05
24.60
25.24
25.90
26.46
26.76
26.59
25.82
24.40
22.48
20.29
18.11
16.07
14.22
12.43
10.55
8.47
6.16
3.70
1.20
-1.18
-3.42
-5.46
-7.40
-9.40
-11.67
-14.50
-18.11
-22.47
-27.16
-31.37
-34.11
-34.46
-31.99
-26.92
-19.98
-12.21
-4.62
2.12
7.68
12.06
15.45
18.05
20.01
21.45
22.39
22.85
22.87
22.59
22.20
21.91
21.93
22.32
22.96
23.67
24.23
24.46
24.30
23.78
22.97
21.92
20.67
19.16
17.39
15.31
12.97
10.41
7.76
5.07
2.39
-0.30
-3.04
-5.85
-8.82
-11.99
-15.51
-19.47
-23.84
-28.30
-32.24
-34.85
-35.33
-33.28
-28.80
-22.48
-15.20
-7.82
-0.99
5.00
9.98
13.91
16.73
18.44
19.11
18.98
18.44
17.87
17.57
17.64
18.09
18.81
19.66
20.54
21.28
21.75
21.81
21.40
20.52
19.24
17.67
15.86
13.89
11.77
9.53
7.17
4.69
2.07
-0.69
-3.52
-6.32
-8.98
-11.45
-13.78
-16.12
-18.69
-21.71
-25.38
-29.74
-34.58
-39.39
-43.40
-45.70
-45.52
-42.53
-37.00
-29.75
-21.81
-14.13
-7.29
-1.49
3.34
7.31
10.46
12.75
14.19
14.90
15.09
15.02
14.90
14.86
14.96
15.26
15.87
16.82
17.98
19.16
20.09
20.58
20.61
20.22
19.49
18.48
17.16
15.62
14.01
12.55
11.44
10.71
10.14
9.45
8.33
6.63
4.44
1.98
-0.50
-2.84
-5.06
-7.29
-9.78
-12.76
-16.39
-20.69
-25.53
-30.58
-35.31
-39.04
-41.08
-40.97
-38.57
-34.19
-28.54
-22.47
-16.69
-11.62
-7.28
-3.54
-0.26
2.51
4.58
5.79
6.15
5.98
5.77
5.97
6.79
8.10
9.56
10.85
11.86
12.73
13.75
15.09
16.68
18.19
19.25
19.61
19.29
18.55
17.72
16.99
16.36
15.68
14.74
13.38
11.54
9.27
6.65
3.84
1.03
-1.63
-4.05
-6.26
-8.39
-10.70
-13.43
-16.77
-20.77
-25.20
-29.60
-33.23
-35.35
-35.39
-33.17
-28.92
-23.22
-16.79
-10.33
-4.35
0.84
5.04
8.22
10.41
11.79
12.57
12.97
13.21
13.42
13.72
14.19
14.84
15.66
16.48
17.18
17.60
17.69
17.46
17.00
16.38
15.68
14.90
14.00
12.90
11.55
9.91
8.01
5.92
3.77
1.69
-0.26
-2.12
-4.02
-6.12
-8.57
-11.43
-14.70
-18.40
-22.43
-26.59
-30.48
-33.46
-34.84
-34.05
-30.92
-25.80
-19.43
-12.72
-6.43
-0.99
3.54
7.26
10.34
12.82
14.72
16.07
16.92
17.45
17.79
18.08
18.32
18.50
18.59
18.59
18.57
18.61
18.76
18.95
19.06
18.84
18.16
16.99
15.44
13.70
11.93
10.20
8.45
6.63
4.71
2.78
0.96
-0.71
-2.25
-3.76
-5.29
-6.84
-8.31
-9.68
-11.08
-12.83
-15.35
-18.88
-23.34
-28.18
-32.61
-35.72
-36.85
-35.80
-32.79
-28.43
-23.37
-18.14
-13.06
-8.26
-3.83
0.13
3.47
6.09
7.98
9.29
10.21
10.91
11.50
11.98
12.40
12.78
13.15
13.50
13.83
14.05
14.13
14.10
14.02
13.94
13.80
13.51
12.95
12.09
11.02
9.89
8.83
7.85
6.80
5.49
3.74
1.57
-0.79
-3.04
-4.91
-6.33
-7.49
-8.74
-10.46
-12.90
-16.13
-20.05
-24.45
-28.92
-32.91
-35.79
-36.94
-35.96
-32.90
-28.18
-22.52
-16.72
-11.34
-6.70
-2.90
0.12
2.48
4.33
5.82
7.07
8.11
8.88
9.24
9.11
8.57
7.89
7.41
7.48
8.22
9.52
11.03
12.37
13.16
13.23
12.60
11.45
10.07
8.67
7.32
5.94
4.34
2.29
-0.30
-3.41
-6.86
-10.37
-13.69
-16.62
-19.10
-21.17
-22.96
-24.69
-26.62
-29.00
-31.93
-35.22
-38.37
-40.56
-40.97
-38.97
-34.47
-27.93
-20.21
-12.33
-5.12
0.91
5.62
9.15
11.74
13.62
14.93
15.72
16.04
15.94
15.58
15.22
15.06
15.28
15.84
16.63
17.44
18.15
18.75
19.30
19.85
20.33
20.54
20.24
19.27
17.60
15.36
12.74
9.91
6.93
3.80
0.49
-2.98
-6.55
-10.14
-13.72
-17.35
-21.12
-25.06
-29.04
-32.68
-35.42
-36.68
-36.02
-33.34
-28.85
-23.03
-16.43
-9.63
-3.07
2.90
8.08
12.36
15.69
18.07
19.52
20.17
20.21
19.93
19.66
19.70
20.20
21.16
22.38
23.54
24.34
24.62
24.36
23.67
22.69
21.52
20.21
18.78
17.18
15.40
13.38
11.06
8.40
5.38
2.04
-1.49
-5.09
-8.64
-12.04
-15.24
-18.33
-21.49
-24.99
-29.08
-33.77
-38.69
-43.06
-45.77
-45.90
-42.98
-37.28
-29.70
-21.44
-13.54
-6.64
-0.86
4.02
8.23
11.91
15.02
17.46
19.20
20.33
20.97
21.33
21.59
21.83
22.09
22.35
22.54
22.57
22.38
21.96
21.36
20.69
20.01
19.31
18.47
17.35
15.88
14.08
12.04
9.91
7.76
5.53
3.12
0.42
-2.65
-6.05
-9.71
-13.57
-17.70
-22.28
-27.42
-33.01
-38.49
-42.92
-45.19
-44.46
-40.44
-33.58
-24.91
-15.63
-6.86
0.69
6.69
11.10
14.01
15.59
16.06
15.70
14.86
13.89
13.03
12.39
11.93
11.56
11.27
11.11
11.22
11.72
12.61
13.70
14.69
15.20
15.05
14.25
13.02
11.63
10.27
8.95
7.51
5.77
3.57
0.95
-1.92
-4.80
-7.53
-10.05
-12.50
-15.13
-18.27
-22.17
-26.87
-32.15
-37.37
-41.65
-44.01
-43.69
-40.38
-34.30
-26.23
-17.17
-8.15
0.05
7.06
12.86
17.57
21.33
24.16
25.98
26.72
26.44
25.40
24.01
22.75
21.94
21.68
21.84
22.08
22.09
21.64
20.72
19.50
18.18
16.92
15.66
14.17
12.19
9.61
6.52
3.23
0.13
-2.53
-4.73
-6.69
-8.77
-11.30
-14.48
-18.37
-22.86
-27.64
-32.24
-36.00
-38.18
-38.10
-35.41
-30.18
-22.92
-14.44
-5.66
2.67
10.08
16.38
21.56
25.61
28.54
30.29
30.90
30.51
29.44
28.08
26.83
25.92
25.38
25.10
24.91
24.66
24.32
23.91
23.48
23.06
22.53
21.70
20.36
18.32
15.51
12.07
8.26
4.42
0.89
-2.22
-4.98
-7.66
-10.56
-13.94
-17.91
-22.46
-27.44
-32.59
-37.52
-41.65
-44.31
-44.81
-42.76
-38.12
-31.38
-23.38
-15.07
-7.25
-0.40
5.35
10.13
14.07
17.27
19.73
21.43
22.38
22.67
22.46
21.95
21.36
20.93
20.87
21.29
22.18
23.33
24.38
25.01
25.03
24.44
23.38
22.01
20.40
18.59
16.54
14.27
11.82
9.25
6.63
3.93
1.12
-1.80
-4.85
-7.96
-11.08
-14.20
-17.39
-20.87
-24.87
-29.52
-34.68
-39.75
-43.80
-45.76
-44.86
-40.92
-34.45
-26.44
-18.03
-10.16
-3.28
2.44
7.11
10.80
13.57
15.45
16.53
17.00
17.13
17.20
17.39
17.76
18.26
18.70
18.97
19.02
18.93
18.86
18.96
19.28
19.63
19.75
19.32
18.21
16.52
14.59
12.81
11.42
10.38
9.43
8.21
6.35
3.75
0.56
-2.91
-6.33
-9.47
-12.31
-15.03
-17.89
-21.20
-25.13
-29.62
-34.33
-38.63
-41.71
-42.78
-41.30
-37.14
-30.72
-22.87
-14.59
-6.73
0.23
6.18
11.29
15.64
19.20
21.79
23.26
23.65
23.22
22.42
21.63
21.11
20.87
20.81
20.82
20.82
20.82
20.81
20.77
20.57
20.05
19.02
17.40
15.23
12.67
9.96
7.30
4.76
2.29
-0.21
-2.85
-5.58
-8.28
-10.82
-13.10
-15.21
-17.41
-20.00
-23.20
-26.96
-30.83
-33.97
-35.46
-34.49
-30.76
-24.59
-16.83
-8.53
-0.60
6.41
12.30
17.12
20.99
23.95
26.01
27.17
27.56
27.39
26.96
26.52
26.22
26.08
26.00
25.84
25.56
25.15
24.66
24.14
23.54
22.72
21.50
19.71
17.33
14.49
11.43
8.44
5.75
3.36
1.15
-1.12
-3.70
-6.56
-9.52
-12.28
-14.62
-16.55
-18.34
-20.47
-23.41
-27.45
-32.50
-38.04
-43.14
-46.72
-47.76
-45.69
-40.58
-33.05
-24.21
-15.14
-6.73
0.54
6.52
11.27
14.94
17.70
19.76
21.28
22.41
23.17
23.51
23.37
22.76
21.81
20.76
19.81
19.17
18.87
18.92
19.23
19.68
20.14
20.36
20.05
18.99
17.09
14.51
11.58
8.74
6.29
4.34
2.74
1.21
-0.52
-2.50
-4.63
-6.65
-8.40
-9.88
-11.38
-13.29
-16.06
-19.95
-24.88
-30.40
-35.71
-39.83
-41.86
-41.29
-38.07
-32.71
-26.03
-18.93
-12.19
-6.24
-1.29
2.67
5.66
7.75
9.03
9.72
10.09
10.48
11.05
11.85
12.76
13.59
14.27
14.81
15.31
15.89
16.51
17.06
17.33
17.17
16.52
15.44
14.06
12.52
10.92
9.25
7.46
5.50
3.31
0.90
-1.62
-4.11
-6.44
-8.52
-10.36
-12.07
-13.90
-16.17
-19.23
-23.26
-28.23
-33.66
-38.72
-42.39
-43.76
-42.31
-38.10
-31.71
-24.06
-16.13
-8.71
-2.22
3.27
7.90
11.87
15.26
17.99
19.95
21.04
21.38
21.26
21.05
21.06
21.40
22.03
22.76
23.44
23.91
24.11
23.95
23.35
22.28
20.75
18.88
16.78
14.53
12.11
9.44
6.52
3.42
0.36
-2.48
-5.02
-7.37
-9.76
-12.47
-15.65
-19.40
-23.75
-28.64
-33.92
-39.15
-43.60
-46.38
-46.68
-44.13
-38.92
-31.78
-23.64
-15.34
-7.43
-0.14
6.43
12.17
16.91
20.44
22.72
23.88
24.21
24.12
23.90
23.73
23.62
23.49
23.28
22.94
22.52
22.02
21.48
20.84
20.07
19.19
18.29
17.48
16.79
16.19
15.58
14.82
13.76
12.25
10.17
7.37
3.86
-0.17
-4.38
-8.39
-11.94
-15.10
-18.22
-21.77
-26.12
-31.31
-36.97
-42.40
-46.70
-49.06
-48.95
-46.22
-41.14
-34.31
-26.52
-18.52
-10.94
-4.22
1.40
5.85
9.14
11.41
12.90
13.89
14.65
15.36
16.07
16.71
17.18
17.39
17.38
17.31
17.45
17.99
18.98
20.21
21.35
21.98
21.85
20.89
19.23
17.12
14.78
12.48
10.39
8.64
7.21
5.95
4.64
3.01
0.90
-1.69
-4.62
-7.67
-10.63
-13.39
-15.98
-18.55
-21.37
-24.76
-28.93
-33.84
-39.06
-43.78
-46.94
-47.55
-45.08
-39.67
-32.05
-23.34
-14.66
-6.79
-0.13
5.28
9.54
12.78
15.08
16.53
17.31
17.61
17.63
17.51
17.29
16.98
16.64
16.38
16.28
16.39
16.64
16.91
17.06
16.98
16.61
15.85
14.73
13.25
11.50
9.60
7.65
5.68
3.66
1.50
-0.86
-3.39
-5.99
-8.52
-10.86
-12.99
-15.00
-17.13
-19.70
-23.03
-27.18
-31.80
-36.08
-38.97
-39.51
-37.24
-32.30
-25.40
-17.46
-9.31
-1.55
5.43
11.40
16.13
19.48
21.44
22.20
22.13
21.66
21.16
20.83
20.72
20.79
20.99
21.34
21.88
22.62
23.51
24.35
24.89
24.93
24.37
23.27
21.81
20.15
18.34
16.37
14.10
11.48
8.47
5.13
1.60
-1.95
-5.29
-8.27
-10.73
-12.71
-14.36
-16.01
-18.12
-21.17
-25.46
-30.96
-37.12
-42.93
-47.16
-48.72
-47.04
-42.31
-35.32
-27.22
-19.10
-11.65
-5.15
0.47
5.33
9.47
12.84
15.39
17.16
18.28
18.97
19.40
19.68
19.88
20.02
20.13
20.24
20.35
20.43
20.45
20.35
20.05
19.47
18.54
17.26
15.73
14.14
12.70
11.58
10.76
10.08
9.26
8.01
6.18
3.74
0.77
-2.54
-5.95
-9.24
-12.19
-14.75
-17.07
-19.60
-22.89
-27.35
-32.99
-39.18
-44.79
-48.45
-49.12
-46.38
-40.61
-32.78
-24.02
-15.40
-7.62
-1.01
4.32
8.47
11.55
13.72
15.12
15.88
16.07
15.83
15.28
14.67
14.22
14.11
14.34
14.82
15.37
15.87
16.26
16.55
16.71
16.68
16.29
15.39
13.92
11.94
9.59
7.03
4.37
1.63
-1.17
-3.97
-6.67
-9.07
-11.09
-12.76
-14.31
-16.11
-18.54
-21.86
-26.10
-30.93
-35.68
-39.45
-41.28
-40.47
-36.78
-30.56
-22.67
-14.14
-5.96
1.23
7.17
11.84
15.39
17.94
19.58
20.40
20.56
20.24
19.65
19.01
18.46
18.13
18.08
18.30
18.79
19.47
20.26
20.99
21.53
21.69
21.36
20.49
19.16
17.45
15.48
13.29
10.89
8.25
5.39
2.35
-0.78
-3.93
-6.99
-9.97
-12.85
-15.76
-18.91
-22.63
-27.23
-32.79
-39.00
-45.07
-49.82
-52.08
-51.08
-46.69
-39.51
-30.60
-21.13
-12.05
-3.93
3.00
8.75
13.34
16.78
19.14
20.57
21.34
21.74
21.98
22.16
22.24
22.18
21.99
21.80
21.76
22.02
22.53
23.08
23.36
23.06
22.02
20.25
17.96
15.47
13.08
11.00
9.19
7.46
5.54
3.20
0.40
-2.75
-6.03
-9.24
-12.29
-15.19
-18.09
-21.20
-24.76
-28.98
-33.86
-39.08
-43.94
-47.44
-48.53
-46.51
-41.28
-33.45
-24.15
-14.61
-5.91
1.37
7.07
11.41
14.64
16.99
18.59
19.47
19.73
19.56
19.27
19.12
19.30
19.79
20.48
21.18
21.80
22.30
22.72
23.02
23.14
22.91
22.20
20.98
19.34
17.39
15.22
12.80
10.03
6.84
3.28
-0.43
-4.12
-7.61
-10.94
-14.23
-17.62
-21.27
-25.29
-29.77
-34.74
-40.04
-45.15
-49.20
-51.13
-50.09
-45.76
-38.54
-29.45
-19.72
-10.44
-2.29
4.52
10.10
14.61
18.14
20.75
22.44
23.29
23.55
23.54
23.56
23.84
24.40
25.14
25.88
26.51
26.93
27.14
27.07
26.63
25.73
24.36
22.62
20.69
18.72
16.68
14.43
11.73
8.43
4.58
0.40
-3.85
-8.02
-12.12
-16.26
-20.53
-25.02
-29.67
-34.36
-38.92
-42.99
-46.03
-47.33
-46.16
-42.11
-35.28
-26.43
-16.67
-7.15
1.26
8.17
13.58
17.70
20.74
22.80
23.94
24.26
23.97
23.35
22.74
22.38
22.41
22.84
23.61
24.60
25.65
26.56
27.11
27.10
26.40
25.01
23.09
20.84
18.49
16.20
14.01
11.85
9.68
7.37
4.84
2.02
-1.13
-4.60
-8.26
-11.91
-15.37
-18.55
-21.61
-24.93
-29.00
-34.12
-40.14
-46.35
-51.59
-54.61
-54.43
-50.77
-44.08
-35.33
-25.79
-16.51
-8.13
-0.90
5.26
10.48
14.78
18.13
20.48
21.90
22.65
23.04
23.36
23.72
24.15
24.54
24.87
25.21
25.70
26.42
27.36
28.35
29.10
29.24
28.49
26.69
23.92
20.43
16.66
13.01
9.75
6.93
4.38
1.82
-0.95
-4.02
-7.30
-10.59
-13.67
-16.44
-18.94
-21.35
-24.03
-27.34
-31.55
-36.68
-42.30
-47.58
-51.42
-52.69
-50.65
-45.18
-36.85
-26.75
-16.15
-6.16
2.48
9.47
14.91
19.04
22.13
24.34
25.76
26.44
26.47
26.02
25.35
24.77
24.50
24.59
24.94
25.31
25.40
24.98
24.00
22.50
20.65
18.67
16.69
14.80
12.88
10.78
8.34
5.51
2.42
-0.68
-3.57
-6.08
-8.28
-10.38
-12.69
-15.54
-19.21
-23.94
-29.75
-36.36
-43.07
-48.77
-52.18
-52.15
-48.15
-40.42
-30.01
-18.42
-7.18
2.61
10.49
16.58
21.27
24.97
27.85
29.89
30.96
31.07
30.49
29.63
28.89
28.48
28.37
28.36
28.22
27.84
27.23
26.49
25.62
24.56
23.14
21.22
18.81
16.07
13.30
10.80
8.75
7.05
5.42
3.49
0.96
-2.20
-5.82
-9.57
-13.18
-16.58
-19.94
-23.63
-28.10
-33.64
-40.27
-47.51
-54.49
-59.97
-62.70
-61.81
-57.07
-49.08
-39.05
-28.41
-18.37
-9.60
-2.22
4.01
9.37
13.98
17.75
20.55
22.37
23.37
23.88
24.23
24.58
24.96
25.30
25.62
25.98
26.53
27.27
27.98
28.26
27.71
26.14
23.70
20.78
17.83
15.15
12.72
10.35
7.75
4.76
1.36
-2.40
-6.39
-10.53
-14.71
-18.84
-22.83
-26.72
-30.72
-35.18
-40.39
-46.30
-52.28
-57.22
-59.77
-58.84
-53.96
-45.59
-34.80
-23.05
-11.68
-1.63
6.66
13.17
18.19
22.03
24.93
26.96
28.09
28.32
27.81
26.91
26.12
25.82
26.18
27.05
28.02
28.64
28.62
27.88
26.57
24.88
22.91
20.70
18.17
15.31
12.10
8.69
5.21
1.79
-1.50
-4.65
-7.75
-10.89
-14.21
-17.90
-22.18
-27.29
-33.28
-39.84
-46.21
-51.21
-53.59
-52.39
-47.31
-38.90
-28.37
-17.18
-6.61
2.62
10.30
16.62
21.86
26.16
29.49
31.75
32.88
32.93
32.07
30.61
28.90
27.28
26.04
25.31
25.11
25.29
25.56
25.64
25.37
24.67
23.61
22.27
20.70
18.90
16.81
14.37
11.49
8.14
4.37
0.30
-3.87
-7.92
-11.67
-15.10
-18.32
-21.55
-25.09
-29.31
-34.43
-40.47
-47.14
-53.68
-58.95
-61.72
-60.98
-56.37
-48.32
-37.91
-26.59
-15.67
-6.05
1.97
8.51
13.88
18.32
21.94
24.73
26.70
28.00
28.84
29.51
30.14
30.76
31.29
31.67
31.99
32.37
32.88
33.40
33.59
33.03
31.43
28.78
25.38
21.75
18.28
15.20
12.47
9.81
6.88
3.47
-0.48
-4.76
-9.05
-12.98
-16.39
-19.31
-22.02
-24.93
-28.44
-32.87
-38.29
-44.41
-50.52
-55.50
-58.04
-57.01
-51.97
-43.28
-32.13
-20.10
-8.66
1.21
9.12
15.12
19.52
22.66
24.81
26.16
26.88
27.11
27.04
26.87
26.82
27.05
27.58
28.24
28.71
28.73
28.22
27.33
26.33
25.41
24.54
23.47
21.79
19.21
15.65
11.29
6.53
1.83
-2.42
-6.05
-9.11
-11.83
-14.61
-17.82
-21.78
-26.69
-32.50
-38.83
-44.93
-49.72
-51.99
-50.80
-45.80
-37.48
-26.98
-15.74
-5.08
4.21
11.99
18.42
23.77
28.10
31.29
33.15
33.68
33.14
31.97
30.71
29.75
29.29
29.36
29.86
30.66
31.56
32.30
32.62
32.32
31.31
29.65
27.45
24.85
21.93
18.72
15.22
11.43
7.34
2.91
-1.86
-6.82
-11.73
-16.20
-19.91
-22.73
-24.88
-26.86
-29.38
-33.13
-38.51
-45.44
-53.24
-60.76
-66.49
-69.01
-67.42
-61.59
-52.24
-40.65
-28.31
-16.42
-5.79
3.26
10.74
16.77
21.46
24.95
27.35
28.86
29.69
30.04
30.07
29.87
29.51
29.08
28.71
28.55
28.76
29.34
30.22
31.10
31.66
31.54
30.52
28.61
26.07
23.27
20.57
18.11
15.77
13.24
10.16
6.37
2.00
-2.59
-6.91
-10.66
-13.75
-16.47
-19.32
-22.83
-27.48
-33.47
-40.59
-48.16
-55.01
-59.77
-61.20
-58.64
-52.23
-42.90
-32.09
-21.23
-11.40
-3.09
3.73
9.33
13.96
17.76
20.72
22.75
23.89
24.23
24.04
23.60
23.20
23.05
23.22
23.71
24.49
25.50
26.62
27.71
28.51
28.68
27.89
26.06
23.39
20.32
17.38
14.82
12.60
10.38
7.73
4.48
0.74
-3.12
-6.70
-9.77
-12.38
-14.77
-17.31
-20.34
-24.17
-29.02
-34.91
-41.55
-48.15
-53.57
-56.50
-55.95
-51.61
-43.96
-34.19
-23.70
-13.71
-4.94
2.44
8.56
13.65
17.80
20.96
23.05
24.05
24.12
23.54
22.70
21.96
21.60
21.68
22.13
22.68
23.07
23.10
22.72
22.01
21.07
19.92
18.45
16.49
13.92
10.78
7.27
3.69
0.34
-2.63
-5.19
-7.51
-9.78
-12.24
-15.09
-18.52
-22.70
-27.70
-33.39
-39.35
-44.77
-48.63
-49.89
-47.79
-42.14
-33.42
-22.65
-11.16
-0.17
9.44
17.27
23.32
27.80
30.86
32.57
32.91
31.94
29.96
27.53
25.33
23.88
23.41
23.73
24.41
24.97
24.98
24.28
22.94
21.16
19.22
17.35
15.63
13.94
12.06
9.72
6.78
3.37
-0.27
-3.86
-7.22
-10.33
-13.32
-16.29
-19.35
-22.58
-26.16
-30.34
-35.28
-40.90
-46.63
-51.46
-54.13
-53.62
-49.51
-42.18
-32.67
-22.31
-12.32
-3.50
3.82
9.70
14.28
17.72
20.07
21.43
21.96
21.98
21.85
21.84
22.05
22.40
22.71
22.87
22.89
22.88
22.95
23.13
23.31
23.24
22.71
21.62
20.02
18.03
15.79
13.41
10.89
8.25
5.47
2.54
-0.55
-3.81
-7.26
-10.91
-14.75
-18.80
-23.18
-28.07
-33.59
-39.62
-45.66
-50.78
-53.87
-53.99
-50.67
-44.11
-35.08
-24.77
-14.37
-4.90
2.98
9.00
13.23
15.94
17.55
18.44
18.87
18.96
18.72
18.20
17.53
17.00
16.87
17.29
18.16
19.16
19.85
19.93
19.37
18.35
17.17
15.99
14.72
13.10
10.85
7.88
4.37
0.73
-2.60
-5.35
-7.56
-9.56
-11.76
-14.57
-18.20
-22.73
-28.06
-33.97
-40.08
-45.76
-50.10
-52.08
-50.88
-46.23
-38.56
-28.95
-18.82
-9.40
-1.48
4.75
9.53
13.24
16.15
18.32
19.68
20.18
19.92
19.20
18.43
17.99
18.13
18.87
19.98
21.15
22.09
22.60
22.59
22.06
21.09
19.72
18.01
15.94
13.45
10.52
7.19
3.65
0.10
-3.20
-6.16
-8.84
-11.51
-14.54
-18.26
-22.90
-28.49
-34.71
-40.95
-46.29
-49.66
-50.14
-47.20
-40.99
-32.29
-22.32
-12.37
-3.43
4.03
10.00
14.71
18.40
21.23
23.17
24.20
24.37
23.86
22.96
22.02
21.37
21.24
21.67
22.48
23.36
23.91
23.86
23.13
21.88
20.36
18.75
17.07
15.16
12.79
9.87
6.51
2.94
-0.54
-3.77
-6.75
-9.60
-12.46
-15.48
-18.80
-22.60
-27.04
-32.18
-37.79
-43.20
-47.40
-49.24
-47.91
-43.30
-36.06
-27.39
-18.60
-10.61
-3.77
2.01
7.04
11.53
15.45
18.62
20.94
22.44
23.29
23.73
23.91
23.86
23.56
23.01
22.29
21.56
20.98
20.62
20.48
20.46
20.37
20.03
19.22
17.80
15.68
12.92
9.68
6.24
2.86
-0.26
-3.11
-5.81
-8.58
-11.61
-15.03
-18.96
-23.46
-28.55
-34.11
-39.74
-44.75
-48.21
-49.22
-47.18
-42.05
-34.43
-25.39
-16.11
-7.58
-0.31
5.64
10.47
14.42
17.59
19.94
21.43
22.15
22.43
22.61
22.98
23.60
24.25
24.62
24.48
23.82
22.85
21.87
21.06
20.42
19.67
18.43
16.34
13.32
9.57
5.56
1.81
-1.34
-3.76
-5.70
-7.57
-9.84
-12.87
-16.85
-21.71
-27.13
-32.53
-37.07
-39.82
-40.00
-37.18
-31.56
-23.91
-15.29
-6.75
0.99
7.66
13.25
17.88
21.54
24.12
25.50
25.70
24.99
23.71
22.23
20.77
19.44
18.30
17.39
16.83
16.66
16.77
16.94
16.87
16.36
15.38
14.06
12.55
10.90
8.98
6.62
3.73
0.44
-2.96
-6.14
-8.91
-11.32
-13.63
-16.16
-19.17
-22.78
-27.00
-31.80
-37.02
-42.31
-47.04
-50.32
-51.21
-49.05
-43.72
-35.80
-26.36
-16.61
-7.55
0.31
6.90
12.40
17.00
20.74
23.49
25.11
25.65
25.38
24.74
24.17
23.94
24.04
24.27
24.39
24.31
24.05
23.79
23.67
23.71
23.83
23.79
23.40
22.48
21.06
19.28
17.38
15.58
13.94
12.36
10.61
8.45
5.77
2.64
-0.67
-3.88
-6.76
-9.26
-11.54
-13.89
-16.65
-20.09
-24.42
-29.58
-35.30
-40.95
-45.70
-48.58
-48.85
-46.17
-40.77
-33.41
-25.09
-16.81
-9.27
-2.75
2.72
7.34
11.30
14.74
17.68
20.13
22.05
23.42
24.27
24.65
24.67
24.45
24.17
23.91
23.77
23.73
23.74
23.68
23.36
22.63
21.36
19.54
17.34
14.99
12.68
10.49
8.34
6.07
3.61
0.96
-1.73
-4.28
-6.59
-8.68
-10.70
-12.84
-15.35
-18.47
-22.40
-27.16
-32.48
-37.71
-41.86
-43.89
-43.09
-39.33
-33.12
-25.43
-17.26
-9.40
-2.24
4.12
9.73
14.60
18.65
21.79
23.99
25.39
26.26
26.81
27.21
27.47
27.57
27.48
27.26
26.96
26.63
26.25
25.72
24.93
23.77
22.19
20.24
18.01
15.60
13.09
10.53
7.91
5.18
2.29
-0.77
-3.91
-6.98
-9.81
-12.34
-14.65
-16.95
-19.46
-22.44
-26.08
-30.44
-35.39
-40.56
-45.24
-48.55
-49.61
-47.86
-43.30
-36.50
-28.39
-19.99
-12.06
-4.96
1.22
6.53
11.03
14.68
17.37
19.07
19.85
19.94
19.68
19.39
19.29
19.46
19.79
20.12
20.34
20.45
20.55
20.73
20.96
21.06
20.74
19.73
17.95
15.53
12.78
10.07
7.64
5.58
3.77
2.02
0.17
-1.81
-3.81
-5.62
-7.08
-8.15
-8.99
-9.90
-11.24
-13.36
-16.52
-20.78
-25.96
-31.61
-36.94
-41.07
-43.20
-42.82
-39.95
-35.02
-28.81
-22.09
-15.49
-9.37
-3.85
1.12
5.59
9.59
13.12
16.08
18.38
19.90
20.60
20.55
19.95
19.10
18.32
17.88
17.92
18.46
19.36
20.35
21.10
21.26
20.59
19.05
16.85
14.28
11.74
9.43
7.39
5.46
3.41
1.11
-1.41
-4.03
-6.63
-9.19
-11.80
-14.57
-17.56
-20.78
-24.28
-28.15
-32.53
-37.30
-41.97
-45.65
-47.31
-46.11
-41.90
-35.26
-27.25
-19.06
-11.53
-5.03
0.44
5.06
8.99
12.26
14.79
16.52
17.46
17.76
17.63
17.42
17.45
17.95
18.90
20.08
21.11
21.64
21.54
20.91
20.00
19.12
18.42
17.89
17.33
16.49
15.18
13.30
10.89
8.08
5.04
1.92
-1.17
-4.15
-6.99
-9.74
-12.54
-15.65
-19.39
-23.99
-29.43
-35.20
-40.39
-43.92
-44.85
-42.80
-38.02
-31.28
-23.57
-15.78
-8.47
-1.92
3.77
8.53
12.31
15.09
16.95
18.04
18.59
18.77
18.70
18.41
18.00
17.58
17.31
17.35
17.77
18.52
19.45
20.35
20.98
21.18
20.83
19.89
18.43
16.59
14.53
12.39
10.20
7.91
5.41
2.58
-0.53
-3.82
-7.05
-10.03
-12.69
-15.14
-17.62
-20.48
-24.04
-28.48
-33.75
-39.37
-44.57
-48.33
-49.74
-48.31
-44.15
-37.90
-30.53
-22.95
-15.81
-9.40
-3.78
1.09
5.23
8.60
11.13
12.77
13.57
13.68
13.36
12.97
12.87
13.31
14.29
15.62
17.04
18.37
19.55
20.63
21.59
22.22
22.20
21.26
19.34
16.79
14.16
12.03
10.68
10.03
9.64
8.95
7.55
5.29
2.36
-0.88
-4.10
-7.11
-9.92
-12.74
-15.84
-19.43
-23.65
-28.47
-33.70
-38.94
-43.55
-46.74
-47.74
-46.06
-41.69
-35.16
-27.38
-19.32
-11.78
-5.20
0.31
4.82
8.47
11.36
13.58
15.21
16.33
17.08
17.59
17.97
18.34
18.76
19.25
19.78
20.29
20.69
20.89
20.81
20.42
19.73
18.78
17.61
16.24
14.59
12.56
10.09
7.20
4.09
0.99
-1.89
-4.48
-6.98
-9.64
-12.77
-16.45
-20.64
-25.10
-29.53
-33.63
-37.08
-39.47
-40.33
-39.10
-35.48
-29.52
-21.77
-13.11
-4.53
3.19
9.65
14.79
18.76
21.72
23.78
25.00
25.51
25.51
25.21
24.79
24.33
23.85
23.35
22.91
22.59
22.45
22.42
22.38
22.20
21.80
21.13
20.23
19.12
17.77
16.09
14.02
11.51
8.59
5.34
1.93
-1.47
-4.71
-7.70
-10.50
-13.27
-16.21
-19.53
-23.37
-27.79
-32.79
-38.21
-43.61
-48.23
-51.10
-51.25
-48.17
-41.98
-33.55
-24.13
-14.94
-6.86
-0.15
5.33
9.92
13.88
17.24
19.90
21.71
22.72
23.09
23.14
23.12
23.16
23.25
23.32
23.32
23.31
23.41
23.69
24.11
24.46
24.48
23.92
22.69
20.86
18.59
16.14
13.70
11.35
9.03
6.56
3.72
0.39
-3.34
-7.22
-10.90
-14.11
-16.80
-19.17
-21.66
-24.78
-28.85
-33.92
-39.57
-44.98
-49.03
-50.67
-49.24
-44.71
-37.74
-29.41
-20.86
-12.90
-5.92
0.06
5.16
9.45
12.83
15.17
16.45
16.93
17.04
17.25
17.81
18.65
19.49
20.00
20.07
19.84
19.64
19.76
20.31
21.11
21.79
22.01
21.56
20.45
18.82
16.90
14.87
12.87
10.89
8.79
6.38
3.47
-0.02
-3.93
-7.98
-11.78
-15.05
-17.70
-19.90
-21.99
-24.47
-27.75
-31.93
-36.79
-41.63
-45.40
-47.06
-45.84
-41.54
-34.61
-25.99
-16.78
-7.98
-0.24
6.16
11.22
15.11
18.03
20.10
21.40
21.95
21.81
21.11
20.09
19.10
18.49
18.50
19.22
20.48
21.93
23.16
23.84
23.78
23.03
21.72
20.10
18.33
16.54
14.76
12.90
10.84
8.50
5.80
2.76
-0.53
-3.90
-7.21
-10.34
-13.23
-15.94
-18.64
-21.60
-25.10
-29.24
-33.72
-37.81
-40.45
-40.63
-37.75
-31.90
-23.83
-14.71
-5.64
2.58
9.58
15.31
19.86
23.32
25.71
27.07
27.52
27.30
26.72
26.11
25.72
25.68
25.93
26.33
26.68
26.83
26.75
26.43
25.92
25.22
24.28
23.04
21.52
19.82
18.06
16.28
14.34
12.00
9.03
5.38
1.26
-2.98
-6.95
-10.43
-13.41
-16.04
-18.59
-21.34
-24.56
-28.51
-33.27
-38.60
-43.84
-47.91
-49.60
-48.04
-43.06
-35.27
-25.93
-16.48
-8.00
-1.03
4.47
8.86
12.51
15.54
17.88
19.44
20.22
20.39
20.26
20.02
19.82
19.64
19.47
19.39
19.53
20.06
21.05
22.39
23.78
24.81
25.10
24.42
22.84
20.66
18.30
16.14
14.25
12.46
10.42
7.84
4.70
1.22
-2.21
-5.33
-8.07
-10.57
-13.09
-15.85
-19.02
-22.72
-27.05
-32.07
-37.61
-43.24
-48.16
-51.36
-51.97
-49.51
-44.16
-36.62
-27.93
-19.14
-10.96
-3.76
2.47
7.82
12.41
16.25
19.25
21.33
22.42
22.57
21.91
20.67
19.13
17.60
16.36
15.61
15.42
15.71
16.23
16.70
16.85
16.47
15.58
14.25
12.64
10.94
9.27
7.70
6.19
4.62
2.87
0.81
-1.58
-4.20
-6.88
-9.40
-11.70
-13.86
-16.20
-19.17
-23.19
-28.36
-34.33
-40.27
-45.00
-47.41
-46.67
-42.63
-35.84
-27.32
-18.32
-9.85
-2.52
3.48
8.32
12.23
15.39
17.84
19.62
20.76
21.35
21.51
21.35
20.96
20.42
19.78
19.18
18.73
18.49
18.47
18.58
18.64
18.49
18.07
17.35
16.39
15.23
13.84
12.13
10.04
7.57
4.81
1.95
-0.84
-3.52
-6.18
-9.02
-12.31
-16.23
-20.83
-25.99
-31.38
-36.44
-40.43
-42.50
-41.97
-38.47
-32.20
-23.91
-14.63
-5.46
2.79
9.69
15.16
19.34
22.39
24.41
25.50
25.78
25.45
24.80
24.11
23.57
23.19
22.86
22.48
22.01
21.52
21.19
21.17
21.46
21.90
22.17
21.92
20.96
19.29
17.16
14.94
12.92
11.22
9.65
7.88
5.59
2.64
-0.84
-4.55
-8.15
-11.43
-14.35
-17.07
-19.83
-22.97
-26.76
-31.40
-36.81
-42.53
-47.74
-51.33
-52.32
-50.14
-44.91
-37.37
-28.64
-19.89
-12.01
-5.46
-0.29
3.71
6.85
9.36
11.37
12.94
14.11
14.96
15.64
16.33
17.15
18.12
19.09
19.88
20.33
20.45
20.42
20.52
20.94
21.64
22.32
22.60
22.13
20.82
18.87
16.66
14.52
12.53
10.54
8.26
5.43
2.04
-1.68
-5.37
-8.71
-11.59
-14.11
-16.53
-19.14
-22.18
-25.76
-29.87
-34.32
-38.72
-42.45
-44.77
-45.00
-42.71
-37.93
-31.16
-23.18
-14.95
-7.24
-0.53
4.99
9.38
12.81
15.49
17.49
18.87
19.63
19.88
19.76
19.58
19.62
20.08
20.98
22.12
23.20
23.93
24.12
23.72
22.74
21.31
19.57
17.67
15.76
13.85
11.86
9.64
7.07
4.17
1.16
-1.70
-4.20
-6.32
-8.22
-10.14
-12.33
-14.91
-17.95
-21.45
-25.31
-29.23
-32.67
-34.89
-35.21
-33.21
-28.91
-22.76
-15.58
-8.26
-1.54
4.13
8.60
12.00
14.57
16.47
17.85
18.73
19.18
19.37
19.58
20.00
20.74
21.69
22.62
23.33
23.76
24.02
24.22
24.42
24.46
24.09
23.08
21.34
18.99
16.29
13.53
10.94
8.56
6.30
4.01
1.52
-1.24
-4.26
-7.39
-10.51
-13.51
-16.35
-19.15
-22.07
-25.35
-29.20
-33.69
-38.63
-43.50
-47.45
-49.51
-48.90
-45.35
-39.21
-31.40
-23.07
-15.21
-8.41
-2.81
1.78
5.55
8.60
10.87
12.24
12.71
12.46
11.81
11.11
10.64
10.54
10.78
11.32
12.13
13.17
14.39
15.66
16.75
17.43
17.51
17.01
16.00
14.67
13.13
11.44
9.48
7.12
4.28
0.99
-2.57
-6.09
-9.26
-11.93
-14.08
-15.86
-17.53
-19.33
-21.52
-24.31
-27.78
-31.76
-35.77
-38.95
-40.36
-39.26
-35.42
-29.30
-21.84
-14.11
-6.95
-0.78
4.37
8.63
12.13
14.88
16.82
17.92
18.27
18.04
17.50
16.91
16.45
16.21
16.21
16.36
16.53
16.60
16.47
16.07
15.36
14.34
13.09
11.65
10.16
8.64
7.08
5.37
3.46
1.38
-0.74
-2.70
-4.43
-5.97
-7.59
-9.59
-12.24
-15.63
-19.69
-24.09
-28.29
-31.57
-33.15
-32.42
-29.17
-23.71
-16.80
-9.34
-2.08
4.51
10.29
15.20
19.13
21.90
23.40
23.70
23.09
22.01
20.85
19.93
19.40
19.30
19.59
20.12
20.66
20.97
20.86
20.32
19.52
18.66
17.90
17.20
16.35
15.12
13.38
11.20
8.79
6.36
4.05
1.76
-0.62
-3.22
-6.05
-9.07
-12.26
-15.73
-19.77
-24.60
-30.20
-36.11
-41.45
-45.09
-46.10
-44.07
-39.28
-32.55
-24.94
-17.41
-10.57
-4.62
0.49
4.90
8.67
11.75
14.02
15.37
15.79
15.38
14.36
13.05
11.83
11.02
10.84
11.27
12.14
13.12
13.92
14.39
14.52
14.38
14.02
13.36
12.22
10.45
8.04
5.16
2.07
-0.98
-3.86
-6.56
-9.14
-11.62
-13.99
-16.25
-18.56
-21.21
-24.50
-28.62
-33.42
-38.35
-42.62
-45.28
-45.57
-43.06
-37.83
-30.49
-21.94
-13.26
-5.33
1.30
6.52
10.50
13.55
15.91
17.69
18.85
19.33
19.16
18.52
17.67
16.90
16.43
16.40
16.81
17.61
18.70
19.88
20.92
21.55
21.53
20.75
19.26
17.19
14.75
12.04
9.09
5.89
2.49
-0.93
-4.15
-7.00
-9.52
-11.93
-14.56
-17.70
-21.43
-25.48
-29.29
-32.13
-33.25
-32.12
-28.59
-22.98
-15.96
-8.41
-1.09
5.49
11.11
15.74
19.41
22.07
23.61
24.01
23.37
21.95
20.12
18.23
16.53
15.22
14.33
13.86
13.70
13.76
13.89
13.99
14.01
13.90
13.53
12.74
11.35
9.28
6.71
3.96
1.40
-0.74
-2.45
-3.95
-5.54
-7.51
-10.05
-13.17
-16.80
-20.62
-24.14
-26.68
-27.58
-26.36
-22.93
-17.62
-11.12
-4.21
2.42
8.34
13.38
17.63
21.19
24.13
26.38
27.80
28.27
27.84
26.80
25.62
24.76
24.51
24.88
25.56
26.17
26.34
25.95
25.07
23.89
22.54
21.01
19.13
16.70
13.66
10.17
6.60
3.29
0.43
-2.02
-4.30
-6.67
-9.28
-12.18
-15.33
-18.74
-22.52
-26.78
-31.40
-35.96
-39.75
-41.94
-41.88
-39.32
-34.54
-28.21
-21.20
-14.27
-7.91
-2.34
2.49
6.65
10.19
13.02
15.03
16.11
16.29
15.75
14.77
13.68
12.73
12.09
11.84
11.99
12.49
13.27
14.12
14.83
15.13
14.85
14.02
12.78
11.36
9.94
8.52
6.97
5.14
2.97
0.58
-1.79
-3.89
-5.63
-7.17
-8.83
-11.02
-14.05
-18.04
-22.84
-27.98
-32.78
-36.46
-38.28
-37.79
-34.93
-30.03
-23.77
-16.95
-10.30
-4.29
0.88
5.23
8.86
11.90
14.38
16.30
17.62
18.38
18.63
18.49
18.07
17.46
16.77
16.10
15.58
15.27
15.18
15.22
15.27
15.16
14.74
13.91
12.57
10.67
8.31
5.66
3.04
0.73
-1.07
-2.43
-3.62
-5.02
-7.01
-9.81
-13.44
-17.70
-22.18
-26.35
-29.56
-31.21
-30.92
-28.59
-24.49
-19.23
-13.52
-7.97
-2.99
1.21
4.61
7.23
9.10
10.29
10.92
11.24
11.48
11.85
12.45
13.26
14.17
15.05
15.80
16.33
16.62
16.68
16.60
16.42
16.15
15.69
14.86
13.53
11.69
9.51
7.22
5.05
3.08
1.18
-0.89
-3.37
-6.43
-10.09
-14.26
-18.73
-23.11
-26.82
-29.21
-29.67
-27.91
-24.09
-18.81
-12.86
-7.03
-1.80
2.62
6.29
9.30
11.72
13.58
14.85
15.61
15.98
16.10
16.10
16.03
15.91
15.79
15.75
15.84
16.06
16.28
16.29
15.91
15.08
13.86
12.36
10.62
8.60
6.24
3.59
0.86
-1.67
-3.73
-5.29
-6.55
-7.85
-9.51
-11.66
-14.31
-17.40
-20.90
-24.74
-28.69
-32.26
-34.72
-35.39
-33.87
-30.28
-25.21
-19.48
-13.85
-8.84
-4.63
-1.19
1.52
3.57
4.98
5.85
6.30
6.51
6.62
6.70
6.82
6.99
7.29
7.73
8.30
8.91
9.42
9.68
9.62
9.25
8.65
7.92
7.11
6.18
5.02
3.58
1.80
-0.24
-2.40
-4.47
-6.28
-7.76
-9.03
-10.31
-11.91
-14.08
-16.90
-20.21
-23.60
-26.50
-28.28
-28.54
-27.12
-24.24
-20.31
-15.79
-11.06
-6.41
-2.03
1.90
5.17
7.65
9.35
10.45
11.22
11.89
12.50
12.93
13.02
12.68
11.98
11.13
10.36
9.82
9.55
9.49
9.53
9.57
9.45
9.00
8.01
6.33
3.91
0.96
-2.17
-5.04
-7.34
-8.98
-10.15
-11.23
-12.63
-14.68
-17.51
-20.99
-24.71
-28.00
-30.11
-30.33
-28.30
-24.19
-18.64
-12.60
-6.96
-2.29
1.28
3.95
6.00
7.72
9.20
10.45
11.48
12.33
13.05
13.71
14.30
14.82
15.20
15.43
15.47
15.33
14.98
14.45
13.76
13.01
12.24
11.45
10.48
9.18
7.37
5.08
2.50
-0.03
-2.26
-4.08
-5.69
-7.43
-9.66
-12.60
-16.20
-20.12
-23.81
-26.66
-28.10
-27.71
-25.38
-21.30
-15.96
-10.04
-4.17
1.13
5.66
9.37
12.36
14.69
16.34
17.34
17.71
17.66
17.40
17.19
17.10
17.11
17.02
16.65
15.92
14.89
13.74
12.65
11.75
11.01
10.29
9.38
8.11
6.47
4.53
2.49
0.54
-1.19
-2.66
-3.95
-5.21
-6.65
-8.41
-10.65
-13.46
-16.85
-20.79
-25.00
-29.04
-32.28
-34.04
-33.84
-31.54
-27.45
-22.20
-16.57
-11.21
-6.55
-2.72
0.32
2.77
4.77
6.46
7.93
9.19
10.23
11.03
11.62
12.02
12.30
12.51
12.71
12.93
13.16
13.35
13.42
13.28
12.92
12.36
11.74
11.16
10.68
10.19
9.52
8.49
7.04
5.27
3.40
1.62
-0.01
-1.56
-3.22
-5.13
-7.37
-9.94
-12.82
-15.97
-19.31
-22.63
-25.43
-27.07
-26.89
-24.53
-20.15
-14.46
-8.51
-3.25
0.79
3.64
5.70
7.43
9.07
10.54
11.59
12.09
12.10
11.90
11.78
11.87
12.10
12.29
12.29
12.07
11.69
11.22
10.73
10.28
9.91
9.65
9.46
9.15
8.42
7.03
4.92
2.27
-0.53
-3.09
-5.28
-7.16
-8.98
-10.96
-13.20
-15.70
-18.37
-21.20
-24.13
-27.06
-29.61
-31.23
-31.31
-29.40
-25.51
-20.10
-13.97
-7.94
-2.61
1.76
5.28
8.08
10.32
12.01
13.07
13.46
13.25
12.66
11.96
11.41
11.15
11.26
11.67
12.31
13.06
13.80
14.44
14.87
15.03
14.87
14.32
13.32
11.77
9.61
6.87
3.69
0.32
-2.88
-5.61
-7.65
-9.06
-10.10
-11.14
-12.57
-14.58
-17.12
-19.78
-21.95
-22.87
-22.03
-19.27
-14.95
-9.76
-4.50
0.24
4.21
7.46
10.13
12.37
14.17
15.42
16.10
16.30
16.19
16.01
15.92
16.00
16.23
16.56
16.92
17.20
17.28
17.04
16.44
15.51
14.36
13.18
12.12
11.23
10.44
9.52
8.20
6.27
3.72
0.81
-2.09
-4.62
-6.59
-8.16
-9.67
-11.57
-14.22
-17.74
-21.99
-26.55
-30.79
-33.96
-35.36
-34.47
-31.22
-26.06
-19.79
-13.37
-7.55
-2.76
1.00
3.87
6.09
7.77
9.00
9.87
10.57
11.34
12.31
13.54
14.87
16.10
17.06
17.62
17.86
17.85
17.75
17.58
17.39
17.10
16.65
15.96
14.99
13.69
12.06
10.17
8.09
5.87
3.58
1.26
-1.00
-3.11
-4.98
-6.60
-8.07
-9.58
-11.38
-13.65
-16.54
-20.03
-23.96
-27.99
-31.57
-34.03
-34.73
-33.33
-29.94
-25.09
-19.58
-14.15
-9.31
-5.25
-1.93
0.78
3.02
4.88
6.45
7.80
9.01
10.07
10.93
11.58
11.99
12.33
12.70
13.22
13.87
14.54
15.06
15.29
15.19
14.77
14.05
13.04
11.73
10.15
8.39
6.67
5.20
4.12
3.38
2.74
1.87
0.52
-1.37
-3.64
-6.07
-8.42
-10.61
-12.71
-14.87
-17.28
-20.07
-23.29
-26.78
-30.13
-32.76
-34.00
-33.31
-30.54
-25.93
-20.09
-13.75
-7.54
-1.95
2.73
6.37
8.96
10.66
11.71
12.43
13.04
13.53
13.81
13.72
13.26
12.67
12.28
12.37
12.98
13.89
14.73
15.16
15.05
14.48
13.68
12.82
11.92
10.84
9.42
7.55
5.31
2.90
0.52
-1.68
-3.64
-5.40
-6.96
-8.33
-9.50
-10.54
-11.62
-13.01
-14.95
-17.61
-20.94
-24.65
-28.22
-30.92
-32.04
-31.01
-27.68
-22.40
-15.93
-9.20
-2.98
2.30
6.58
10.06
12.93
15.26
17.05
18.20
18.76
18.89
18.81
18.74
18.80
18.95
19.14
19.27
19.38
19.57
19.94
20.46
21.00
21.25
20.95
19.94
18.27
16.15
13.88
11.71
9.81
8.20
6.77
5.37
3.84
2.04
-0.12
-2.56
-5.19
-7.82
-10.29
-12.58
-14.82
-17.30
-20.32
-24.10
-28.59
-33.48
-38.11
-41.66
-43.38
-42.74
-39.62
-34.43
-27.91
-20.90
-14.15
-8.12
-2.94
1.40
5.05
8.07
10.50
12.37
13.75
14.72
15.41
15.93
16.38
16.86
17.40
17.95
18.51
19.06
19.65
20.31
21.07
21.83
22.42
22.60
22.24
21.36
20.07
18.56
16.98
15.38
13.72
11.93
9.92
7.58
4.84
1.68
-1.84
-5.48
-8.96
-12.04
-14.66
-16.98
-19.33
-22.05
-25.38
-29.38
-33.82
-38.30
-42.23
-44.94
-45.84
-44.58
-41.08
-35.65
-28.84
-21.33
-13.77
-6.69
-0.44
4.82
9.06
12.34
14.75
16.41
17.44
17.93
18.02
17.89
17.73
17.70
17.85
18.14
18.50
18.87
19.25
19.70
20.18
20.57
20.67
20.22
19.06
17.21
14.89
12.47
10.31
8.65
7.46
6.43
5.12
3.12
0.27
-3.26
-7.00
-10.43
-13.23
-15.43
-17.33
-19.36
-21.85
-25.02
-28.87
-33.29
-38.05
-42.73
-46.67
-48.99
-48.88
-45.82
-39.87
-31.72
-22.41
-13.06
-4.51
2.80
8.80
13.55
17.17
19.69
21.14
21.62
21.33
20.54
19.58
18.68
18.05
17.77
17.90
18.42
19.30
20.42
21.62
22.62
23.12
22.88
21.82
20.06
17.91
15.71
13.66
11.70
9.61
7.09
4.02
0.50
-3.09
-6.38
-9.09
-11.20
-12.94
-14.67
-16.79
-19.61
-23.32
-27.92
-33.11
-38.24
-42.35
-44.45
-43.69
-39.76
-32.98
-24.25
-14.72
-5.53
2.62
9.44
14.95
19.34
22.70
25.08
26.49
27.01
26.84
26.30
25.73
25.38
25.35
25.53
25.69
25.67
25.41
25.02
24.63
24.32
24.00
23.40
22.25
20.36
17.80
14.90
12.10
9.78
8.11
6.97
5.99
4.72
2.81
0.14
-3.14
-6.71
-10.22
-13.44
-16.31
-18.91
-21.50
-24.37
-27.91
-32.41
-37.93
-44.13
-50.13
-54.74
-56.73
-55.31
-50.37
-42.55
-32.98
-22.86
-13.14
-4.42
3.06
9.26
14.20
17.88
20.37
21.82
22.47
22.64
22.66
22.76
23.09
23.60
24.21
24.78
25.21
25.53
25.81
26.17
26.71
27.36
27.94
28.17
27.77
26.55
24.50
21.78
18.69
15.57
12.68
10.15
7.93
5.83
3.59
1.05
-1.79
-4.82
-7.84
-10.76
-13.59
-16.46
-19.58
-23.14
-27.28
-32.09
-37.57
-43.47
-49.22
-53.88
-56.32
-55.59
-51.33
-43.91
-34.44
-24.33
-14.77
-6.51
0.32
5.94
10.65
14.60
17.75
20.00
21.31
21.83
21.84
21.57
21.23
20.88
20.54
20.28
20.20
20.44
21.12
22.22
23.63
25.10
26.34
27.04
27.02
26.16
24.58
22.52
20.29
18.12
16.08
14.09
11.88
9.25
6.10
2.52
-1.33
-5.24
-9.06
-12.68
-16.13
-19.54
-23.14
-27.29
-32.24
-38.03
-44.27
-50.09
-54.35
-55.95
-54.24
-49.21
-41.50
-32.14
-22.26
-12.74
-4.19
3.06
8.90
13.33
16.49
18.57
19.89
20.73
21.30
21.68
21.85
21.83
21.69
21.62
21.88
22.63
23.92
25.59
27.30
28.67
29.33
29.00
27.51
24.92
21.41
17.33
13.08
9.04
5.41
2.19
-0.77
-3.68
-6.65
-9.69
-12.63
-15.34
-17.75
-19.96
-22.26
-25.05
-28.68
-33.24
-38.42
-43.46
-47.27
-48.74
-47.10
-42.13
-34.30
-24.56
-14.07
-3.87
5.35
13.25
19.73
24.79
28.45
30.69
31.55
31.23
30.16
28.90
27.95
27.60
27.81
28.27
28.61
28.61
28.33
28.05
28.05
28.37
28.84
29.07
28.68
27.48
25.56
23.13
20.44
17.67
14.84
11.88
8.64
5.00
0.90
-3.63
-8.33
-12.89
-16.98
-20.39
-23.21
-25.77
-28.59
-32.13
-36.67
-42.15
-48.09
-53.62
-57.61
-58.99
-57.00
-51.48
-42.97
-32.52
-21.41
-10.72
-1.15
7.00
13.74
19.15
23.26
26.13
27.82
28.54
28.60
28.35
28.10
27.96
27.90
27.77
27.44
26.91
26.42
26.29
26.74
27.72
28.89
29.71
29.73
28.75
26.94
24.65
22.21
19.78
17.30
14.66
11.74
8.53
5.13
1.61
-1.95
-5.46
-8.88
-12.12
-15.18
-18.17
-21.39
-25.24
-30.08
-36.00
-42.74
-49.54
-55.32
-58.89
-59.31
-56.15
-49.67
-40.72
-30.49
-20.16
-10.65
-2.44
4.31
9.69
13.85
16.92
19.05
20.39
21.12
21.49
21.65
21.67
21.51
21.14
20.61
20.11
19.93
20.24
21.03
22.04
22.88
23.15
22.63
21.32
19.42
17.18
14.86
12.57
10.34
8.06
5.52
2.51
-1.06
-5.08
-9.24
-13.12
-16.39
-18.97
-21.05
-23.06
-25.50
-28.80
-33.20
-38.56
-44.35
-49.59
-53.12
-53.83
-51.08
-44.94
-36.18
-26.05
-15.91
-6.78
0.79
6.74
11.30
14.78
17.41
19.31
20.52
21.07
21.13
20.94
20.76
20.80
21.13
21.70
22.32
22.82
23.08
23.00
22.56
21.73
20.51
18.90
16.94
14.67
12.20
9.58
6.89
4.13
1.31
-1.56
-4.48
-7.41
-10.25
-12.92
-15.39
-17.82
-20.50
-23.81
-28.08
-33.30
-38.99
-44.19
-47.70
-48.43
-45.83
-40.07
-31.99
-22.80
-13.60
-5.16
2.18
8.38
13.43
17.20
19.54
20.40
19.96
18.64
17.06
15.73
14.94
14.76
15.05
15.63
16.30
16.93
17.49
17.99
18.51
19.00
19.36
19.28
18.44
16.63
13.86
10.42
6.73
3.18
-0.06
-3.10
-6.23
-9.80
-14.09
-19.27
-25.26
-31.75
-38.10
-43.40
-46.68
-47.14
-44.43
-38.83
-31.09
-22.24
-13.24
-4.81
2.64
8.93
13.98
17.72
20.16
21.33
21.44
20.81
19.80
18.76
17.94
17.40
17.11
16.94
16.81
16.74
16.77
16.94
17.17
17.16
16.49
14.73
11.69
7.60
2.98
-1.50
-5.27
-8.18
-10.48
-12.69
-15.41
-19.07
-23.75
-29.14
-34.49
-38.78
-40.94
-40.11
-36.00
-28.96
-19.96
-10.26
-1.01
7.03
13.65
18.97
23.17
26.32
28.28
28.96
28.40
26.97
25.20
23.63
22.56
22.01
21.74
21.46
21.01
20.47
19.99
19.72
19.63
19.43
18.74
17.25
14.85
11.69
8.08
4.35
0.72
-2.70
-5.90
-8.92
-11.85
-14.86
-18.24
-22.29
-27.13
-32.57
-38.01
-42.49
-44.99
-44.67
-41.18
-34.78
-26.25
-16.69
-7.17
1.53
9.11
15.64
21.34
26.35
30.63
33.97
36.15
37.10
36.98
36.17
35.09
34.07
33.26
32.68
32.23
31.86
31.50
31.13
30.69
30.06
29.09
27.70
25.85
23.56
20.87
17.77
14.21
10.19
5.79
1.28
-3.04
-6.95
-10.41
-13.63
-16.95
-20.73
-25.19
-30.43
-36.36
-42.70
-48.88
-53.99
-56.99
-56.91
-53.28
-46.31
-36.88
-26.18
-15.41
-5.38
3.55
11.35
18.10
23.91
28.79
32.70
35.62
37.60
38.78
39.36
39.52
39.44
39.19
38.72
37.99
37.02
35.95
34.98
34.26
33.73
33.18
32.30
30.83
28.77
26.24
23.55
20.93
18.52
16.26
14.00
11.51
8.61
5.21
1.41
-2.62
-6.63
-10.41
-13.91
-17.22
-20.61
-24.37
-28.76
-33.89
-39.65
-45.63
-51.08
-54.98
-56.31
-54.38
-49.10
-41.09
-31.47
-21.47
-12.05
-3.69
3.52
9.71
14.95
19.23
22.48
24.72
26.14
26.99
27.52
27.84
27.94
27.75
27.26
26.57
25.91
25.48
25.43
25.78
26.37
26.91
27.05
26.53
25.22
23.23
20.76
18.15
15.69
13.60
11.93
10.53
9.17
7.51
5.30
2.44
-0.95
-4.58
-8.10
-11.30
-14.17
-16.91
-19.86
-23.34
-27.52
-32.41
-37.72
-42.91
-47.15
-49.54
-49.35
-46.30
-40.72
-33.47
-25.57
-17.89
-10.89
-4.67
0.86
5.67
9.62
12.46
14.11
14.71
14.63
14.31
14.05
13.98
14.10
14.34
14.72
15.31
16.15
17.25
18.48
19.63
20.51
20.96
20.91
20.36
19.35
17.97
16.36
14.72
13.26
12.08
11.16
10.29
9.20
7.67
5.65
3.33
0.96
-1.24
-3.19
-5.01
-6.94
-9.19
-11.87
-15.00
-18.51
-22.22
-25.90
-29.20
-31.61
-32.62
-31.83
-29.14
-24.87
-19.67
-14.34
-9.56
-5.65
-2.57
-0.06
2.17
4.18
5.89
7.10
7.74
7.95
8.02
8.25
8.82
9.73
10.80
11.86
12.78
13.53
14.20
14.84
15.46
15.96
16.14
15.79
14.79
13.27
11.50
9.88
8.69
7.97
7.51
6.98
6.07
4.73
3.06
1.25
-0.52
-2.26
-4.07
-6.10
-8.41
-11.00
-13.82
-16.86
-20.16
-23.68
-27.26
-30.43
-32.54
-32.95
-31.31
-27.78
-23.01
-17.83
-12.98
-8.82
-5.35
-2.37
0.28
2.54
4.27
5.39
6.00
6.36
6.75
7.29
7.90
8.38
8.64
8.72
8.81
9.15
9.83
10.78
11.82
12.77
13.47
13.87
13.95
13.68
13.01
11.96
10.61
9.08
7.52
5.96
4.33
2.44
0.15
-2.59
-5.62
-8.66
-11.30
-13.30
-14.64
-15.57
-16.55
-18.04
-20.35
-23.48
-27.09
-30.60
-33.33
-34.65
-34.15
-31.73
-27.61
-22.27
-16.30
-10.33
-4.84
-0.18
3.42
5.88
7.19
7.46
6.95
6.02
5.08
4.49
4.45
4.98
5.96
7.17
8.35
9.33
9.99
10.32
10.39
10.35
10.34
10.43
10.57
10.62
10.46
9.96
9.06
7.78
6.19
4.37
2.41
0.37
-1.70
-3.78
-5.89
-8.02
-10.15
-12.23
-14.20
-16.04
-17.84
-19.81
-22.22
-25.21
-28.69
-32.18
-34.97
-36.29
-35.64
-32.95
-28.68
-23.51
-18.17
-13.18
-8.75
-4.91
-1.55
1.35
3.80
5.71
7.05
7.85
8.19
8.20
8.02
7.76
7.53
7.42
7.51
7.82
8.32
8.94
9.55
10.04
10.36
10.44
10.29
9.92
9.35
8.66
7.91
7.23
6.60
5.97
5.14
3.93
2.24
0.08
-2.38
-4.98
-7.59
-10.15
-12.64
-15.07
-17.42
-19.78
-22.29
-25.16
-28.45
-31.98
-35.22
-37.40
-37.82
-36.09
-32.34
-27.14
-21.26
-15.36
-9.88
-4.99
-0.66
3.09
6.20
8.54
10.03
10.74
10.83
10.54
10.06
9.52
8.98
8.51
8.17
8.03
8.16
8.51
9.00
9.52
9.99
10.32
10.45
10.28
9.71
8.70
7.28
5.59
3.76
1.92
0.12
-1.63
-3.35
-5.05
-6.71
-8.33
-9.94
-11.60
-13.43
-15.60
-18.25
-21.44
-25.01
-28.50
-31.23
-32.42
-31.52
-28.38
-23.36
-17.18
-10.69
-4.64
0.57
4.80
8.14
10.69
12.53
13.68
14.10
13.86
13.13
12.23
11.49
11.23
11.57
12.40
13.41
14.24
14.52
14.12
13.16
11.90
10.69
9.73
9.06
8.50
7.82
6.80
5.28
3.29
0.92
-1.66
-4.23
-6.64
-8.80
-10.76
-12.70
-14.90
-17.64
-21.10
-25.21
-29.62
-33.70
-36.66
-37.72
-36.37
-32.55
-26.69
-19.61
-12.26
-5.39
0.59
5.63
9.84
13.32
16.05
17.87
18.64
18.40
17.39
16.01
14.66
13.61
12.95
12.55
12.22
11.84
11.37
10.85
10.36
9.93
9.54
9.11
8.53
7.67
6.42
4.71
2.54
0.06
-2.53
-4.97
-7.09
-8.92
-10.65
-12.54
-14.80
-17.51
-20.61
-23.93
-27.24
-30.21
-32.41
-33.25
-32.21
-28.99
-23.70
-16.89
-9.43
-2.24
4.00
8.97
12.73
15.51
17.56
18.99
19.83
20.00
19.55
18.64
17.56
16.63
16.07
15.90
15.96
16.02
15.86
15.45
14.87
14.24
13.62
12.91
11.92
10.48
8.50
6.01
3.18
0.21
-2.75
-5.57
-8.19
-10.58
-12.78
-15.00
-17.53
-20.65
-24.48
-28.85
-33.24
-36.88
-38.97
-38.87
-36.34
-31.52
-24.95
-17.39
-9.61
-2.30
4.07
9.23
13.08
15.63
16.93
17.12
16.37
15.02
13.50
12.24
11.62
11.78
12.62
13.85
15.13
16.13
16.63
16.61
16.06
15.09
13.79
12.22
10.38
8.27
5.88
3.27
0.57
-2.08
-4.60
-7.06
-9.66
-12.62
-16.13
-20.17
-24.58
-29.12
-33.51
-37.44
-40.56
-42.38
-42.39
-40.21
-35.85
-29.78
-22.79
-15.77
-9.34
-3.78
0.94
4.88
8.07
10.35
11.63
12.01
11.84
11.65
11.94
12.93
14.50
16.27
17.78
18.69
18.84
18.31
17.24
15.81
14.15
12.29
10.20
7.80
5.05
1.97
-1.28
-4.46
-7.29
-9.65
-11.64
-13.56
-15.85
-18.82
-22.63
-27.17
-32.14
-37.01
-41.13
-43.73
-44.07
-41.64
-36.39
-28.84
-19.97
-10.94
-2.67
4.39
10.24
15.14
19.31
22.70
25.11
26.36
26.49
25.90
25.16
24.82
25.14
26.02
27.11
28.01
28.42
28.24
27.53
26.39
24.87
22.98
20.72
18.13
15.29
12.32
9.37
6.54
3.89
1.44
-0.85
-3.04
-5.17
-7.29
-9.48
-11.87
-14.67
-18.13
-22.51
-27.83
-33.77
-39.59
-44.21
-46.51
-45.66
-41.50
-34.59
-26.03
-17.08
-8.74
-1.52
4.58
9.81
14.42
18.40
21.61
23.88
25.17
25.69
25.76
25.73
25.84
26.22
26.87
27.73
28.68
29.57
30.21
30.46
30.23
29.58
28.63
27.51
26.28
24.89
23.18
20.97
18.19
14.87
11.19
7.43
3.82
0.51
-2.49
-5.36
-8.34
-11.69
-15.66
-20.40
-25.94
-32.12
-38.41
-43.96
-47.71
-48.68
-46.33
-40.76
-32.79
-23.57
-14.28
-5.75
1.72
8.19
13.86
18.82
22.96
26.05
27.96
28.69
28.57
28.03
27.51
27.35
27.61
28.14
28.70
29.03
28.95
28.43
27.53
26.33
24.88
23.17
21.16
18.85
16.35
13.78
11.30
8.98
6.73
4.33
1.55
-1.68
-5.24
-8.83
-12.10
-14.88
-17.27
-19.73
-22.92
-27.47
-33.69
-41.38
-49.69
-57.34
-62.88
-65.13
-63.57
-58.38
-50.43
-40.87
-30.84
-21.16
-12.21
-4.06
3.40
10.23
16.36
21.55
25.50
28.03
29.22
29.45
29.25
29.16
29.46
30.15
31.01
31.79
32.40
32.98
33.74
34.72
35.77
36.47
36.39
35.22
33.00
29.98
26.63
23.37
20.50
18.08
15.96
13.85
11.41
8.41
4.80
0.76
-3.33
-7.12
-10.37
-13.17
-15.89
-19.11
-23.40
-29.14
-36.37
-44.73
-53.49
-61.57
-67.73
-70.80
-70.02
-65.24
-57.04
-46.55
-35.09
-23.78
-13.24
-3.61
5.26
13.52
21.12
27.75
33.01
36.68
38.80
39.79
40.26
40.83
41.85
43.30
44.86
46.07
46.60
46.39
45.67
44.76
43.90
43.05
41.92
40.21
37.72
34.53
30.91
27.29
23.95
21.10
18.65
16.45
14.24
11.78
8.91
5.57
1.88
-1.92
-5.58
-8.95
-12.10
-15.35
-19.19
-24.14
-30.52
-38.35
-47.17
-56.05
-63.68
-68.57
-69.51
-65.87
-57.93
-46.77
-33.97
-21.12
-9.31
0.99
9.89
17.70
24.62
30.55
35.19
38.27
39.80
40.10
39.76
39.30
39.07
39.12
39.36
39.70
40.13
40.69
41.31
41.77
41.70
40.72
38.63
35.50
31.64
27.47
23.39
19.64
16.28
13.19
10.10
6.71
2.78
-1.72
-6.60
-11.49
-15.97
-19.79
-23.00
-25.97
-29.30
-33.65
-39.52
-47.01
-55.64
-64.31
-71.46
-75.44
-75.01
-69.71
-60.09
-47.43
-33.40
-19.49
-6.62
4.82
14.90
23.78
31.47
37.77
42.40
45.22
46.34
46.25
45.58
44.88
44.40
44.07
43.56
42.61
41.16
39.49
38.00
36.97
36.36
35.76
34.60
32.38
28.96
24.61
19.92
15.53
11.88
9.09
6.87
4.68
1.94
-1.72
-6.35
-11.61
-16.92
-21.74
-25.77
-29.09
-32.09
-35.37
-39.47
-44.82
-51.60
-59.63
-68.30
-76.46
-82.59
-85.12
-82.96
-75.97
-65.04
-51.85
-38.22
-25.52
-14.29
-4.36
4.80
13.56
21.87
29.29
35.25
39.37
41.66
42.46
42.32
41.75
41.10
40.59
40.31
40.39
40.94
42.03
43.57
45.24
46.60
47.16
46.61
44.95
42.45
39.58
36.78
34.30
32.08
29.80
27.11
23.80
19.95
15.87
12.00
8.62
5.70
2.95
-0.12
-3.88
-8.43
-13.59
-18.99
-24.23
-29.03
-33.35
-37.39
-41.55
-46.42
-52.57
-60.39
-69.71
-79.61
-88.40
-94.04
-94.79
-89.85
-79.68
-65.84
-50.39
-35.19
-21.42
-9.46
0.81
9.69
17.35
23.85
29.08
33.05
35.80
37.49
38.36
38.66
38.66
38.58
38.61
38.92
39.61
40.74
42.30
44.11
45.87
47.18
47.64
47.06
45.48
43.20
40.55
37.88
35.39
33.07
30.82
28.45
25.83
22.89
19.72
16.47
13.27
10.13
6.90
3.31
-0.95
-5.94
-11.50
-17.29
-22.87
-27.99
-32.64
-37.11
-41.90
-47.58
-54.56
-62.93
-72.22
-81.27
-88.41
-91.79
-90.00
-82.57
-70.28
-54.86
-38.47
-22.95
-9.36
2.10
11.78
20.15
27.40
33.46
38.11
41.25
43.03
43.84
44.16
44.33
44.56
44.85
45.11
45.27
45.31
45.23
45.05
44.71
44.04
42.83
40.90
38.20
34.95
31.51
28.28
25.53
23.20
20.96
18.41
15.30
11.64
7.76
4.05
0.75
-2.21
-5.19
-8.57
-12.62
-17.26
-22.23
-27.10
-31.59
-35.61
-39.30
-43.00
-47.16
-52.28
-58.76
-66.66
-75.51
-84.19
-90.98
-94.08
-92.12
-84.69
-72.55
-57.37
-41.25
-26.04
-12.86
-1.95
7.07
14.86
21.97
28.56
34.49
39.45
43.16
45.62
47.02
47.70
47.91
47.83
47.47
46.86
46.17
45.60
45.35
45.39
45.45
45.14
44.18
42.45
40.15
37.57
35.01
32.62
30.39
28.15
25.74
23.00
19.84
16.29
12.49
8.64
5.04
1.90
-0.76
-3.12
-5.61
-8.70
-12.74
-17.77
-23.43
-29.12
-34.19
-38.31
-41.60
-44.60
-48.10
-52.80
-59.18
-67.14
-75.95
-84.34
-90.63
-93.23
-91.03
-83.85
-72.49
-58.52
-43.75
-29.68
-17.18
-6.44
2.79
10.87
17.99
24.15
29.24
33.17
35.99
37.94
39.30
40.35
41.19
41.77
41.96
41.67
40.94
40.00
39.07
38.34
37.74
37.03
35.90
34.20
31.99
29.53
27.16
25.15
23.55
22.18
20.77
19.06
16.95
14.50
11.89
9.35
6.95
4.65
2.23
-0.55
-3.91
-7.90
-12.41
-17.23
-22.15
-26.95
-31.55
-35.89
-40.11
-44.39
-49.06
-54.53
-61.05
-68.43
-75.85
-81.94
-85.06
-83.92
-78.05
-67.95
-54.97
-40.77
-26.88
-14.26
-3.31
6.00
13.86
20.40
25.67
29.64
32.41
34.15
35.16
35.70
36.04
36.36
36.73
37.22
37.83
38.56
39.37
40.17
40.79
41.00
40.55
39.27
37.16
34.38
31.23
27.96
24.73
21.48
18.10
14.52
10.82
7.23
3.99
1.14
-1.51
-4.31
-7.58
-11.38
-15.59
-19.84
-23.79
-27.29
-30.37
-33.26
-36.36
-40.08
-44.87
-51.00
-58.30
-66.06
-72.96
-77.37
-77.83
-73.57
-64.82
-52.75
-39.08
-25.46
-13.04
-2.28
6.87
14.65
21.17
26.38
30.16
32.53
33.77
34.37
34.85
35.54
36.51
37.61
38.64
39.48
40.13
40.69
41.26
41.80
42.19
42.18
41.57
40.24
38.21
35.65
32.79
29.92
27.23
24.79
22.55
20.33
17.97
15.42
12.75
10.11
7.59
5.09
2.33
-1.04
-5.29
-10.38
-15.92
-21.40
-26.35
-30.59
-34.27
-37.85
-41.90
-46.92
-53.19
-60.56
-68.45
-75.74
-81.04
-82.98
-80.67
-74.00
-63.66
-51.03
-37.61
-24.75
-13.26
-3.45
4.75
11.58
17.23
21.82
25.38
27.97
29.73
30.92
31.78
32.53
33.20
33.75
34.09
34.21
34.27
34.45
34.90
35.54
36.08
36.14
35.40
33.79
31.52
28.96
26.46
24.18
22.01
19.71
17.01
13.84
10.35
6.82
3.49
0.40
-2.58
-5.71
-9.17
-12.96
-16.88
-20.72
-24.25
-27.42
-30.29
-33.01
-35.84
-39.08
-43.13
-48.32
-54.75
-62.02
-69.14
-74.73
-77.28
-75.81
-70.13
-60.94
-49.55
-37.42
-25.72
-15.08
-5.72
2.44
9.49
15.46
20.39
24.32
27.38
29.71
31.44
32.60
33.24
33.40
33.22
32.90
32.65
32.60
32.74
33.03
33.35
33.63
33.77
33.69
33.24
32.26
30.64
28.31
25.33
21.83
18.08
14.33
10.82
7.66
4.76
1.87
-1.31
-4.99
-9.15
-13.56
-17.83
-21.68
-25.02
-28.06
-31.13
-34.58
-38.67
-43.50
-48.99
-54.83
-60.40
-64.75
-66.77
-65.44
-60.24
-51.45
-40.06
-27.58
-15.48
-4.80
4.06
11.26
17.18
22.11
26.09
29.06
30.91
31.80
32.05
32.13
32.37
32.85
33.39
33.72
33.60
32.98
31.99
30.88
29.87
29.04
28.29
27.39
26.05
24.07
21.44
18.34
15.12
12.14
9.64
7.60
5.72
3.57
0.76
-2.84
-7.09
-11.53
-15.74
-19.43
-22.60
-25.50
-28.51
-32.03
-36.29
-41.46
-47.51
-54.13
-60.66
-66.07
-69.15
-68.91
-64.94
-57.65
-48.12
-37.70
-27.58
-18.42
-10.37
-3.24
3.18
8.95
13.98
18.21
21.64
24.39
26.64
28.51
30.04
31.24
32.12
32.80
33.47
34.34
35.43
36.63
37.69
38.33
38.29
37.47
35.85
33.53
30.63
27.32
23.77
20.08
16.22
12.12
7.69
2.95
-1.96
-6.75
-11.15
-15.05
-18.58
-22.11
-26.15
-31.11
-37.21
-44.32
-51.91
-59.10
-64.79
-67.85
-67.51
-63.56
-56.48
-47.23
-37.01
-26.77
-17.10
-8.18
-0.00
7.40
13.86
19.09
22.84
25.12
26.18
26.50
26.57
26.78
27.29
28.08
28.97
29.77
30.29
30.45
30.20
29.57
28.61
27.35
25.81
24.02
22.02
19.82
17.44
14.80
11.82
8.45
4.76
0.89
-2.92
-6.50
-9.85
-13.16
-16.73
-20.87
-25.74
-31.30
-37.28
-43.20
-48.30
-51.68
-52.47
-50.10
-44.54
-36.39
-26.69
-16.60
-7.07
1.40
8.75
15.08
20.57
25.20
28.88
31.53
33.21
34.10
34.47
34.62
34.74
34.86
34.94
34.80
34.29
33.29
31.81
29.99
27.98
25.88
23.77
21.58
19.29
16.85
14.25
11.48
8.53
5.36
1.97
-1.52
-4.98
-8.23
-11.21
-14.04
-17.00
-20.44
-24.72
-29.99
-36.18
-42.73
-48.75
-53.12
-54.74
-53.01
-47.98
-40.38
-31.34
-22.01
-13.17
-5.13
2.08
8.55
14.28
19.21
23.27
26.47
28.92
30.76
32.10
33.04
33.70
34.21
34.69
35.16
35.51
35.52
35.03
33.97
32.39
30.42
28.17
25.70
23.02
20.15
17.13
13.94
10.53
6.80
2.73
-1.65
-6.16
-10.61
-14.87
-18.96
-23.03
-27.38
-32.28
-37.84
-43.93
-50.00
-55.25
-58.68
-59.46
-57.18
-51.96
-44.46
-35.60
-26.31
-17.26
-8.84
-1.17
5.71
11.73
16.77
20.68
23.42
25.11
25.93
26.14
25.94
25.49
24.90
24.29
23.74
23.31
22.97
22.58
21.95
20.96
19.60
17.96
16.13
14.16
11.97
9.43
6.42
2.96
-0.79
-4.61
-8.33
-11.90
-15.39
-18.97
-22.83
-27.10
-31.84
-36.96
-42.16
-46.91
-50.45
-51.93
-50.69
-46.50
-39.73
-31.21
-22.02
-13.06
-4.86
2.48
9.09
15.00
20.10
24.09
26.71
27.93
28.04
27.53
26.91
26.48
26.32
26.34
26.40
26.42
26.33
26.10
25.72
25.12
24.29
23.23
21.95
20.39
18.47
16.11
13.32
10.18
6.84
3.47
0.08
-3.35
-6.96
-10.92
-15.39
-20.48
-26.19
-32.30
-38.28
-43.34
-46.57
-47.17
-44.73
-39.39
-31.84
-23.05
-14.04
-5.57
1.94
8.40
13.95
18.74
22.86
26.29
28.97
30.81
31.82
32.13
31.98
31.64
31.34
31.21
31.25
31.34
31.34
31.08
30.45
29.36
27.77
25.66
23.09
20.20
17.21
14.35
11.75
9.36
6.94
4.22
1.00
-2.74
-6.77
-10.82
-14.66
-18.23
-21.71
-25.34
-29.44
-34.19
-39.58
-45.29
-50.64
-54.67
-56.41
-55.16
-50.76
-43.70
-34.94
-25.57
-16.47
-8.11
-0.65
5.96
11.73
16.61
20.53
23.46
25.55
27.03
28.15
29.10
29.94
30.62
31.05
31.16
30.94
30.47
29.83
29.11
28.33
27.44
26.37
25.05
23.39
21.33
18.87
16.14
13.40
10.90
8.76
6.85
4.85
2.36
-0.83
-4.64
-8.69
-12.56
-15.94
-18.90
-21.83
-25.28
-29.72
-35.36
-41.94
-48.84
-55.10
-59.66
-61.59
-60.33
-55.87
-48.77
-39.93
-30.34
-20.82
-11.90
-3.82
3.31
9.42
14.42
18.26
21.00
22.84
24.05
24.87
25.46
25.82
25.94
25.80
25.47
25.05
24.62
24.20
23.76
23.22
22.47
21.42
20.02
18.25
16.12
13.76
11.25
8.69
6.16
3.62
0.99
-1.80
-4.82
-8.00
-11.25
-14.40
-17.35
-20.09
-22.73
-25.50
-28.66
-32.42
-36.79
-41.56
-46.20
-49.97
-52.05
-51.72
-48.67
-43.04
-35.51
-27.02
-18.55
-10.78
-3.97
1.97
7.26
12.03
16.26
19.78
22.45
24.27
25.35
25.95
26.31
26.59
26.89
27.27
27.73
28.21
28.55
28.55
28.02
26.85
25.08
22.85
20.39
17.91
15.58
13.48
11.51
9.47
7.09
4.14
0.58
-3.45
-7.65
-11.61
-15.07
-17.91
-20.34
-22.72
-25.59
-29.38
-34.33
-40.24
-46.42
-51.76
-55.07
-55.37
-52.28
-46.10
-37.73
-28.26
-18.69
-9.65
-1.44
5.86
12.22
17.58
21.87
25.11
27.39
28.86
29.63
29.81
29.48
28.76
27.78
26.75
25.82
25.12
24.69
24.55
24.58
24.66
24.54
23.99
22.85
21.16
19.08
16.91
14.85
12.99
11.14
9.03
6.33
2.85
-1.34
-6.00
-10.76
-15.25
-19.24
-22.68
-25.75
-28.81
-32.29
-36.57
-41.70
-47.28
-52.41
-55.95
-56.83
-54.44
-48.92
-41.06
-31.99
-22.79
-14.12
-6.25
0.84
7.23
12.86
17.55
21.13
23.58
25.08
25.98
26.61
27.18
27.72
28.09
28.17
27.94
27.53
27.17
27.05
27.20
27.44
27.44
26.87
25.56
23.59
21.25
18.86
16.68
14.74
12.84
10.73
8.17
5.10
1.60
-2.10
-5.79
-9.33
-12.70
-16.04
-19.55
-23.51
-28.17
-33.78
-40.38
-47.66
-54.94
-61.15
-65.14
-65.92
-63.08
-56.83
-48.05
-37.88
-27.48
-17.66
-8.86
-1.13
5.65
11.60
16.72
20.94
24.19
26.54
28.13
29.20
29.88
30.20
30.06
29.37
28.19
26.75
25.35
24.27
23.59
23.22
22.89
22.34
21.40
20.08
18.49
16.75
14.99
13.22
11.39
9.39
7.18
4.76
2.19
-0.41
-3.00
-5.59
-8.34
-11.54
-15.54
-20.67
-27.08
-34.66
-42.84
-50.74
-57.25
-61.31
-62.13
-59.50
-53.81
-45.93
-36.97
-27.96
-19.64
-12.37
-6.16
-0.88
3.65
7.45
10.45
12.60
13.94
14.74
15.37
16.21
17.46
19.05
20.75
22.24
23.26
23.74
23.75
23.46
23.02
22.47
21.76
20.74
19.29
17.34
14.90
12.03
8.86
5.52
2.10
-1.34
-4.78
-8.30
-11.99
-16.08
-20.77
-26.20
-32.25
-38.40
-43.79
-47.33
-48.09
-45.55
-39.83
-31.64
-22.03
-12.08
-2.62
5.90
13.36
19.86
25.53
30.46
34.59
37.75
39.79
40.64
40.42
39.45
38.14
36.88
35.86
35.15
34.73
34.51
34.39
34.18
33.63
32.49
30.59
27.95
24.79
21.42
18.11
14.94
11.80
8.49
4.80
0.69
-3.74
-8.20
-12.40
-16.03
-19.07
-21.70
-24.38
-27.66
-31.94
-37.34
-43.49
-49.58
-54.50
-57.11
-56.53
-52.42
-45.15
-35.66
-25.23
-15.00
-5.71
2.44
9.60
15.99
21.66
26.43
30.10
32.60
34.14
35.05
35.63
35.93
35.77
34.98
33.54
31.74
30.01
28.72
27.99
27.62
27.21
26.41
25.04
23.18
21.03
18.86
16.82
14.94
13.10
11.12
8.79
5.94
2.52
-1.41
-5.67
-10.02
-14.28
-18.37
-22.34
-26.38
-30.74
-35.62
-41.11
-47.04
-52.94
-58.00
-61.22
-61.72
-59.01
-53.16
-44.89
-35.22
-25.26
-15.91
-7.61
-0.47
5.61
10.80
15.19
18.76
21.47
23.32
24.41
24.89
24.96
24.77
24.42
24.00
23.56
23.18
22.91
22.74
22.56
22.20
21.50
20.38
18.90
17.19
15.39
13.55
11.65
9.56
7.14
4.29
1.01
-2.59
-6.32
-9.94
-13.24
-16.09
-18.56
-20.87
-23.37
-26.37
-30.05
-34.33
-38.79
-42.69
-45.13
-45.31
-42.75
-37.46
-29.99
-21.22
-12.13
-3.49
4.22
10.85
16.42
20.97
24.48
26.91
28.25
28.58
28.17
27.36
26.49
25.81
25.45
25.37
25.51
25.76
26.04
26.26
26.22
25.69
24.47
22.48
19.84
16.87
13.94
11.30
9.01
6.89
4.70
2.27
-0.41
-3.22
-5.96
-8.52
-10.88
-13.18
-15.65
-18.57
-22.17
-26.55
-31.54
-36.64
-41.06
-43.89
-44.35
-42.09
-37.27
-30.50
-22.66
-14.58
-6.87
0.13
6.35
11.80
16.54
20.55
23.83
26.39
28.25
29.49
30.14
30.31
30.12
29.71
29.23
28.80
28.49
28.31
28.25
28.17
27.92
27.24
25.96
23.97
21.33
18.27
15.14
12.24
9.65
7.32
4.98
2.44
-0.45
-3.63
-6.96
-10.24
-13.31
-16.13
-18.79
-21.49
-24.51
-28.17
-32.65
-37.86
-43.31
-48.14
-51.35
-52.05
-49.79
-44.73
-37.51
-29.08
-20.33
-11.97
-4.37
2.34
8.16
13.11
17.20
20.47
22.94
24.71
25.87
26.55
26.83
26.75
26.35
25.65
24.73
23.72
22.79
22.07
21.64
21.45
21.33
21.05
20.37
19.12
17.28
14.95
12.31
9.60
7.00
4.56
2.18
-0.33
-3.11
-6.20
-9.47
-12.70
-15.72
-18.56
-21.40
-24.55
-28.31
-32.81
-37.97
-43.46
-48.72
-52.98
-55.50
-55.58
-52.89
-47.52
-40.00
-31.22
-22.14
-13.55
-5.96
0.49
5.90
10.43
14.24
17.34
19.72
21.34
22.27
22.64
22.61
22.34
21.87
21.24
20.46
19.65
19.01
18.68
18.71
18.95
19.12
18.88
18.07
16.75
15.17
13.63
12.26
10.91
9.23
6.85
3.56
-0.46
-4.80
-9.06
-12.97
-16.53
-19.93
-23.42
-27.13
-31.14
-35.42
-39.79
-43.88
-47.05
-48.44
-47.31
-43.29
-36.65
-28.24
-19.17
-10.39
-2.51
4.35
10.26
15.30
19.45
22.54
24.38
25.00
24.67
23.84
22.96
22.38
22.16
22.14
22.09
21.85
21.41
20.92
20.55
20.34
20.25
20.10
19.75
19.13
18.22
17.05
15.58
13.72
11.32
8.31
4.72
0.67
-3.67
-8.10
-12.45
-16.58
-20.48
-24.30
-28.33
-32.86
-37.94
-43.23
-47.90
-50.90
-51.37
-48.96
-44.03
-37.43
-30.15
-22.92
-16.07
-9.56
-3.27
2.81
8.54
13.65
17.93
21.27
23.67
25.23
26.06
26.24
25.87
25.09
24.12
23.20
22.50
22.12
21.90
21.58
20.87
19.65
17.99
16.20
14.58
13.24
12.07
10.73
8.87
6.33
3.12
-0.51
-4.33
-8.19
-12.05
-15.99
-20.12
-24.56
-29.43
-34.81
-40.60
-46.40
-51.51
-55.00
-56.01
-53.99
-48.98
-41.51
-32.53
-23.06
-14.03
-6.01
0.76
6.37
11.05
15.10
18.67
21.74
24.14
25.67
26.26
26.02
25.25
24.30
23.43
22.81
22.38
22.04
21.62
21.03
20.22
19.20
17.99
16.64
15.12
13.27
10.88
7.79
4.00
-0.27
-4.64
-8.75
-12.39
-15.64
-18.77
-22.12
-25.97
-30.46
-35.53
-40.93
-46.24
-50.88
-54.08
-55.07
-53.28
-48.57
-41.31
-32.33
-22.69
-13.31
-4.82
2.56
8.90
14.37
19.04
22.82
25.53
27.02
27.40
27.00
26.33
25.89
25.97
26.55
27.38
28.17
28.70
28.91
28.87
28.65
28.24
27.50
26.24
24.27
21.56
18.22
14.46
10.53
6.62
2.80
-0.91
-4.60
-8.40
-12.49
-17.05
-22.19
-27.82
-33.50
-38.43
-41.62
-42.16
-39.57
-34.03
-26.32
-17.52
-8.65
-0.39
7.07
13.76
19.78
25.08
29.45
32.69
34.76
35.80
36.09
35.92
35.48
34.78
33.82
32.64
31.31
29.95
28.63
27.35
26.04
24.63
23.08
21.44
19.68
17.76
15.59
13.10
10.28
7.25
4.11
0.95
-2.16
-5.27
-8.40
-11.61
-14.91
-18.43
-22.37
-27.00
-32.49
-38.66
-44.88
-50.10
-53.19
-53.33
-50.27
-44.40
-36.53
-27.62
-18.46
-9.58
-1.32
6.18
12.78
18.42
23.11
26.92
29.93
32.20
33.75
34.54
34.62
34.12
33.30
32.46
31.82
31.49
31.37
31.32
31.17
30.87
30.43
29.86
29.12
28.04
26.43
24.18
21.36
18.26
15.17
12.30
9.60
6.88
3.88
0.51
-3.17
-6.96
-10.66
-14.19
-17.61
-21.08
-24.78
-28.82
-33.30
-38.24
-43.59
-49.04
-54.03
-57.71
-59.23
-57.91
-53.60
-46.74
-38.19
-28.98
-19.98
-11.67
-4.22
2.49
8.59
14.05
18.75
22.49
25.14
26.71
27.39
27.46
27.24
26.97
26.77
26.65
26.56
26.39
26.14
25.85
25.65
25.62
25.72
25.81
25.70
25.23
24.38
23.25
21.99
20.66
19.23
17.56
15.53
13.12
10.42
7.56
4.69
1.78
-1.22
-4.45
-7.94
-11.63
-15.33
-18.87
-22.20
-25.47
-29.01
-33.20
-38.30
-44.23
-50.44
-55.99
-59.76
-60.80
-58.56
-53.14
-45.18
-35.68
-25.75
-16.27
-7.78
-0.41
5.98
11.56
16.44
20.58
23.80
25.91
26.88
26.86
26.18
25.20
24.19
23.30
22.54
21.88
21.35
21.00
20.90
21.04
21.35
21.59
21.53
20.99
19.89
18.30
16.40
14.41
12.51
10.77
9.16
7.51
5.62
3.30
0.52
-2.65
-6.00
-9.29
-12.37
-15.22
-17.95
-20.81
-24.05
-27.86
-32.23
-36.87
-41.22
-44.50
-45.97
-45.12
-41.87
-36.56
-29.82
-22.38
-14.82
-7.54
-0.71
5.52
11.07
15.82
19.71
22.74
24.97
26.51
27.44
27.81
27.68
27.14
26.32
25.38
24.49
23.74
23.17
22.75
22.44
22.22
22.11
22.09
22.04
21.74
20.96
19.54
17.54
15.21
12.89
10.84
9.12
7.57
5.92
3.89
1.38
-1.52
-4.57
-7.51
-10.20
-12.66
-15.10
-17.78
-20.98
-24.87
-29.47
-34.70
-40.33
-45.93
-50.90
-54.47
-55.85
-54.54
-50.40
-43.87
-35.76
-27.01
-18.40
-10.38
-3.13
3.33
9.00
13.86
17.85
20.98
23.26
24.81
25.74
26.17
26.22
26.01
25.69
25.36
25.08
24.89
24.77
24.64
24.47
24.22
23.85
23.35
22.73
21.97
21.01
19.79
18.24
16.37
14.32
12.21
10.14
8.13
6.08
3.83
1.28
-1.62
-4.76
-7.99
-11.19
-14.29
-17.33
-20.35
-23.42
-26.58
-29.91
-33.54
-37.72
-42.59
-48.12
-53.86
-58.92
-62.23
-62.84
-60.36
-55.06
-47.77
-39.55
-31.25
-23.35
-15.94
-8.92
-2.32
3.71
8.89
13.00
16.02
18.10
19.51
20.44
21.01
21.21
21.05
20.60
20.02
19.48
19.17
19.17
19.44
19.83
20.15
20.20
19.81
18.94
17.60
15.93
14.09
12.23
10.39
8.44
6.18
3.41
0.09
-3.64
-7.51
-11.14
-14.28
-16.79
-18.73
-20.33
-21.99
-24.10
-27.04
-30.87
-35.32
-39.68
-42.94
-44.09
-42.46
-37.95
-31.03
-22.61
-13.66
-5.01
2.80
9.56
15.24
19.92
23.68
26.58
28.65
29.99
30.72
31.02
31.09
31.09
31.08
30.95
30.55
29.74
28.54
27.15
25.87
24.86
24.10
23.32
22.21
20.56
18.38
15.91
13.40
10.98
8.59
5.97
2.91
-0.64
-4.57
-8.63
-12.54
-16.10
-19.18
-21.74
-23.84
-25.72
-27.75
-30.35
-33.87
-38.36
-43.39
-48.08
-51.33
-52.08
-49.78
-44.50
-36.93
-28.10
-19.02
-10.39
-2.50
4.65
11.17
17.09
22.29
26.57
29.79
31.99
33.33
34.05
34.33
34.32
34.03
33.48
32.74
31.83
30.86
29.87
28.92
28.03
27.21
26.50
25.80
24.97
23.73
21.92
19.51
16.66
13.75
11.06
8.74
6.67
4.57
2.10
-0.89
-4.37
-8.08
-11.74
-15.17
-18.35
-21.39
-24.42
-27.56
-30.92
-34.64
-38.86
-43.57
-48.52
-53.11
-56.46
-57.60
-55.85
-51.06
-43.68
-34.64
-25.01
-15.66
-7.13
0.41
6.99
12.65
17.43
21.32
24.35
26.66
28.42
29.73
30.61
30.99
30.80
30.07
29.00
27.83
26.85
26.18
25.75
25.45
25.08
24.47
23.54
22.18
20.39
18.20
15.74
13.17
10.61
8.10
5.50
2.60
-0.77
-4.60
-8.69
-12.73
-16.42
-19.61
-22.40
-25.02
-27.74
-30.73
-34.11
-37.94
-42.23
-46.90
-51.58
-55.59
-58.02
-57.96
-54.84
-48.65
-40.01
-29.95
-19.62
-9.95
-1.41
5.89
12.16
17.58
22.27
26.20
29.28
31.45
32.78
33.45
33.70
33.68
33.46
33.03
32.36
31.48
30.51
29.57
28.76
28.05
27.33
26.38
25.07
23.34
21.32
19.23
17.29
15.66
14.22
12.74
10.85
8.29
4.94
0.93
-3.47
-7.94
-12.20
-16.10
-19.64
-22.96
-26.27
-29.80
-33.78
-38.25
-43.03
-47.60
-51.17
-52.82
-51.77
-47.67
-40.69
-31.55
-21.28
-10.98
-1.54
6.46
12.87
17.81
21.56
24.37
26.44
27.85
28.64
28.85
28.61
28.14
27.71
27.52
27.60
27.86
28.09
28.10
27.80
27.22
26.55
25.91
25.40
24.95
24.35
23.35
21.75
19.55
16.93
14.19
11.60
9.27
7.16
5.06
2.77
0.18
-2.68
-5.71
-8.79
-11.87
-14.98
-18.15
-21.45
-24.88
-28.52
-32.48
-36.90
-41.88
-47.27
-52.57
-56.92
-59.29
-58.84
-55.18
-48.58
-39.84
-30.00
-20.05
-10.72
-2.32
5.02
11.31
16.58
20.86
24.19
26.67
28.43
29.59
30.28
30.56
30.51
30.21
29.77
29.35
29.13
29.20
29.54
29.99
30.23
30.02
29.17
27.68
25.70
23.44
21.09
18.75
16.45
14.15
11.80
9.36
6.85
4.32
1.83
-0.58
-2.89
-5.17
-7.51
-10.01
-12.81
-15.95
-19.42
-23.17
-27.06
-31.00
-34.94
-39.03
-43.43
-48.28
-53.44
-58.39
-62.21
-63.90
-62.63
-58.16
-50.87
-41.67
-31.64
-21.69
-12.36
-3.90
3.67
10.27
15.78
20.04
23.00
24.77
25.67
26.05
26.16
26.15
25.96
25.53
24.83
23.94
23.04
22.36
22.12
22.37
23.02
23.86
24.58
24.90
24.69
23.95
22.77
21.23
19.36
17.09
14.37
11.18
7.65
3.91
0.13
-3.65
-7.40
-11.08
-14.64
-18.04
-21.31
-24.66
-28.42
-32.93
-38.21
-43.88
-49.07
-52.61
-53.48
-51.09
-45.54
-37.53
-28.19
-18.59
-9.54
-1.44
5.67
11.94
17.47
22.33
26.49
29.84
32.28
33.73
34.19
33.76
32.61
31.06
29.44
28.12
27.33
27.17
27.57
28.26
28.96
29.35
29.15
28.25
26.68
24.62
22.34
20.12
18.14
16.42
14.83
13.11
10.98
8.21
4.73
0.64
-3.78
-8.24
-12.38
-16.02
-19.15
-21.99
-24.92
-28.35
-32.60
-37.63
-43.05
-48.05
-51.66
-52.94
-51.35
-46.88
-40.09
-31.84
-23.02
-14.33
-6.16
1.31
8.07
14.07
19.27
23.62
27.12
29.82
31.78
33.10
33.85
34.11
34.04
33.80
33.54
33.35
33.25
33.23
33.26
33.26
33.17
32.80
31.98
30.56
28.51
25.97
23.12
20.20
17.35
14.66
12.11
9.74
7.54
5.45
3.32
0.93
-1.93
-5.33
-9.13
-13.00
-16.62
-19.76
-22.41
-24.79
-27.24
-30.18
-33.96
-38.79
-44.54
-50.70
-56.33
-60.29
-61.58
-59.61
-54.47
-46.87
-37.86
-28.48
-19.49
-11.29
-4.00
2.45
8.11
13.00
17.12
20.51
23.20
25.21
26.56
27.28
27.49
27.35
27.12
27.02
27.21
27.67
28.23
28.64
28.67
28.18
27.18
25.75
24.10
22.44
20.91
19.61
18.49
17.45
16.36
15.14
13.74
12.18
10.53
8.83
7.14
5.45
3.64
1.51
-1.11
-4.30
-8.02
-12.05
-16.15
-20.06
-23.68
-27.09
-30.56
-34.43
-39.01
-44.33
-50.06
-55.39
-59.20
-60.41
-58.34
-53.01
-45.07
-35.62
-25.85
-16.70
-8.72
-2.06
3.36
7.79
11.41
14.37
16.70
18.41
19.56
20.25
20.67
21.02
21.45
22.02
22.64
23.17
23.53
23.70
23.78
23.84
23.91
23.87
23.49
22.53
20.92
18.80
16.48
14.37
12.69
11.43
10.32
8.95
7.06
4.59
1.77
-1.08
-3.66
-5.87
-7.82
-9.77
-12.02
-14.79
-18.19
-22.24
-26.80
-31.58
-36.07
-39.58
-41.31
-40.64
-37.37
-31.80
-24.71
-17.07
-9.74
-3.27
2.19
6.75
10.62
13.95
16.82
19.21
21.09
22.44
23.28
23.67
23.78
23.83
24.04
24.50
25.12
25.69
26.00
25.91
25.49
24.88
24.20
23.43
22.40
20.95
19.04
16.85
14.66
12.72
11.10
9.68
8.22
6.46
4.24
1.51
-1.65
-5.04
-8.41
-11.49
-14.11
-16.28
-18.26
-20.51
-23.49
-27.48
-32.49
-38.12
-43.68
-48.35
-51.29
-51.88
-49.86
-45.38
-39.00
-31.50
-23.69
-16.21
-9.38
-3.28
2.15
6.97
11.22
14.83
17.74
19.92
21.40
22.30
22.79
23.10
23.38
23.75
24.23
24.80
25.44
26.07
26.64
27.01
27.05
26.68
25.90
24.83
23.58
22.22
20.72
18.96
16.84
14.41
11.83
9.31
6.96
4.74
2.49
0.07
-2.53
-5.24
-7.91
-10.42
-12.71
-14.80
-16.78
-18.75
-20.87
-23.35
-26.41
-30.23
-34.81
-39.86
-44.75
-48.63
-50.61
-50.05
-46.78
-41.19
-34.07
-26.42
-19.09
-12.57
-7.00
-2.24
1.93
5.70
9.19
12.44
15.44
18.13
20.39
22.10
23.15
23.56
23.49
23.17
22.88
22.83
23.13
23.74
24.49
25.15
25.44
25.19
24.35
23.03
21.44
19.81
18.29
16.91
15.64
14.36
13.02
11.55
9.90
8.02
5.89
3.51
0.94
-1.73
-4.42
-7.09
-9.70
-12.27
-14.88
-17.62
-20.58
-23.87
-27.56
-31.70
-36.29
-41.27
-46.34
-50.99
-54.46
-55.91
-54.72
-50.72
-44.33
-36.43
-28.07
-20.13
-13.10
-7.06
-1.85
2.74
6.82
10.34
13.24
15.47
17.07
18.13
18.76
19.07
19.12
19.04
18.90
18.80
18.81
18.94
19.16
19.42
19.61
19.61
19.30
18.61
17.49
15.99
14.22
12.35
10.53
8.86
7.31
5.73
3.95
1.82
-0.68
-3.49
-6.35
-9.02
-11.32
-13.24
-14.94
-16.74
-18.98
-21.95
-25.78
-30.35
-35.24
-39.77
-43.03
-44.13
-42.48
-37.96
-31.07
-22.80
-14.30
-6.51
0.03
5.25
9.42
12.86
15.76
18.18
20.05
21.32
22.04
22.32
22.36
22.34
22.34
22.36
22.34
22.28
22.22
22.33
22.74
23.45
24.28
24.87
24.80
23.82
21.91
19.37
16.66
14.16
12.03
10.14
8.23
6.01
3.34
0.19
-3.30
-6.89
-10.39
-13.64
-16.56
-19.20
-21.72
-24.37
-27.45
-31.13
-35.33
-39.60
-43.21
-45.24
-44.92
-41.84
-36.16
-28.53
-19.94
-11.37
-3.54
3.25
8.94
13.65
17.44
20.34
22.40
23.72
24.45
24.81
24.96
25.04
25.15
25.41
25.89
26.58
27.37
28.06
28.46
28.51
28.25
27.76
27.10
26.21
25.00
23.38
21.40
19.23
17.10
15.17
13.45
11.78
9.90
7.57
4.68
1.25
-2.53
-6.40
-10.13
-13.54
-16.59
-19.32
-21.89
-24.53
-27.55
-31.27
-35.91
-41.37
-47.17
-52.38
-55.92
-56.81
-54.54
-49.28
-41.75
-33.01
-24.06
-15.64
-8.08
-1.49
4.21
9.07
13.11
16.35
18.83
20.64
21.89
22.70
23.08
23.07
22.67
21.98
21.20
20.59
20.41
20.77
21.59
22.61
23.50
23.98
23.94
23.40
22.52
21.43
20.27
19.05
17.73
16.21
14.40
12.26
9.80
7.11
4.31
1.48
-1.32
-4.15
-7.03
-9.98
-12.93
-15.78
-18.43
-20.90
-23.29
-25.85
-28.80
-32.34
-36.54
-41.28
-46.21
-50.75
-54.12
-55.48
-54.19
-50.02
-43.33
-34.94
-25.95
-17.35
-9.75
-3.34
1.99
6.50
10.36
13.65
16.33
18.42
20.00
21.20
22.11
22.74
22.98
22.73
21.95
20.75
19.42
18.30
17.66
17.59
18.00
18.53
18.86
18.63
17.72
16.16
14.12
11.81
9.42
7.04
4.68
2.30
-0.18
-2.82
-5.61
-8.45
-11.13
-13.45
-15.34
-16.96
-18.69
-21.04
-24.42
-28.97
-34.41
-40.08
-45.08
-48.40
-49.26
-47.15
-42.09
-34.59
-25.56
-16.13
-7.26
0.41
6.74
11.94
16.40
20.39
23.97
27.03
29.39
31.01
31.95
32.43
32.66
32.72
32.63
32.31
31.72
30.87
29.93
29.08
28.44
27.96
27.45
26.61
25.20
23.15
20.60
17.84
15.17
12.76
10.54
8.26
5.58
2.31
-1.60
-5.95
-10.37
-14.51
-18.13
-21.20
-23.92
-26.63
-29.73
-33.55
-38.17
-43.42
-48.78
-53.36
-56.16
-56.26
-53.15
-46.89
-38.17
-28.10
-17.83
-8.24
0.21
7.46
13.65
18.93
23.38
26.95
29.61
31.36
32.32
32.69
32.73
32.70
32.80
33.11
33.58
34.04
34.32
34.31
34.04
33.60
33.11
32.56
31.84
30.79
29.32
27.44
25.29
22.96
20.49
17.83
14.93
11.74
8.35
4.91
1.50
-1.88
-5.30
-8.88
-12.60
-16.43
-20.20
-23.75
-26.97
-29.85
-32.49
-35.12
-37.99
-41.38
-45.45
-50.06
-54.67
-58.41
-60.14
-58.94
-54.38
-46.77
-37.03
-26.43
-16.16
-7.05
0.57
6.72
11.64
15.58
18.74
21.31
23.47
25.36
27.07
28.59
29.83
30.70
31.18
31.35
31.30
31.12
30.81
30.34
29.72
29.06
28.44
27.91
27.29
26.32
24.76
22.54
19.85
17.05
14.46
12.20
10.18
8.17
6.04
3.77
1.45
-0.82
-3.07
-5.37
-7.82
-10.41
-13.07
-15.69
-18.22
-20.66
-23.10
-25.69
-28.63
-32.16
-36.45
-41.53
-47.11
-52.54
-56.90
-59.19
-58.64
-54.99
-48.51
-39.96
-30.32
-20.51
-11.25
-2.93
4.31
10.46
15.55
19.60
22.64
24.71
25.95
26.56
26.73
26.65
26.48
26.25
26.02
25.74
25.37
24.90
24.36
23.81
23.36
23.05
22.81
22.47
21.77
20.57
18.84
16.71
14.42
12.14
9.96
7.80
5.56
3.10
0.36
-2.61
-5.70
-8.78
-11.70
-14.29
-16.48
-18.21
-19.56
-20.83
-22.53
-25.23
-29.36
-34.93
-41.37
-47.55
-52.13
-53.94
-52.33
-47.36
-39.74
-30.51
-20.73
-11.24
-2.58
4.99
11.34
16.46
20.35
23.14
25.01
26.18
26.91
27.42
27.84
28.24
28.64
29.05
29.52
30.12
30.92
31.89
32.90
33.71
34.05
33.75
32.81
31.39
29.69
27.90
26.03
24.01
21.77
19.23
16.45
13.45
10.29
7.00
3.59
0.06
-3.55
-7.25
-11.01
-14.78
-18.42
-21.75
-24.59
-26.86
-28.67
-30.37
-32.51
-35.58
-39.93
-45.51
-51.75
-57.65
-61.95
-63.49
-61.60
-56.30
-48.30
-38.68
-28.55
-18.78
-9.84
-1.89
5.00
10.85
15.65
19.47
22.49
24.92
27.00
28.85
30.47
31.74
32.55
32.85
32.71
32.34
32.02
32.01
32.47
33.30
34.22
34.80
34.69
33.72
31.96
29.74
27.54
25.72
24.42
23.50
22.56
21.15
19.02
16.16
12.86
9.55
6.58
4.02
1.69
-0.75
-3.59
-6.93
-10.69
-14.65
-18.61
-22.47
-26.20
-29.81
-33.34
-36.96
-40.89
-45.48
-50.96
-57.12
-63.17
-67.83
-69.69
-67.84
-62.17
-53.47
-43.10
-32.45
-22.47
-13.57
-5.68
1.40
7.76
13.29
17.81
21.18
23.45
24.92
25.93
26.84
27.82
28.82
29.67
30.23
30.45
30.44
30.38
30.37
30.38
30.26
29.74
28.70
27.13
25.21
23.19
21.35
19.78
18.40
16.99
15.29
13.12
10.51
7.57
4.47
1.30
-1.98
-5.42
-9.05
-12.76
-16.33
-19.56
-22.30
-24.58
-26.55
-28.51
-30.75
-33.63
-37.30
-41.67
-46.26
-50.18
-52.35
-51.83
-48.17
-41.62
-33.02
-23.52
-14.17
-5.69
1.68
7.97
13.35
17.92
21.71
24.65
26.75
28.13
28.94
29.40
29.58
29.47
29.02
28.22
27.23
26.25
25.57
25.31
25.43
25.72
25.88
25.68
25.08
24.19
23.18
22.13
20.99
19.61
17.83
15.64
13.15
10.54
7.92
5.26
2.39
-0.86
-4.57
-8.57
-12.60
-16.36
-19.67
-22.53
-25.15
-27.79
-30.79
-34.45
-38.93
-44.16
-49.68
-54.64
-57.96
-58.62
-56.02
-50.21
-41.90
-32.22
-22.33
-13.11
-5.01
1.91
7.76
12.76
17.00
20.59
23.57
25.97
27.81
29.08
29.79
29.99
29.77
29.32
28.90
28.69
28.77
29.07
29.40
29.52
29.24
28.49
27.36
25.95
24.47
23.01
21.64
20.36
19.11
17.78
16.27
14.50
12.48
10.28
8.06
5.92
3.87
1.77
-0.56
-3.23
-6.24
-9.44
-12.68
-15.87
-19.03
-22.28
-25.75
-29.65
-34.15
-39.40
-45.35
-51.57
-57.23
-61.26
-62.61
-60.68
-55.54
-47.88
-38.84
-29.51
-20.71
-12.82
-5.78
0.62
6.57
12.11
17.09
21.27
24.50
26.80
28.37
29.44
30.20
30.69
30.97
31.13
31.36
31.89
32.85
34.07
35.21
35.80
35.52
34.37
32.58
30.46
28.25
25.96
23.48
20.73
17.75
14.72
11.81
9.12
6.58
4.07
1.51
-1.07
-3.51
-5.72
-7.70
-9.67
-11.90
-14.64
-17.84
-21.29
-24.66
-27.71
-30.48
-33.19
-36.24
-39.97
-44.52
-49.76
-55.18
-59.98
-63.21
-63.94
-61.54
-55.89
-47.48
-37.32
-26.65
-16.58
-7.79
-0.53
5.34
10.01
13.68
16.47
18.50
19.97
21.11
22.13
23.16
24.22
25.27
26.28
27.25
28.20
29.10
29.86
30.36
30.48
30.26
29.75
29.05
28.17
27.01
25.44
23.34
20.75
17.86
14.93
12.16
9.58
7.04
4.31
1.27
-2.12
-5.68
-9.22
-12.57
-15.63
-18.40
-20.91
-23.23
-25.47
-27.79
-30.43
-33.61
-37.45
-41.77
-46.09
-49.60
-51.36
-50.55
-46.81
-40.34
-31.88
-22.52
-13.25
-4.74
2.74
9.28
15.03
20.02
24.10
27.00
28.55
28.78
28.03
26.81
25.72
25.21
25.49
26.52
28.05
29.72
31.23
32.37
33.06
33.35
33.27
32.83
31.95
30.55
28.56
26.08
23.27
20.37
17.55
14.80
12.07
9.19
6.06
2.68
-0.90
-4.58
-8.25
-11.84
-15.24
-18.41
-21.33
-24.14
-27.10
-30.60
-34.96
-40.27
-46.24
-52.09
-56.72
-59.04
-58.26
-54.23
-47.41
-38.75
-29.35
-20.20
-11.88
-4.63
1.57
6.88
11.52
15.60
19.21
22.34
24.93
26.94
28.35
29.19
29.66
29.94
30.25
30.70
31.28
31.87
32.30
32.47
32.30
31.85
31.13
30.20
29.04
27.70
26.23
24.71
23.19
21.60
19.84
17.75
15.29
12.55
9.72
6.98
4.40
1.87
-0.84
-3.94
-7.52
-11.46
-15.54
-19.53
-23.25
-26.70
-29.98
-33.34
-37.06
-41.41
-46.45
-51.95
-57.27
-61.43
-63.39
-62.28
-57.83
-50.40
-40.97
-30.79
-20.95
-12.10
-4.45
2.17
7.99
13.19
17.79
21.72
24.97
27.58
29.65
31.26
32.44
33.12
33.29
33.01
32.44
31.82
31.30
30.96
30.71
30.40
29.86
28.98
27.76
26.28
24.60
22.76
20.74
18.54
16.17
13.69
11.16
8.64
6.15
3.67
1.17
-1.41
-4.06
-6.84
-9.78
-12.88
-16.09
-19.28
-22.32
-25.15
-27.84
-30.60
-33.77
-37.65
-42.38
-47.85
-53.57
-58.68
-62.16
-63.02
-60.63
-54.97
-46.62
-36.67
-26.28
-16.43
-7.67
-0.20
6.08
11.33
15.65
19.04
21.46
22.90
23.45
23.34
22.89
22.45
22.27
22.38
22.67
22.95
23.12
23.21
23.36
23.68
24.12
24.53
24.66
24.30
23.41
22.08
20.49
18.81
17.13
15.46
13.74
11.90
9.84
7.51
4.85
1.87
-1.40
-4.91
-8.58
-12.28
-15.85
-19.18
-22.24
-25.22
-28.46
-32.32
-37.01
-42.34
-47.68
-52.03
-54.26
-53.53
-49.53
-42.58
-33.53
-23.51
-13.55
-4.41
3.60
10.46
16.34
21.41
25.76
29.34
32.07
33.86
34.73
34.85
34.52
34.06
33.79
33.87
34.29
34.89
35.46
35.76
35.65
35.04
33.90
32.24
30.11
27.57
24.79
21.90
19.04
16.26
13.57
10.89
8.17
5.41
2.66
0.05
-2.37
-4.65
-6.92
-9.35
-12.04
-15.04
-18.36
-21.95
-25.76
-29.85
-34.24
-39.00
-44.15
-49.61
-55.15
-60.24
-64.19
-66.20
-65.65
-62.30
-56.36
-48.43
-39.24
-29.50
-19.74
-10.33
-1.56
6.35
13.20
18.83
23.20
26.34
28.41
29.64
30.25
30.48
30.55
30.62
30.83
31.20
31.68
32.20
32.58
32.69
32.43
31.73
30.60
29.13
27.42
25.67
24.03
22.60
21.37
20.13
18.59
16.47
13.64
10.23
6.50
2.77
-0.79
-4.26
-7.84
-11.70
-15.86
-20.17
-24.34
-28.12
-31.42
-34.34
-37.09
-39.99
-43.30
-47.27
-51.96
-57.16
-62.29
-66.44
-68.51
-67.61
-63.32
-55.90
-46.21
-35.49
-24.93
-15.35
-7.11
-0.11
5.94
11.32
16.05
20.01
23.05
25.13
26.46
27.46
28.51
29.84
31.40
32.95
34.21
35.04
35.50
35.72
35.86
35.93
35.76
35.09
33.68
31.42
28.45
25.06
21.68
18.64
16.04
13.73
11.34
8.51
5.01
0.90
-3.55
-7.95
-12.02
-15.66
-19.04
-22.52
-26.56
-31.47
-37.38
-43.96
-50.48
-55.91
-59.14
-59.33
-56.10
-49.68
-40.82
-30.59
-20.07
-10.10
-1.14
6.78
13.84
20.25
26.01
30.99
34.88
37.54
39.01
39.62
39.79
39.86
40.03
40.27
40.48
40.52
40.35
40.01
39.58
39.07
38.40
37.34
35.61
33.01
29.52
25.38
21.07
17.02
13.52
10.49
7.57
4.33
0.52
-3.79
-8.27
-12.50
-16.17
-19.21
-21.77
-24.16
-26.75
-29.89
-33.86
-38.88
-44.94
-51.63
-58.10
-63.14
-65.48
-64.18
-59.01
-50.51
-39.86
-28.48
-17.56
-7.83
0.48
7.54
13.63
18.98
23.68
27.70
30.96
33.37
34.92
35.72
35.94
35.80
35.50
35.11
34.63
34.07
33.44
32.82
32.34
32.05
31.86
31.57
30.91
29.67
27.77
25.29
22.48
19.61
16.93
14.57
12.51
10.63
8.71
6.59
4.10
1.21
-2.05
-5.56
-9.15
-12.58
-15.68
-18.44
-20.99
-23.71
-27.10
-31.64
-37.58
-44.73
-52.34
-59.24
-64.03
-65.53
-63.14
-57.06
-48.21
-37.92
-27.49
-17.88
-9.47
-2.27
3.94
9.37
14.13
18.24
21.69
24.44
26.54
28.01
28.92
29.34
29.34
29.05
28.65
28.31
28.22
28.49
29.08
29.81
30.35
30.36
29.54
27.80
25.26
22.16
18.85
15.60
12.61
10.00
7.76
5.83
3.99
2.03
-0.32
-3.20
-6.66
-10.50
-14.47
-18.30
-21.90
-25.40
-29.16
-33.56
-38.85
-44.95
-51.34
-57.13
-61.20
-62.48
-60.28
-54.57
-45.98
-35.68
-24.99
-15.01
-6.32
0.99
7.24
12.73
17.60
21.74
24.93
27.07
28.26
28.78
28.99
29.14
29.31
29.51
29.70
29.91
30.20
30.62
31.10
31.47
31.46
30.80
29.41
27.34
24.86
22.26
19.85
17.70
15.74
13.70
11.34
8.50
5.13
1.32
-2.78
-7.06
-11.44
-15.82
-20.16
-24.48
-28.83
-33.39
-38.26
-43.33
-48.13
-51.81
-53.38
-52.03
-47.47
-40.05
-30.71
-20.62
-10.83
-2.04
5.48
11.79
17.12
21.61
25.36
28.33
30.47
31.80
32.49
32.76
32.86
32.99
33.24
33.56
33.86
34.07
34.19
34.26
34.38
34.52
34.60
34.36
33.59
32.11
29.89
27.05
23.80
20.35
16.85
13.30
9.68
5.98
2.24
-1.45
-5.02
-8.45
-11.76
-14.98
-18.09
-21.03
-23.68
-26.03
-28.19
-30.45
-33.23
-36.89
-41.65
-47.36
-53.45
-58.93
-62.67
-63.67
-61.42
-56.07
-48.35
-39.31
-29.94
-20.95
-12.62
-5.02
1.89
8.05
13.32
17.61
20.89
23.25
24.81
25.70
25.98
25.72
25.07
24.22
23.48
23.08
23.15
23.59
24.23
24.82
25.24
25.50
25.63
25.67
25.57
25.18
24.39
23.16
21.60
19.84
18.00
16.10
14.02
11.70
9.07
6.16
3.01
-0.35
-3.92
-7.69
-11.61
-15.56
-19.44
-23.18
-26.80
-30.45
-34.34
-38.70
-43.61
-48.89
-53.96
-57.95
-59.80
-58.69
-54.39
-47.31
-38.48
-29.12
-20.21
-12.28
-5.33
0.83
6.39
11.33
15.55
18.86
21.26
22.84
23.79
24.28
24.42
24.25
23.85
23.33
22.88
22.61
22.64
22.95
23.42
23.88
24.04
23.65
22.52
20.65
18.20
15.52
12.93
10.62
8.59
6.60
4.38
1.73
-1.34
-4.65
-7.91
-10.88
-13.47
-15.81
-18.18
-20.95
-24.42
-28.74
-33.83
-39.19
-43.99
-47.17
-47.78
-45.31
-39.88
-32.27
-23.61
-15.04
-7.30
-0.63
5.16
10.38
15.25
19.68
23.46
26.30
28.11
29.05
29.46
29.71
30.08
30.60
31.12
31.40
31.29
30.87
30.40
30.14
30.17
30.29
30.05
28.96
26.75
23.49
19.64
15.80
12.44
9.72
7.52
5.42
3.05
0.17
-3.24
-6.97
-10.75
-14.39
-17.77
-20.94
-24.05
-27.30
-30.93
-35.18
-40.18
-45.77
-51.37
-56.04
-58.63
-58.24
-54.49
-47.74
-38.96
-29.30
-19.79
-11.05
-3.30
3.50
9.40
14.43
18.57
21.81
24.22
25.94
27.18
28.06
28.66
28.99
29.05
28.90
28.69
28.61
28.77
29.20
29.73
30.14
30.19
29.77
28.87
27.57
25.97
24.16
22.21
20.15
18.03
15.86
13.66
11.39
9.07
6.66
4.18
1.58
-1.20
-4.23
-7.56
-11.12
-14.69
-18.06
-21.07
-23.80
-26.54
-29.69
-33.64
-38.57
-44.26
-50.01
-54.83
-57.58
-57.42
-54.08
-47.96
-40.01
-31.34
-22.90
-15.23
-8.51
-2.68
2.39
6.75
10.43
13.47
15.94
17.90
19.37
20.25
20.50
20.17
19.45
18.65
18.04
17.76
17.76
17.90
18.01
17.93
17.62
17.08
16.37
15.46
14.32
12.83
10.94
8.70
6.28
3.88
1.59
-0.64
-3.00
-5.72
-8.90
-12.44
-16.06
-19.43
-22.36
-24.83
-27.10
-29.63
-32.90
-37.26
-42.75
-48.93
-54.89
-59.42
-61.37
-60.09
-55.60
-48.65
-40.38
-31.83
-23.70
-16.28
-9.53
-3.44
1.92
6.42
9.98
12.67
14.71
16.34
17.72
18.87
19.81
20.57
21.26
21.98
22.74
23.38
23.68
23.43
22.56
21.18
19.47
17.61
15.67
13.62
11.38
8.87
6.12
3.20
0.27
-2.50
-5.06
-7.50
-10.05
-13.05
-16.85
-21.64
-27.42
-33.88
-40.43
-46.27
-50.48
-52.30
-51.29
-47.41
-41.10
-33.06
-24.02
-14.64
-5.38
3.39
11.39
18.33
24.01
28.38
31.50
33.55
34.77
35.35
35.47
35.26
34.77
34.06
33.17
32.23
31.39
30.81
30.52
30.31
29.83
28.71
26.75
24.08
21.00
17.88
14.89
11.96
8.88
5.46
1.69
-2.25
-6.11
-9.72
-13.02
-16.10
-19.11
-22.23
-25.70
-29.78
-34.67
-40.31
-46.26
-51.66
-55.41
-56.57
-54.62
