1520262894.00
64.000000
-0.00
-0.00
-0.00
-0.00
-0.00
-0.00
-0.00
-0.00
-0.00
-0.00
0.00
0.01
0.01
-0.00
-0.03
-0.05
-0.05
0.00
0.13
0.36
0.66
1.01
1.37
1.72
2.06
2.40
2.79
3.24
3.80
4.42
5.06
5.66
6.20
6.68
7.15
7.68
8.31
9.14
10.09
11.04
11.88
12.56
13.14
13.76
14.65
15.96
17.91
20.32
22.90
25.38
27.58
29.57
31.68
34.32
37.81
42.54
48.15
54.10
59.83
64.97
69.58
74.14
79.34
85.71
93.76
103.00
112.62
121.73
129.77
136.75
143.30
150.75
157.77
166.64
177.95
191.79
206.97
220.57
228.25
225.36
208.53
176.87
132.76
80.05
23.07
-34.94
-92.44
-149.16
-205.23
-260.37
-313.74
-363.87
-409.83
-450.91
-486.50
-515.74
-537.23
-549.22
-549.96
-538.37
-514.21
-478.67
-433.88
-382.45
-327.02
-269.84
-212.63
-156.66
-102.95
-52.37
-5.90
35.58
71.43
101.35
125.50
144.38
158.69
169.15
176.37
180.75
182.57
182.07
179.51
175.23
169.65
163.18
156.15
148.81
141.30
133.69
126.02
118.33
110.69
103.16
95.80
88.68
81.83
75.25
68.95
62.95
57.25
51.86
46.78
42.03
37.59
33.45
29.61
26.07
22.81
19.83
17.11
14.67
12.48
10.54
8.83
7.35
6.07
4.97
4.05
3.27
2.62
2.09
1.65
1.30
1.01
0.79
0.61
0.47
0.37
0.29
0.23
0.20
0.17
0.16
0.16
0.17
0.19
0.21
0.24
0.28
0.32
0.36
0.40
0.45
0.50
0.54
0.59
0.64
0.70
0.76
0.84
0.94
1.03
1.11
1.16
1.18
1.19
1.20
1.26
1.38
1.57
1.79
2.03
2.25
2.44
2.61
2.82
3.09
3.47
3.95
4.48
5.01
5.47
5.85
6.18
6.55
7.06
7.78
8.69
9.67
10.58
11.25
11.66
11.91
12.20
12.78
13.81
15.22
16.76
17.96
18.44
17.95
16.57
14.60
12.44
10.34
8.25
5.77
2.35
-2.47
-8.68
-15.79
-22.91
-29.15
-33.89
-37.06
-39.10
-40.70
-42.53
-45.07
-48.58
-53.10
-58.16
-62.58
-64.38
-61.39
-52.18
-37.07
-18.44
-0.03
14.56
23.33
26.56
26.32
25.15
24.73
25.28
25.96
25.79
24.38
22.15
19.90
18.21
17.03
15.89
14.16
11.58
8.45
5.51
3.53
2.88
3.39
4.42
5.23
5.41
4.96
4.27
3.70
3.31
2.89
2.14
1.12
0.22
0.22
1.79
5.31
10.56
16.80
22.91
27.68
30.14
29.79
26.77
21.53
15.30
9.54
5.39
3.32
3.08
3.98
5.28
6.50
7.35
7.75
7.48
6.29
4.04
0.89
-2.54
-5.34
-6.52
-5.11
-0.45
7.63
18.55
30.87
42.38
50.49
52.82
48.00
36.32
19.87
2.00
-13.60
-24.05
-28.05
-26.14
-20.26
-12.90
-6.21
-1.56
0.58
0.33
-1.87
-5.43
-9.73
-14.05
-17.72
-20.24
-21.42
-21.42
-20.56
-19.26
-17.85
-16.62
-15.88
-15.92
-16.95
-18.97
-21.70
-24.60
-27.07
-28.61
-28.91
-27.94
-25.73
-22.44
-18.32
-13.75
-9.24
-5.41
-2.68
-1.10
-0.19
0.93
3.17
7.07
12.44
18.38
23.64
27.15
28.44
27.84
26.27
24.79
24.13
24.41
25.19
25.64
24.99
22.75
18.83
13.58
7.66
1.83
-3.13
-6.62
-8.40
-8.54
-7.51
-5.98
-4.62
-3.89
-3.86
-4.25
-4.62
-4.66
-4.35
-3.96
-3.80
-3.99
-4.23
-3.97
-2.74
-0.47
2.32
4.75
6.07
6.11
5.41
4.92
5.49
7.35
9.97
12.30
13.32
12.49
9.91
6.20
2.12
-1.76
-5.24
-8.43
-11.51
-14.63
-17.71
-20.54
-22.76
-24.03
-24.10
-22.86
-20.38
-16.93
-12.91
-8.80
-5.05
-1.91
0.55
2.45
4.05
5.55
7.02
8.38
9.38
9.75
9.29
8.05
6.26
4.32
2.63
1.44
0.76
0.44
0.27
0.16
0.15
0.32
0.65
0.94
0.88
0.24
-0.99
-2.53
-3.94
-4.91
-5.40
-5.75
-6.51
-8.14
-10.80
-14.23
-17.79
-20.77
-22.56
-22.91
-21.87
-19.74
-16.90
-13.69
-10.42
-7.32
-4.57
-2.27
-0.36
1.31
2.93
4.61
6.28
7.74
8.85
9.54
9.96
10.33
10.88
11.65
12.50
13.29
13.87
14.23
14.42
14.42
14.13
13.47
12.42
11.13
9.85
8.82
8.09
7.43
6.52
5.06
2.98
0.47
-2.11
-4.42
-6.29
-7.75
-9.04
-10.44
-12.25
-14.63
-17.48
-20.52
-23.22
-25.00
-25.44
-24.36
-21.93
-18.53
-14.63
-10.66
-6.95
-3.64
-0.81
1.61
3.76
5.81
7.91
10.09
12.22
14.02
15.20
15.56
15.16
14.21
13.03
11.95
11.19
10.88
11.04
11.60
12.39
13.18
13.68
13.66
12.95
11.51
9.48
7.13
4.71
2.41
0.28
-1.76
-3.85
-6.04
-8.29
-10.46
-12.38
-13.91
-15.04
-15.89
-16.72
-17.84
-19.51
-21.79
-24.54
-27.34
-29.62
-30.84
-30.65
-28.95
-25.83
-21.50
-16.28
-10.54
-4.81
0.35
4.46
7.31
9.03
10.01
10.71
11.39
12.10
12.68
13.03
13.19
13.29
13.52
13.93
14.42
14.79
14.86
14.56
13.98
13.32
12.83
12.63
12.69
12.79
12.67
12.11
11.00
9.35
7.27
4.89
2.29
-0.45
-3.22
-5.86
-8.12
-9.81
-10.88
-11.48
-11.87
-12.37
-13.19
-14.43
-16.09
-18.16
-20.58
-23.28
-26.06
-28.56
-30.25
-30.57
-29.10
-25.81
-21.02
-15.38
-9.58
-4.11
0.75
4.99
8.61
11.67
14.13
15.94
17.12
17.72
17.85
17.57
16.93
16.05
15.11
14.39
14.12
14.36
15.00
15.72
16.24
16.36
16.06
15.46
14.68
13.81
12.79
11.49
9.81
7.73
5.34
2.81
0.33
-1.95
-3.94
-5.57
-6.88
-7.93
-8.83
-9.63
-10.35
-10.93
-11.34
-11.69
-12.30
-13.63
-16.08
-19.70
-24.05
-28.27
-31.32
-32.44
-31.33
-28.27
-23.83
-18.70
-13.41
-8.33
-3.77
-0.03
2.62
4.01
4.22
3.60
2.54
1.40
0.31
-0.80
-1.95
-3.09
-3.97
-4.32
-3.97
-3.03
-1.87
-0.92
-0.48
-0.54
-0.79
-0.82
-0.35
0.59
1.66
2.32
2.10
0.77
-1.57
-4.52
-7.59
-10.33
-12.54
-14.22
-15.55
-16.83
-18.34
-20.31
-22.78
-25.59
-28.34
-30.49
-31.45
-30.70
-27.97
-23.27
-16.99
-9.84
-2.75
3.42
8.03
10.95
12.51
13.30
13.87
14.47
15.01
15.18
14.81
13.95
12.97
12.27
12.11
12.45
13.07
13.67
14.05
14.12
13.79
12.95
11.52
9.52
7.23
5.13
3.68
3.10
3.31
3.84
4.18
3.96
3.00
1.37
-0.83
-3.53
-6.68
-10.09
-13.36
-15.75
-16.38
-14.56
-10.01
-3.08
5.41
14.40
22.94
30.40
36.56
41.48
45.32
48.24
50.25
51.23
50.97
49.21
45.77
40.60
33.87
26.02
17.74
9.81
2.91
-2.54
-6.40
-8.82
-10.19
-11.05
-12.05
-13.90
-17.17
-22.22
-28.90
-36.67
-44.68
-52.05
-58.13
-62.63
-65.71
-67.91
-70.14
-73.50
-79.16
-87.87
-99.49
-112.76
-125.40
-134.80
-138.86
-136.77
-129.25
-118.06
-105.26
-92.28
-79.61
-66.96
-53.80
-39.90
-25.58
-11.42
2.03
14.66
26.73
38.57
50.18
60.99
70.04
76.41
79.69
80.32
79.34
78.02
77.25
77.33
77.94
78.50
78.52
77.83
76.54
74.90
73.13
71.31
69.30
66.89
63.78
59.73
54.54
48.20
40.89
32.92
24.68
16.46
8.44
0.66
-6.90
-14.33
-21.74
-29.22
-36.72
-43.94
-50.21
-54.71
-56.59
-55.36
-51.04
-44.23
-35.86
-27.00
-18.58
-11.26
-5.40
-1.07
1.96
4.19
6.22
8.62
11.72
15.43
19.34
22.83
25.32
26.50
26.32
25.05
23.14
21.12
19.42
18.27
17.57
16.92
15.71
13.39
9.72
4.90
-0.52
-5.87
-10.60
-14.52
-17.76
-20.71
-23.90
-27.74
-32.49
-38.02
-43.72
-48.53
-51.16
-50.52
-46.09
-38.30
-28.34
-17.89
-8.54
-1.25
3.76
6.95
8.98
10.35
11.10
10.90
9.36
6.38
2.31
-2.13
-6.02
-8.83
-10.56
-11.94
-13.80
-16.89
-21.65
-28.13
-35.74
-43.16
-48.39
-49.21
-43.68
-30.56
-10.00
16.21
44.79
71.79
93.79
108.46
115.02
114.09
107.81
98.81
89.21
80.07
71.54
64.18
58.17
53.31
48.39
43.05
37.13
30.56
23.28
15.60
9.96
8.22
10.54
14.28
18.37
22.69
28.00
34.99
44.10
57.86
76.89
99.44
120.68
140.19
160.37
184.90
215.91
252.98
296.34
342.66
385.57
415.55
429.96
430.78
422.83
410.47
375.16
310.76
226.19
157.01
107.78
75.27
51.17
32.32
16.14
0.38
-13.19
-23.40
-30.91
-40.41
-52.35
-65.63
-78.86
-92.02
-105.80
-118.21
-128.01
-135.51
-144.24
-154.51
-165.43
-175.79
-185.45
-194.83
-202.87
-209.20
-214.63
-222.01
-231.76
-242.89
-253.47
-261.73
-266.25
-265.43
-258.82
-247.27
-233.15
-217.90
-202.34
-186.88
-171.93
-157.82
-144.53
-132.04
-120.52
-110.48
-102.03
-95.02
-89.04
-83.57
-78.14
-72.40
-66.23
-59.71
-53.01
-46.23
-39.50
-32.99
-27.10
-22.40
-19.34
-17.99
-17.70
-17.29
-15.36
-10.83
-3.36
6.62
18.06
29.68
40.44
49.75
57.50
64.01
69.72
75.02
80.15
85.10
89.64
93.32
95.63
96.13
94.61
91.12
85.98
79.67
72.75
65.74
59.07
52.96
47.33
41.88
36.23
30.08
23.46
16.70
10.28
4.44
-1.03
-6.69
-13.26
-21.09
-29.98
-39.15
-47.49
-53.94
-57.65
-58.21
-55.62
-50.30
-43.07
-34.96
-26.98
-19.81
-13.77
-8.76
-4.65
-1.45
0.68
1.59
1.42
0.63
-0.15
-0.48
-0.28
0.18
0.51
0.49
0.21
-0.08
-0.14
0.09
0.43
0.63
0.53
0.11
-0.64
-1.76
-3.37
-5.70
-8.87
-12.85
-17.38
-21.96
-26.01
-28.91
-30.17
-29.54
-27.00
-22.84
-17.56
-11.76
-6.05
-0.90
3.39
6.70
9.01
10.36
10.81
10.48
9.56
8.35
7.11
6.05
5.18
4.34
3.40
2.31
1.20
0.25
-0.42
-0.83
-1.14
-1.57
-2.27
-3.31
-4.71
-6.51
-8.76
-11.56
-15.02
-19.20
-24.02
-29.24
-34.40
-38.89
-42.06
-43.40
-42.72
-40.16
-36.21
-31.49
-26.65
-22.24
-18.64
-16.06
-14.47
-13.66
-13.29
-13.01
-12.57
-11.92
-11.13
-10.38
-9.73
-9.24
-8.84
-8.37
-7.71
-6.77
-5.48
-3.81
-1.88
0.11
1.90
3.24
4.00
4.27
4.28
4.32
4.51
4.68
4.43
3.30
1.09
-1.94
-5.09
-7.42
-8.12
-6.75
-3.33
1.77
7.97
14.74
21.59
28.14
34.02
38.90
42.46
44.54
45.13
44.37
42.58
40.17
37.55
35.04
32.84
30.96
29.33
27.85
26.43
25.01
23.55
21.95
20.14
18.08
15.78
13.35
10.94
8.65
6.45
4.20
1.70
-1.20
-4.53
-8.25
-12.18
-16.17
-20.04
-23.58
-26.50
-28.45
-29.05
-28.02
-25.26
-20.96
-15.51
-9.46
-3.37
2.28
7.12
10.95
13.74
15.59
16.76
17.53
18.14
18.73
19.28
19.64
19.64
19.17
18.23
16.99
15.66
14.47
13.54
12.84
12.28
11.77
11.25
10.69
10.06
9.26
8.13
6.57
4.64
2.53
0.49
-1.41
-3.24
-5.26
-7.67
-10.44
-13.38
-16.26
-18.92
-21.38
-23.66
-25.61
-26.86
-26.93
-25.49
-22.55
-18.47
-13.74
-8.78
-3.83
1.04
5.68
9.81
13.07
15.18
16.06
15.89
15.07
14.01
13.04
12.28
11.76
11.35
10.96
10.57
10.18
9.90
9.84
10.02
10.33
10.57
10.45
9.78
8.54
6.81
4.78
2.64
0.52
-1.50
-3.37
-5.11
-6.87
-8.81
-11.12
-13.88
-17.02
-20.28
-23.23
-25.42
-26.39
-25.77
-23.35
-19.25
-13.89
-7.96
-2.22
2.77
6.75
9.75
11.95
13.42
14.12
14.02
13.26
12.16
11.13
10.38
9.84
9.20
8.19
6.82
5.41
4.42
4.12
4.43
4.94
5.17
4.74
3.61
1.96
-0.01
-2.17
-4.48
-6.96
-9.53
-12.02
-14.25
-16.12
-17.72
-19.25
-20.89
-22.68
-24.45
-25.77
-26.12
-25.05
-22.29
-17.94
-12.39
-6.26
-0.24
5.11
9.48
12.83
15.27
16.94
17.95
18.34
18.25
17.83
17.28
16.71
16.10
15.31
14.25
12.94
11.62
10.63
10.25
10.51
11.16
11.82
12.07
11.65
10.44
8.51
6.04
3.24
0.36
-2.39
-4.85
-7.01
-8.93
-10.75
-12.64
-14.71
-17.08
-19.76
-22.70
-25.67
-28.31
-30.10
-30.58
-29.46
-26.68
-22.42
-17.09
-11.17
-5.18
0.39
5.19
9.00
11.80
13.76
15.09
15.97
16.45
16.53
16.29
15.89
15.59
15.62
15.98
16.45
16.74
16.64
16.21
15.67
15.26
15.02
14.82
14.38
13.47
12.08
10.36
8.53
6.77
5.18
3.69
2.18
0.50
-1.51
-3.84
-6.39
-8.94
-11.24
-13.18
-14.88
-16.74
-19.20
-22.47
-26.31
-30.06
-32.82
-33.83
-32.70
-29.55
-24.92
-19.48
-13.85
-8.46
-3.43
1.32
5.88
10.30
14.41
17.85
20.26
21.35
21.18
20.09
18.66
17.43
16.71
16.48
16.52
16.51
16.26
15.76
15.19
14.80
14.70
14.87
15.07
15.03
14.53
13.52
12.11
10.50
8.89
7.46
6.29
5.42
4.79
4.29
3.70
2.77
1.27
-0.84
-3.44
-6.25
-8.94
-11.22
-12.97
-14.24
-15.18
-16.08
-17.23
-18.91
-21.24
-24.12
-27.16
-29.77
-31.34
-31.40
-29.77
-26.56
-22.08
-16.72
-10.89
-4.98
0.65
5.69
9.85
12.91
14.79
15.58
15.53
15.00
14.36
13.93
13.84
14.06
14.43
14.79
15.06
15.26
15.49
15.76
16.02
16.07
15.81
15.26
14.66
14.20
13.95
13.69
13.05
11.69
9.58
7.11
4.83
3.16
2.12
1.34
0.32
-1.20
-3.16
-5.21
-7.05
-8.65
-10.13
-11.69
-13.42
-15.23
-17.05
-18.93
-21.12
-23.84
-27.03
-30.19
-32.54
-33.26
-31.81
-28.13
-22.64
-16.05
-9.18
-2.77
2.70
7.03
10.27
12.60
14.27
15.43
16.10
16.29
15.93
15.09
13.91
12.62
11.46
10.59
10.04
9.70
9.48
9.26
9.10
9.14
9.48
10.05
10.59
10.75
10.28
9.22
7.89
6.67
5.80
5.21
4.54
3.34
1.35
-1.37
-4.38
-7.18
-9.37
-10.89
-12.04
-13.35
-15.25
-17.96
-21.34
-24.92
-28.10
-30.25
-30.96
-30.01
-27.44
-23.46
-18.44
-12.81
-7.07
-1.73
2.91
6.69
9.70
12.07
13.96
15.39
16.28
16.52
16.03
14.89
13.29
11.59
10.14
9.27
9.04
9.33
9.79
10.05
9.93
9.45
8.89
8.44
8.14
7.78
7.04
5.82
4.23
2.59
1.09
-0.29
-1.84
-3.85
-6.49
-9.52
-12.57
-15.34
-17.80
-20.16
-22.70
-25.55
-28.53
-31.17
-32.84
-32.99
-31.30
-27.82
-22.89
-17.04
-10.85
-4.74
0.96
6.03
10.27
13.48
15.52
16.44
16.49
16.03
15.43
14.88
14.37
13.81
13.21
12.69
12.40
12.44
12.66
12.79
12.54
11.77
10.61
9.32
8.22
7.55
7.31
7.28
7.11
6.39
4.82
2.34
-0.78
-4.06
-6.98
-9.24
-10.89
-12.22
-13.71
-15.67
-18.22
-21.27
-24.59
-27.83
-30.60
-32.49
-33.08
-31.99
-29.12
-24.62
-18.92
-12.72
-6.68
-1.31
3.17
6.77
9.68
12.04
13.90
15.22
15.92
16.07
15.86
15.55
15.37
15.37
15.40
15.32
15.03
14.58
14.11
13.80
13.77
14.09
14.71
15.57
16.49
17.27
17.56
17.09
15.66
13.30
10.28
7.05
4.06
1.65
-0.09
-1.41
-2.69
-4.36
-6.65
-9.53
-12.76
-16.08
-19.37
-22.69
-26.27
-30.18
-34.35
-38.35
-41.58
-43.47
-43.70
-42.19
-39.11
-34.65
-29.02
-22.48
-15.41
-8.33
-1.87
3.50
7.61
10.57
12.65
14.10
15.03
15.49
15.58
15.56
15.68
16.09
16.69
17.23
17.60
17.81
18.16
18.95
20.28
21.95
23.60
24.84
25.44
25.35
24.62
23.30
21.49
19.34
17.05
14.85
12.88
11.17
9.61
8.00
6.17
4.06
1.66
-0.96
-3.68
-6.36
-8.96
-11.47
-13.99
-16.56
-19.24
-22.07
-25.17
-28.64
-32.55
-36.68
-40.47
-43.05
-43.53
-41.30
-36.33
-29.13
-20.65
-11.93
-3.84
3.09
8.65
12.92
16.11
18.47
20.15
21.21
21.63
21.51
21.05
20.50
20.20
20.23
20.55
20.96
21.30
21.54
21.77
22.14
22.66
23.22
23.54
23.36
22.55
21.08
19.07
16.73
14.33
12.11
10.31
8.99
8.03
7.19
6.18
4.78
2.86
0.46
-2.40
-5.63
-9.11
-12.68
-16.13
-19.35
-22.34
-25.27
-28.26
-31.35
-34.25
-36.57
-37.89
-37.90
-36.43
-33.43
-28.88
-22.92
-15.89
-8.43
-1.33
4.71
9.33
12.53
14.52
15.61
16.05
15.95
15.48
14.80
14.04
13.26
12.49
11.75
11.21
11.02
11.32
12.12
13.23
14.37
15.30
15.89
16.08
15.84
15.03
13.51
11.14
7.93
3.98
-0.45
-5.03
-9.39
-13.26
-16.41
-18.88
-20.95
-23.09
-25.75
-29.16
-33.09
-36.84
-39.44
-39.96
-37.85
-33.14
-26.39
-18.47
-10.22
-2.33
4.83
11.07
16.22
20.11
22.54
23.46
23.11
21.94
20.55
19.47
19.04
19.27
19.98
20.84
21.52
21.76
21.46
20.69
19.65
18.55
17.57
16.75
16.04
15.29
14.41
13.38
12.14
10.64
8.69
6.11
2.82
-0.97
-4.88
-8.45
-11.42
-13.88
-16.06
-18.27
-20.73
-23.53
-26.84
-30.82
-35.59
-40.92
-46.12
-50.02
-51.40
-49.47
-44.18
-36.26
-26.91
-17.32
-8.32
-0.27
6.78
12.91
18.14
22.41
25.60
27.71
28.82
29.20
29.10
28.72
28.19
27.57
26.94
26.44
26.22
26.34
26.69
27.04
27.03
26.43
25.10
23.15
20.83
18.54
16.59
15.16
14.21
13.45
12.45
10.81
8.34
5.19
1.67
-1.89
-5.23
-8.36
-11.42
-14.61
-18.08
-21.94
-26.22
-30.87
-35.73
-40.42
-44.43
-47.14
-47.94
-46.37
-42.22
-35.63
-27.08
-17.34
-7.37
1.91
9.73
15.68
19.71
22.07
23.13
23.35
23.11
22.72
22.41
22.34
22.55
23.01
23.62
24.23
24.70
24.86
24.65
24.10
23.32
22.45
21.57
20.64
19.55
18.21
16.59
14.69
12.49
9.91
6.82
3.21
-0.72
-4.59
-7.95
-10.53
-12.39
-14.01
-16.04
-19.11
-23.58
-29.31
-35.71
-41.75
-46.23
-48.10
-46.79
-42.37
-35.53
-27.32
-18.77
-10.64
-3.31
3.12
8.68
13.40
17.23
20.15
22.19
23.49
24.34
25.04
25.78
26.65
27.58
28.36
28.83
28.95
28.84
28.71
28.74
28.91
29.00
28.70
27.79
26.22
24.09
21.58
18.94
16.33
13.85
11.51
9.21
6.76
3.95
0.74
-2.79
-6.41
-9.91
-13.19
-16.33
-19.55
-23.02
-26.81
-30.79
-34.68
-38.09
-40.62
-41.91
-41.65
-39.71
-36.06
-30.86
-24.39
-17.08
-9.43
-1.96
4.82
10.57
15.06
18.19
19.96
20.40
19.70
18.22
16.49
15.07
14.37
14.46
15.11
15.99
16.83
17.58
18.23
18.74
18.93
18.60
17.70
16.41
15.02
13.72
12.47
11.00
9.02
6.38
3.16
-0.42
-4.18
-8.01
-11.95
-16.08
-20.42
-24.93
-29.45
-33.66
-37.12
-39.22
-39.45
-37.50
-33.44
-27.64
-20.66
-13.07
-5.36
2.01
8.62
14.09
18.18
20.88
22.45
23.19
23.33
23.03
22.37
21.47
20.61
20.07
20.03
20.45
21.11
21.74
22.15
22.28
22.17
21.83
21.25
20.35
19.06
17.40
15.37
13.04
10.39
7.40
4.07
0.45
-3.35
-7.20
-11.00
-14.73
-18.47
-22.31
-26.31
-30.45
-34.48
-38.01
-40.47
-41.33
-40.13
-36.70
-31.20
-24.16
-16.39
-8.72
-1.84
3.89
8.41
11.91
14.59
16.54
17.79
18.41
18.54
18.50
18.58
18.99
19.78
20.83
22.00
23.21
24.38
25.46
26.35
26.91
26.96
26.44
25.33
23.73
21.79
19.65
17.42
15.21
13.06
10.96
8.88
6.77
4.60
2.38
0.14
-2.11
-4.38
-6.76
-9.32
-12.11
-15.13
-18.39
-21.96
-25.97
-30.50
-35.42
-40.30
-44.36
-46.69
-46.58
-43.80
-38.69
-32.00
-24.57
-17.01
-9.70
-2.82
3.39
8.64
12.66
15.39
17.07
18.15
19.07
20.02
20.97
21.69
21.98
21.81
21.39
21.00
20.84
21.01
21.46
22.09
22.81
23.58
24.34
25.01
25.42
25.33
24.58
23.11
21.06
18.68
16.24
13.92
11.70
9.51
7.25
4.94
2.70
0.67
-1.13
-2.82
-4.64
-6.80
-9.35
-12.18
-15.05
-17.72
-20.05
-22.18
-24.36
-26.96
-30.21
-34.08
-38.22
-42.01
-44.71
-45.75
-44.79
-41.83
-37.17
-31.20
-24.35
-17.06
-9.80
-3.03
2.86
7.57
11.04
13.42
15.01
16.13
17.02
17.79
18.41
18.79
18.89
18.76
18.54
18.43
18.58
18.96
19.38
19.58
19.46
19.10
18.81
18.86
19.26
19.70
19.70
18.95
17.52
15.83
14.36
13.36
12.63
11.73
10.24
8.10
5.60
3.20
1.17
-0.53
-2.26
-4.37
-7.04
-10.06
-13.01
-15.44
-17.14
-18.28
-19.31
-20.79
-23.11
-26.39
-30.36
-34.53
-38.26
-40.97
-42.24
-41.81
-39.64
-35.77
-30.46
-24.11
-17.27
-10.49
-4.28
1.06
5.40
8.72
11.07
12.55
13.30
13.56
13.66
13.95
14.62
15.66
16.91
18.14
19.21
20.08
20.80
21.41
21.92
22.25
22.38
22.29
21.96
21.37
20.43
19.03
17.12
14.78
12.16
9.50
7.01
4.84
3.11
1.83
0.94
0.28
-0.46
-1.64
-3.49
-6.01
-8.95
-11.82
-14.15
-15.68
-16.51
-17.05
-17.89
-19.57
-22.34
-26.09
-30.36
-34.53
-37.88
-39.83
-39.87
-37.74
-33.43
-27.26
-19.90
-12.29
-5.45
-0.17
3.28
5.14
6.06
6.72
7.52
8.42
9.07
9.12
8.47
7.40
6.33
5.67
5.60
6.01
6.73
7.56
8.47
9.40
10.22
10.71
10.65
9.95
8.74
7.30
5.98
4.93
4.05
3.05
1.63
-0.39
-2.91
-5.70
-8.46
-10.99
-13.26
-15.40
-17.59
-19.99
-22.76
-25.99
-29.67
-33.66
-37.54
-40.68
-42.24
-41.55
-38.26
-32.62
-25.32
-17.45
-10.01
-3.73
1.16
4.84
7.66
9.99
11.95
13.51
14.52
14.97
14.93
14.70
14.55
14.65
15.02
15.56
16.13
16.72
17.40
18.27
19.37
20.63
21.82
22.68
22.94
22.43
21.13
19.17
16.80
14.37
12.13
10.16
8.31
6.31
3.91
1.11
-1.85
-4.59
-6.79
-8.40
-9.70
-11.13
-13.07
-15.62
-18.61
-21.72
-24.72
-27.63
-30.67
-34.05
-37.80
-41.56
-44.66
-46.32
-45.90
-43.17
-38.30
-31.80
-24.37
-16.68
-9.33
-2.80
2.52
6.48
9.07
10.60
11.50
12.20
12.93
13.72
14.45
15.01
15.46
15.96
16.70
17.78
19.11
20.56
22.00
23.34
24.51
25.37
25.74
25.40
24.32
22.66
20.79
19.12
17.89
17.07
16.42
15.56
14.24
12.36
10.07
7.63
5.38
3.55
2.18
1.11
0.04
-1.35
-3.25
-5.73
-8.66
-11.81
-14.90
-17.68
-20.01
-21.94
-23.77
-25.94
-28.90
-32.86
-37.62
-42.50
-46.54
-48.82
-48.71
-46.14
-41.47
-35.23
-27.97
-20.16
-12.26
-4.81
1.59
6.51
9.76
11.58
12.45
12.93
13.36
13.91
14.50
15.03
15.49
15.86
16.23
16.69
17.45
18.67
20.44
22.61
24.78
26.46
27.19
26.88
25.77
24.31
22.93
21.82
20.95
20.14
19.23
18.11
16.71
14.99
12.87
10.39
7.72
5.14
2.90
1.12
-0.32
-1.69
-3.29
-5.29
-7.68
-10.28
-12.97
-15.69
-18.45
-21.33
-24.32
-27.42
-30.67
-34.15
-37.94
-41.97
-45.85
-48.87
-50.22
-49.22
-45.65
-39.73
-32.10
-23.49
-14.63
-6.11
1.51
7.81
12.51
15.66
17.52
18.52
19.13
19.67
20.29
21.04
21.84
22.59
23.20
23.55
23.62
23.48
23.27
23.15
23.22
23.44
23.66
23.79
23.81
23.78
23.81
23.87
23.75
23.15
21.82
19.69
16.96
13.94
11.02
8.46
6.32
4.48
2.73
0.84
-1.33
-3.73
-6.28
-8.80
-11.26
-13.68
-16.22
-19.09
-22.38
-26.05
-29.97
-33.98
-37.95
-41.78
-45.25
-47.93
-49.17
-48.31
-44.97
-39.22
-31.65
-23.08
-14.35
-6.12
1.22
7.38
12.19
15.56
17.55
18.51
18.96
19.47
20.33
21.53
22.83
23.93
24.69
25.23
25.83
26.72
27.96
29.36
30.62
31.41
31.57
31.09
30.10
28.80
27.42
26.07
24.78
23.52
22.09
20.39
18.38
16.11
13.69
11.13
8.42
5.48
2.36
-0.83
-3.98
-7.00
-9.94
-12.89
-15.87
-18.80
-21.60
-24.25
-26.95
-30.01
-33.71
-38.13
-42.98
-47.64
-51.36
-53.39
-53.18
-50.48
-45.43
-38.53
-30.56
-22.33
-14.49
-7.41
-1.19
4.24
8.94
12.88
16.04
18.35
19.87
20.74
21.09
21.12
21.02
20.98
21.14
21.64
22.49
23.68
25.15
26.73
28.19
29.22
29.52
28.90
27.48
25.62
23.80
22.39
21.46
20.74
19.81
18.31
16.12
13.38
10.30
6.99
3.41
-0.63
-5.26
-10.37
-15.65
-20.72
-25.39
-29.75
-34.09
-38.68
-43.45
-47.92
-51.25
-52.68
-51.81
-48.74
-44.05
-38.38
-32.24
-25.80
-19.09
-12.25
-5.67
0.05
4.36
7.01
8.23
8.59
8.76
9.21
10.09
11.34
12.78
14.28
15.78
17.28
18.76
20.15
21.32
22.15
22.63
22.81
22.81
22.77
22.74
22.66
22.33
21.57
20.28
18.50
16.33
13.91
11.25
8.30
5.04
1.60
-1.73
-4.66
-7.05
-9.13
-11.37
-14.28
-18.15
-22.90
-28.08
-33.09
-37.36
-40.48
-42.27
-42.59
-41.38
-38.58
-34.16
-28.29
-21.30
-13.79
-6.39
0.29
5.84
10.08
13.07
14.99
16.05
16.46
16.44
16.23
16.06
16.05
16.31
16.83
17.57
18.50
19.53
20.52
21.31
21.76
21.82
21.48
20.76
19.64
18.03
15.90
13.31
10.45
7.55
4.73
1.96
-0.88
-3.89
-7.10
-10.41
-13.83
-17.46
-21.48
-26.04
-30.98
-35.83
-39.76
-41.99
-41.93
-39.41
-34.62
-28.03
-20.23
-11.88
-3.69
3.71
9.81
14.36
17.39
19.15
20.06
20.52
20.78
20.94
20.92
20.64
20.10
19.40
18.76
18.42
18.48
18.86
19.34
19.58
19.32
18.42
16.93
15.00
12.77
10.29
7.57
4.58
1.38
-1.92
-5.16
-8.26
-11.34
-14.67
-18.63
-23.46
-29.05
-34.82
-39.83
-43.03
-43.61
-41.32
-36.46
-29.84
-22.38
-14.87
-7.83
-1.49
4.15
9.16
13.55
17.27
20.26
22.38
23.60
24.00
23.84
23.47
23.20
23.21
23.42
23.58
23.51
23.15
22.65
22.23
22.00
21.80
21.34
20.35
18.72
16.56
14.08
11.42
8.57
5.40
1.80
-2.18
-6.32
-10.41
-14.46
-18.67
-23.37
-28.76
-34.64
-40.37
-45.02
-47.78
-48.09
-45.88
-41.46
-35.31
-27.94
-19.89
-11.68
-3.87
3.08
8.91
13.66
17.53
20.78
23.44
25.37
26.43
26.64
26.37
26.05
26.04
26.38
26.88
27.30
27.50
27.60
27.73
28.01
28.32
28.49
28.32
27.74
26.76
25.40
23.69
21.64
19.38
17.07
14.90
12.87
10.73
8.13
4.79
0.75
-3.59
-7.68
-11.07
-13.72
-16.01
-18.48
-21.57
-25.47
-30.05
-35.08
-40.34
-45.60
-50.52
-54.50
-56.73
-56.40
-53.05
-46.83
-38.52
-29.26
-20.20
-12.14
-5.40
0.16
4.93
9.23
13.25
16.94
20.07
22.48
24.09
25.09
25.75
26.32
26.89
27.38
27.59
27.46
27.10
26.76
26.68
26.92
27.33
27.67
27.68
27.29
26.51
25.42
24.02
22.29
20.29
18.15
16.09
14.28
12.69
11.09
9.13
6.53
3.19
-0.71
-4.91
-9.15
-13.18
-16.79
-19.81
-22.22
-24.22
-26.29
-29.00
-32.81
-37.79
-43.40
-48.65
-52.32
-53.49
-51.69
-47.22
-40.84
-33.47
-25.91
-18.61
-11.70
-5.21
0.76
6.06
10.55
14.20
17.21
19.85
22.37
24.76
26.78
28.10
28.53
28.17
27.49
27.10
27.50
28.81
30.74
32.73
34.17
34.69
34.25
33.07
31.44
29.60
27.67
25.68
23.69
21.72
19.77
17.79
15.69
13.40
10.93
8.31
5.54
2.57
-0.68
-4.18
-7.75
-11.10
-14.03
-16.56
-18.86
-21.24
-23.95
-27.12
-30.79
-34.99
-39.69
-44.71
-49.53
-53.36
-55.31
-54.64
-51.15
-45.13
-37.35
-28.70
-20.07
-12.11
-5.21
0.47
4.97
8.44
11.11
13.25
15.11
16.90
18.76
20.73
22.74
24.61
26.07
26.96
27.28
27.27
27.34
27.82
28.88
30.35
31.88
33.04
33.52
33.19
32.13
30.58
28.78
27.00
25.31
23.64
21.82
19.62
16.92
13.82
10.60
7.64
5.17
3.17
1.27
-1.00
-3.97
-7.65
-11.61
-15.27
-18.19
-20.28
-21.93
-23.74
-26.27
-29.81
-34.20
-39.03
-43.76
-47.90
-51.05
-52.84
-52.98
-51.20
-47.42
-41.79
-34.77
-26.98
-19.14
-11.85
-5.56
-0.52
3.15
5.53
6.86
7.58
8.21
9.16
10.60
12.39
14.15
15.48
16.25
16.60
16.86
17.42
18.47
19.94
21.69
23.51
25.22
26.61
27.44
27.40
26.35
24.31
21.57
18.56
15.60
12.87
10.35
7.96
5.67
3.52
1.51
-0.45
-2.58
-5.12
-8.18
-11.68
-15.36
-18.95
-22.34
-25.69
-29.38
-33.67
-38.49
-43.25
-46.98
-48.59
-47.35
-43.12
-36.35
-27.83
-18.42
-8.80
0.54
9.23
16.94
23.43
28.64
32.74
35.98
38.67
40.99
43.08
45.10
47.31
49.92
52.98
56.27
59.27
61.45
62.50
62.51
61.88
61.08
60.31
59.45
58.10
55.87
52.57
48.29
43.17
37.38
31.00
24.03
16.63
9.16
2.11
-4.10
-9.31
-13.76
-17.88
-22.19
-26.95
-32.11
-37.43
-42.69
-47.90
-53.17
-58.74
-64.74
-71.03
-77.16
-82.61
-86.83
-89.45
-90.25
-89.14
-86.23
-81.62
-75.64
-68.76
-61.65
-55.07
-49.72
-46.08
-44.23
-43.81
-44.03
-43.85
-42.39
-39.18
-34.35
-28.57
-22.63
-17.11
-12.12
-7.24
-1.99
3.90
10.22
16.35
21.59
25.50
28.15
29.95
31.51
33.19
34.90
36.04
35.76
33.33
28.51
21.73
13.87
6.05
-0.83
-6.23
-9.99
-12.22
-13.26
-13.70
-14.47
-16.54
-20.60
-26.63
-33.67
-40.07
-44.04
-44.47
-41.29
-35.44
-28.40
-21.51
-15.68
-11.17
-7.78
-5.02
-2.45
0.23
2.94
5.29
6.69
6.66
5.02
2.06
-1.58
-5.16
-8.01
-9.74
-10.19
-9.29
-7.05
-3.58
0.70
4.93
8.05
9.09
7.63
4.11
-0.35
-4.31
-6.75
-7.37
-6.67
-5.55
-4.90
-5.27
-6.88
-9.91
-14.55
-20.93
-28.84
-37.50
-45.62
-51.86
-55.35
-55.86
-53.54
-48.51
-40.56
-29.43
-15.43
0.13
14.99
26.70
33.73
36.18
35.66
34.43
34.30
35.99
39.15
42.94
46.65
49.80
52.07
52.87
51.52
47.50
40.98
32.93
24.96
18.91
16.24
17.93
24.14
34.18
46.40
58.40
67.44
71.37
69.27
61.73
50.57
38.00
26.03
15.98
8.64
4.59
4.27
7.97
15.48
26.02
38.19
50.25
60.45
67.28
69.69
67.17
59.96
48.98
35.73
21.90
8.87
-2.52
-12.10
-20.11
-26.88
-32.58
-37.28
-41.00
-43.99
-46.68
-49.50
-52.71
-56.19
-59.55
-62.35
-64.44
-65.99
-67.36
-68.90
-70.67
-72.51
-74.16
-75.51
-76.56
-77.55
-78.56
-79.39
-79.57
-78.35
-74.93
-68.75
-59.60
-47.80
-34.08
-19.37
-4.66
9.26
21.85
32.79
41.91
49.07
54.19
57.32
58.69
58.71
57.86
56.60
55.25
53.90
52.56
51.22
49.90
48.72
47.76
47.07
46.60
46.09
45.16
43.46
40.67
36.62
31.30
24.80
17.38
9.41
1.45
-5.83
-11.63
-15.29
-16.45
-15.20
-11.96
-7.50
-2.57
2.25
6.61
10.36
13.50
15.97
17.66
18.36
17.89
16.26
13.71
10.75
8.04
6.05
5.03
4.79
4.95
4.98
4.59
3.73
2.46
0.87
-1.13
-3.81
-7.49
-12.39
-18.51
-25.58
-33.10
-40.40
-46.71
-51.29
-53.48
-52.86
-49.38
-43.40
-35.63
-26.99
-18.35
-10.37
-3.40
2.45
7.19
10.80
13.35
14.86
15.57
15.78
15.88
16.01
16.12
15.91
15.00
13.16
10.54
7.54
4.65
2.26
0.43
-1.06
-2.57
-4.53
-7.28
-11.11
-16.21
-22.66
-30.28
-38.54
-46.47
-52.75
-55.95
-55.01
-49.61
-40.42
-28.85
-16.69
-5.40
4.23
12.15
18.75
24.43
29.24
33.00
35.50
36.83
37.38
37.77
38.43
39.41
40.41
41.03
40.96
40.19
38.95
37.55
36.21
34.95
33.59
31.88
29.63
26.73
23.18
18.97
13.97
7.94
0.62
-7.96
-17.32
-26.49
-34.17
-39.21
-40.93
-39.28
-34.77
-28.17
-20.29
-11.90
-3.69
3.67
9.62
13.93
16.72
18.40
19.46
20.21
20.60
20.45
19.62
18.22
16.66
15.47
15.01
15.33
16.24
17.40
18.49
19.24
19.51
19.14
18.04
16.10
13.19
9.27
4.42
-1.12
-6.99
-12.78
-18.09
-22.65
-26.19
-28.47
-29.17
-27.99
-24.72
-19.45
-12.50
-4.40
4.29
13.16
21.87
30.14
37.56
43.64
47.88
49.93
49.80
47.85
44.78
41.39
38.34
35.89
33.99
32.32
30.56
28.59
26.42
24.17
21.86
19.36
16.58
13.50
10.36
7.41
4.75
2.13
-0.98
-5.15
-10.55
-16.82
-23.04
-28.08
-30.93
-31.02
-28.29
-23.07
-15.96
-7.60
1.32
10.11
18.11
24.79
29.84
33.20
35.05
35.64
35.17
33.70
31.24
27.87
23.80
19.48
15.42
12.00
9.34
7.27
5.46
3.62
1.62
-0.55
-2.85
-5.40
-8.46
-12.37
-17.39
-23.55
-30.66
-38.30
-45.98
-53.07
-58.85
-62.47
-63.14
-60.34
-54.07
-44.95
-34.09
-22.75
-12.00
-2.45
5.70
12.43
17.72
21.37
23.13
22.93
21.03
18.08
14.94
12.38
10.81
10.20
10.13
10.09
9.70
8.83
7.64
6.32
5.01
3.64
1.97
-0.32
-3.44
-7.47
-12.34
-17.97
-24.19
-30.80
-37.35
-43.10
-47.16
-48.66
-47.14
-42.66
-35.77
-27.23
-17.83
-8.24
0.96
9.20
15.92
20.77
23.74
25.28
26.08
26.80
27.81
29.00
30.04
30.54
30.35
29.61
28.66
27.84
27.31
27.04
26.77
26.21
25.13
23.39
21.03
18.21
15.20
12.33
9.87
7.95
6.37
4.71
2.32
-1.43
-6.95
-14.23
-22.81
-31.78
-40.00
-46.34
-49.86
-50.08
-46.94
-40.97
-33.04
-24.29
-15.82
-8.42
-2.50
2.01
5.39
7.99
9.87
11.03
11.42
11.20
10.70
10.35
10.41
10.76
11.13
11.17
10.84
10.42
10.31
10.80
11.78
12.91
13.67
13.82
13.34
12.48
11.46
10.31
8.92
7.06
4.69
1.89
-1.02
-3.72
-6.04
-8.01
-9.78
-11.49
-13.21
-14.87
-16.43
-18.00
-19.81
-22.07
-24.73
-27.34
-29.13
-29.32
-27.38
-23.34
-17.68
-11.18
-4.63
1.42
6.61
10.80
13.99
16.30
18.02
19.56
21.26
23.28
25.52
27.65
29.24
29.95
29.61
28.29
26.27
23.97
21.86
20.39
19.76
19.88
20.32
20.52
20.05
18.73
16.64
14.05
11.16
7.98
4.40
0.27
-4.46
-9.71
-15.29
-21.01
-26.63
-31.85
-36.19
-39.05
-39.85
-38.21
-34.17
-28.20
-21.19
-14.07
-7.69
-2.58
1.13
3.61
5.15
5.99
6.27
6.09
5.50
4.65
3.71
2.84
2.09
1.45
0.81
0.09
-0.75
-1.66
-2.54
-3.25
-3.68
-3.84
-3.80
-3.86
-4.34
-5.57
-7.73
-10.88
-14.92
-19.68
-24.87
-30.02
-34.57
-37.92
-39.66
-39.86
-39.01
-37.83
-36.93
-36.48
-36.11
-35.07
-32.61
-28.28
-22.12
-14.64
-6.67
0.93
7.47
12.54
16.08
18.21
19.18
19.17
18.44
17.27
16.15
15.57
15.91
17.15
18.91
20.48
21.17
20.65
18.94
16.38
13.35
10.09
6.61
2.97
-0.71
-4.05
-6.60
-8.03
-8.32
-7.89
-7.27
-7.00
-7.37
-8.36
-9.76
-11.32
-12.96
-14.69
-16.63
-18.89
-21.48
-24.32
-27.18
-29.67
-31.18
-31.07
-28.83
-24.34
-18.00
-10.65
-3.29
3.20
8.29
11.97
14.49
16.25
17.54
18.56
19.36
19.94
20.31
20.44
20.37
20.13
19.74
19.23
18.67
18.17
17.85
17.84
18.18
18.79
19.42
19.79
19.64
18.89
17.66
16.17
14.66
13.32
12.15
11.04
9.73
7.91
5.33
1.97
-1.99
-6.17
-10.16
-13.70
-16.83
-19.77
-22.83
-26.31
-30.28
-34.54
-38.64
-41.96
-43.77
-43.46
-40.68
-35.55
-28.70
-21.01
-13.42
-6.65
-1.02
3.40
6.78
9.28
11.10
12.41
13.39
14.14
14.67
14.86
14.57
13.76
12.53
11.16
9.91
9.03
8.58
8.53
8.78
9.15
9.41
9.29
8.53
7.05
4.93
2.50
0.09
-2.09
-4.08
-6.07
-8.26
-10.67
-13.14
-15.37
-17.18
-18.64
-20.03
-21.78
-24.25
-27.54
-31.40
-35.30
-38.44
-40.05
-39.51
-36.61
-31.61
-25.17
-18.20
-11.59
-5.93
-1.44
1.96
4.56
6.59
8.18
9.34
10.01
10.21
10.10
9.82
9.49
9.11
8.61
7.96
7.32
6.96
7.21
8.21
9.84
11.71
13.26
14.00
13.62
12.08
9.52
6.24
2.55
-1.26
-4.93
-8.29
-11.32
-14.10
-16.83
-19.84
-23.37
-27.41
-31.74
-35.70
-38.53
-39.44
-37.97
-34.07
-28.18
-20.96
-13.25
-5.80
0.84
6.34
10.62
13.73
15.91
17.38
18.29
18.67
18.56
18.06
17.35
16.73
16.37
16.19
15.92
15.26
14.12
12.79
11.72
11.22
11.18
11.04
10.08
7.81
4.31
0.18
-3.80
-7.09
-9.56
-11.55
-13.56
-16.05
-19.28
-23.32
-28.03
-33.10
-37.96
-41.82
-43.75
-43.03
-39.36
-33.04
-24.89
-15.96
-7.19
0.72
7.44
12.87
17.00
19.88
21.64
22.47
22.71
22.73
22.83
23.13
23.58
24.01
24.27
24.33
24.26
24.19
24.19
24.19
24.08
23.67
22.91
21.79
20.37
18.72
16.87
14.81
12.49
9.84
6.87
3.60
0.15
-3.35
-6.74
-9.98
-13.05
-16.14
-19.41
-23.09
-27.27
-31.97
-37.00
-41.95
-46.21
-48.94
-49.34
-46.86
-41.47
-33.69
-24.46
-14.85
-5.64
2.73
10.17
16.75
22.39
26.98
30.35
32.48
33.53
33.91
34.02
34.15
34.39
34.67
34.85
34.90
34.88
34.95
35.20
35.58
35.90
35.85
35.20
33.92
32.20
30.38
28.70
27.18
25.53
23.51
20.99
18.15
15.46
13.31
11.83
10.79
9.72
8.26
6.33
4.12
1.91
-0.19
-2.34
-4.87
-7.97
-11.61
-15.51
-19.35
-22.95
-26.41
-29.97
-33.87
-38.24
-42.98
-47.84
-52.49
-56.64
-60.02
-62.34
-63.23
-62.32
-59.29
-54.09
-46.98
-38.54
-29.44
-20.33
-11.65
-3.66
3.54
9.86
15.16
19.26
22.15
23.99
25.11
25.95
26.84
27.89
29.02
30.08
30.98
31.73
32.43
33.18
33.90
34.45
34.68
34.49
33.96
33.18
32.23
31.08
29.56
27.51
24.88
21.79
18.48
15.25
12.35
9.88
7.83
6.04
4.23
2.12
-0.49
-3.62
-7.15
-10.89
-14.60
-18.20
-21.64
-24.94
-28.06
-31.00
-33.79
-36.63
-39.83
-43.57
-47.77
-51.95
-55.32
-57.06
-56.60
-53.83
-49.00
-42.57
-35.02
-26.79
-18.34
-10.16
-2.78
3.41
8.25
11.88
14.64
16.94
19.04
21.02
22.82
24.24
25.12
25.38
25.11
24.63
24.41
24.90
26.29
28.40
30.68
32.46
33.30
33.09
32.15
30.87
29.55
28.22
26.69
24.73
22.22
19.29
16.25
13.43
11.01
9.01
7.25
5.48
3.56
1.37
-1.11
-3.88
-6.91
-10.16
-13.49
-16.77
-19.91
-22.89
-25.89
-29.12
-32.79
-36.91
-41.26
-45.50
-49.20
-52.03
-53.66
-53.86
-52.41
-49.14
-44.01
-37.15
-28.97
-20.10
-11.29
-3.24
3.52
8.83
12.82
15.77
17.96
19.64
20.92
21.91
22.70
23.34
23.79
24.05
24.10
24.05
24.11
24.44
25.20
26.35
27.82
29.48
31.17
32.68
33.67
33.82
32.95
31.14
28.79
26.35
24.12
22.10
20.03
17.69
15.00
12.07
9.06
6.05
2.90
-0.62
-4.64
-9.10
-13.63
-17.72
-20.94
-23.15
-24.61
-25.96
-27.99
-31.30
-36.10
-42.02
-48.18
-53.50
-56.99
-58.00
-56.19
-51.60
-44.52
-35.49
-25.34
-15.15
-5.97
1.37
6.65
10.24
12.92
15.53
18.45
21.51
24.16
25.72
25.87
24.79
23.05
21.40
20.44
20.42
21.19
22.35
23.42
23.97
23.72
22.56
20.35
17.12
12.92
8.04
3.00
-1.50
-4.79
-6.51
-6.73
-5.95
-4.96
-4.47
-4.88
-6.18
-8.10
-10.31
-12.56
-14.87
-17.34
-20.02
-22.77
-25.27
-27.06
-27.74
-27.07
-25.00
-21.55
-16.80
-10.84
-3.88
3.65
11.02
17.30
21.58
23.26
22.19
18.80
13.85
8.35
3.24
-0.69
-2.98
-3.51
-2.55
-0.57
1.78
3.94
5.41
5.85
5.12
3.30
0.67
-2.31
-5.19
-7.61
-9.38
-10.63
-11.75
-13.20
-15.44
-18.75
-23.13
-28.24
-33.48
-38.09
-41.34
-42.67
-41.76
-38.56
-33.26
-26.28
-18.30
-10.23
-2.96
2.83
6.89
9.49
11.17
12.43
13.50
14.25
14.35
13.55
11.82
9.49
7.06
5.06
3.82
3.32
3.25
3.11
2.57
1.55
0.27
-0.88
-1.64
-2.09
-2.55
-3.56
-5.49
-8.48
-12.46
-17.20
-22.40
-27.77
-32.89
-37.14
-39.70
-39.81
-36.96
-31.23
-23.21
-13.98
-4.72
3.54
10.12
14.80
17.69
19.17
19.59
19.32
18.59
17.65
16.71
15.94
15.49
15.40
15.55
15.67
15.50
14.77
13.40
11.50
9.24
6.82
4.32
1.75
-0.97
-3.94
-7.37
-11.56
-16.74
-22.97
-29.83
-36.41
-41.51
-44.12
-43.66
-40.25
-34.49
-27.18
-19.01
-10.53
-2.16
5.66
12.60
18.50
23.44
27.60
31.04
33.63
35.12
35.45
34.85
33.90
33.11
32.70
32.51
32.18
31.51
30.61
29.73
28.96
28.03
26.45
23.81
20.09
15.68
11.11
6.74
2.61
-1.54
-5.95
-10.77
-16.02
-21.70
-27.91
-34.67
-41.72
-48.30
-53.30
-55.48
-54.04
-48.87
-40.65
-30.65
-20.22
-10.45
-1.84
5.57
12.05
17.84
23.07
27.68
31.63
34.93
37.77
40.29
42.55
44.44
45.77
46.38
46.33
45.87
45.39
45.18
45.37
45.81
46.23
46.32
45.91
44.98
43.63
41.92
39.86
37.36
34.37
30.91
27.17
23.39
19.78
16.44
13.30
10.29
7.29
4.28
1.23
-1.89
-5.23
-8.87
-12.81
-16.99
-21.17
-25.18
-28.93
-32.50
-36.09
-39.97
-44.44
-49.72
-55.84
-62.51
-69.03
-74.31
-77.14
-76.57
-72.28
-64.60
-54.47
-43.06
-31.46
-20.51
-10.67
-2.22
4.78
10.40
14.86
18.46
21.56
24.46
27.28
29.99
32.44
34.49
36.02
37.04
37.69
38.20
38.82
39.73
40.92
42.21
43.29
43.80
43.56
42.53
40.92
39.06
37.19
35.34
33.34
30.84
27.58
23.61
19.27
15.08
11.46
8.54
6.06
3.63
0.87
-2.42
-6.25
-10.54
-15.20
-20.14
-25.21
-30.23
-34.98
-39.49
-44.00
-48.92
-54.60
-60.96
-67.35
-72.67
-75.75
-75.68
-72.19
-65.64
-56.73
-46.37
-35.40
-24.50
-14.17
-4.78
3.52
10.62
16.60
21.57
25.70
29.16
32.13
34.68
36.79
38.38
39.32
39.55
39.18
38.49
37.86
37.67
38.16
39.29
40.86
42.46
43.67
44.13
43.69
42.40
40.47
38.18
35.76
33.34
30.92
28.47
25.96
23.38
20.80
18.22
15.62
12.90
9.95
6.64
2.86
-1.44
-6.24
-11.43
-16.72
-21.83
-26.46
-30.58
-34.36
-38.27
-42.80
-48.28
-54.70
-61.56
-68.03
-72.98
-75.31
-74.21
-69.40
-61.20
-50.50
-38.55
-26.62
-15.71
-6.37
1.27
7.40
12.32
16.34
19.74
22.73
25.46
28.00
30.36
32.50
34.38
36.00
37.39
38.59
39.66
40.69
41.71
42.70
43.55
44.07
44.04
43.32
41.93
40.04
37.89
35.73
33.66
31.65
29.61
27.42
25.14
22.85
20.59
18.35
16.00
13.40
10.54
7.53
4.61
1.92
-0.60
-3.24
-6.38
-10.22
-14.67
-19.42
-24.15
-28.67
-33.08
-37.64
-42.66
-48.22
-54.22
-60.39
-66.26
-71.17
-74.34
-75.04
-72.83
-67.70
-60.14
-50.99
-41.14
-31.29
-21.92
-13.36
-5.74
0.81
6.22
10.50
13.72
16.10
17.98
19.75
21.78
24.35
27.56
31.25
35.17
38.99
42.51
45.56
47.95
49.44
49.84
49.10
47.49
45.46
43.50
41.84
40.40
38.89
37.09
35.07
33.11
31.56
30.51
29.66
28.44
26.29
23.09
19.24
15.47
12.41
10.21
8.31
5.75
1.66
-4.24
-11.48
-18.97
-25.56
-30.37
-33.07
-33.94
-33.59
-32.95
-33.09
-35.18
-40.21
-48.47
-59.23
-70.49
-79.46
-83.47
-80.97
-72.16
-58.83
-43.76
-29.50
-17.82
-9.36
-4.00
-1.29
-0.81
-2.05
-4.18
-5.98
-6.10
-3.66
1.25
7.54
13.60
17.99
20.09
20.18
19.04
17.45
15.65
13.37
10.23
6.19
1.91
-1.46
-2.65
-0.86
3.81
10.37
17.31
23.02
26.32
26.69
24.23
19.45
12.94
5.30
-2.86
-10.86
-17.81
-22.91
-25.71
-26.38
-25.81
-25.14
-25.36
-26.68
-28.64
-30.28
-30.77
-29.69
-27.21
-23.61
-19.13
-13.66
-6.93
1.12
10.07
19.07
27.11
33.35
37.39
39.31
39.46
38.30
36.22
33.51
30.40
27.13
23.97
21.14
18.77
16.79
15.06
13.36
11.61
9.79
7.82
5.55
2.61
-1.40
-6.71
-13.18
-20.20
-26.91
-32.50
-36.43
-38.68
-39.58
-39.71
-39.71
-40.05
-40.98
-42.52
-44.28
-45.60
-45.53
-43.12
-37.62
-28.86
-17.25
-3.81
10.07
23.04
33.90
41.87
46.65
48.45
47.91
45.99
43.73
42.01
41.31
41.75
43.15
45.18
47.63
50.29
53.00
55.42
57.14
57.69
56.77
54.28
50.44
45.65
40.38
35.03
29.79
24.55
18.89
12.28
4.26
-5.23
-15.74
-26.38
-35.94
-43.25
-47.48
-48.18
-45.44
-39.75
-31.95
-23.17
-14.61
-7.35
-2.21
0.49
0.85
-0.69
-3.54
-7.10
-10.81
-14.17
-16.73
-18.14
-18.28
-17.32
-15.67
-13.92
-12.56
-11.85
-11.72
-11.92
-12.29
-12.85
-13.94
-16.12
-19.87
-25.46
-32.76
-41.24
-50.04
-58.22
-64.77
-68.92
-70.16
-68.42
-64.00
-57.51
-49.60
-40.78
-31.37
-21.51
-11.43
-1.53
7.60
15.35
21.22
24.95
26.51
26.06
23.87
20.40
16.31
12.43
9.50
7.95
7.69
8.17
8.67
8.57
7.67
6.08
4.13
2.09
0.02
-2.29
-5.26
-9.34
-14.89
-21.98
-30.25
-38.88
-46.76
-52.65
-55.50
-54.74
-50.39
-43.02
-33.58
-23.15
-12.79
-3.34
4.54
10.57
14.75
17.42
19.07
20.21
21.19
22.07
22.67
22.70
22.09
21.15
20.53
20.88
22.53
25.16
27.93
29.90
30.49
29.73
28.10
26.17
24.10
21.56
17.86
12.46
5.25
-3.37
-12.64
-21.79
-30.09
-36.84
-41.32
-42.83
-40.97
-35.67
-27.45
-17.25
-6.18
4.71
14.58
22.80
29.07
33.50
36.57
39.03
41.66
44.81
48.29
51.40
53.30
53.40
51.74
48.92
45.79
43.11
41.29
40.27
39.66
38.99
37.88
36.07
33.45
30.02
25.83
21.02
15.74
10.17
4.43
-1.54
-7.80
-14.32
-20.83
-26.75
-31.27
-33.55
-33.02
-29.49
-23.28
-15.09
-5.84
3.53
12.22
19.66
25.51
29.69
32.35
33.73
34.17
33.87
32.95
31.33
28.92
25.65
21.67
17.37
13.30
10.00
7.81
6.74
6.52
6.69
6.79
6.45
5.45
3.75
1.43
-1.31
-4.31
-7.50
-10.97
-15.06
-20.09
-26.42
-34.03
-42.53
-51.06
-58.34
-63.00
-63.91
-60.51
-53.07
-42.64
-30.78
-19.15
-8.99
-0.86
5.31
10.03
13.83
16.98
19.47
21.10
21.75
21.53
20.80
19.98
19.41
19.20
19.17
19.07
18.69
17.99
16.99
15.78
14.32
12.50
10.17
7.31
4.00
0.43
-3.25
-7.09
-11.39
-16.58
-22.99
-30.57
-38.68
-46.13
-51.44
-53.31
-50.99
-44.58
-34.98
-23.63
-12.02
-1.39
7.48
14.31
19.18
22.36
24.18
24.98
25.11
24.87
24.50
24.14
23.76
23.22
22.38
21.17
19.69
18.12
16.67
15.37
14.05
12.41
10.18
7.19
3.54
-0.54
-4.91
-9.58
-14.72
-20.55
-27.16
-34.35
-41.53
-47.75
-51.96
-53.24
-51.01
-45.25
-36.46
-25.68
-14.13
-3.09
6.49
14.14
19.94
24.29
27.69
30.41
32.46
33.67
33.86
33.00
31.33
29.23
27.09
25.16
23.47
21.91
20.36
18.67
16.77
14.66
12.28
9.58
6.43
2.72
-1.63
-6.53
-11.87
-17.57
-23.60
-30.03
-36.80
-43.49
-49.26
-52.98
-53.58
-50.49
-43.82
-34.39
-23.41
-12.14
-1.54
7.80
15.73
22.33
27.77
32.20
35.66
38.03
39.20
39.17
38.18
36.58
34.82
33.17
31.76
30.53
29.39
28.39
27.58
27.05
26.65
26.04
24.78
22.50
19.11
14.78
9.88
4.75
-0.44
-5.69
-11.16
-17.06
-23.53
-30.56
-37.79
-44.55
-49.84
-52.60
-52.00
-47.73
-40.13
-30.03
-18.51
-6.55
5.12
16.09
26.18
35.30
43.38
50.33
56.10
60.71
64.28
66.98
69.06
70.75
72.32
73.85
75.23
75.99
75.41
72.76
67.56
59.88
50.22
39.41
28.26
17.27
6.63
-3.66
-13.56
-22.82
-31.06
-37.96
-43.38
-47.47
-50.52
-52.78
-54.36
-55.35
-55.80
-55.91
-55.95
-56.13
-56.46
-56.68
-56.37
-55.17
-52.97
-50.03
-46.89
-44.09
-41.91
-40.25
-38.65
-36.52
-33.44
-29.38
-24.86
-20.72
-17.98
-17.39
-19.25
-23.20
-28.41
-33.77
-38.26
-41.08
-41.89
-40.65
-37.64
-33.39
-28.59
-24.20
-21.24
-20.62
-22.85
-27.56
-33.51
-38.88
-41.80
-41.01
-36.31
-28.57
-19.32
-10.31
-3.02
1.60
3.06
1.35
-3.15
-9.57
-16.58
-22.45
-25.46
-24.25
-18.25
-7.84
5.64
20.26
33.86
44.65
51.52
54.22
53.13
48.98
42.51
34.40
25.41
16.56
9.20
4.89
4.80
9.21
17.27
27.17
36.79
44.27
48.38
48.64
45.07
38.17
28.88
18.67
9.37
2.76
-0.08
0.81
4.16
8.02
10.23
9.54
6.09
1.23
-3.19
-5.42
-4.33
0.54
8.97
20.02
32.44
45.07
56.89
67.02
74.73
79.56
81.56
81.30
79.14
75.88
72.86
71.59
73.11
77.76
85.23
94.96
106.17
116.18
122.75
125.23
124.38
121.08
115.84
108.94
100.79
91.99
79.52
61.62
39.82
18.23
0.43
-12.11
-19.86
-24.32
-27.43
-36.78
-57.30
-87.71
-121.60
-152.80
-178.20
-197.69
-212.84
-225.61
-245.26
-277.80
-321.89
-370.76
-419.03
-465.79
-513.22
-564.00
-571.00
-508.88
-391.50
-259.50
-144.53
-57.03
5.55
49.87
82.49
108.69
124.39
126.44
117.30
104.27
93.37
87.01
84.96
86.27
90.17
90.49
83.19
69.27
53.82
41.03
32.43
28.09
27.71
31.21
34.81
35.61
32.53
28.64
26.10
25.65
27.30
30.94
36.32
40.98
42.70
40.73
36.18
30.43
24.52
19.18
14.34
9.29
2.41
-7.34
-19.64
-33.00
-46.00
-57.84
-68.17
-77.23
-85.26
-92.12
-97.17
-99.75
-99.22
-95.39
-90.98
-87.42
-85.37
-84.47
-83.45
-80.74
-75.63
-69.08
-63.92
-63.67
-70.36
-83.46
-99.57
-113.61
-121.04
-119.86
-111.18
-98.40
-85.38
-74.26
-65.23
-57.06
-48.45
-39.03
-29.62
-21.49
-15.54
-11.73
-8.94
-5.84
-1.22
5.26
13.21
21.72
29.78
36.73
42.49
47.55
52.69
58.61
65.68
73.94
83.22
93.21
103.75
114.78
126.39
138.70
151.86
166.01
181.49
198.99
219.43
243.40
270.42
298.33
323.36
341.14
348.16
343.18
327.69
305.19
279.81
254.71
231.46
210.21
190.52
172.13
155.21
140.05
126.62
114.40
102.53
90.36
77.73
65.08
53.25
43.00
34.71
28.13
22.58
17.24
11.50
5.22
-1.28
-7.43
-12.73
-17.01
-20.52
-23.76
-27.29
-31.47
-36.27
-41.23
-45.62
-48.67
-49.79
-48.83
-46.08
-42.18
-37.90
-33.83
-30.31
-27.35
-24.87
-22.74
-20.88
-19.24
-17.69
-16.12
-14.48
-12.87
-11.60
-11.04
-11.48
-12.98
-15.31
-18.03
-20.67
-22.84
-24.38
-25.33
-25.87
-26.18
-26.39
-26.55
-26.72
-26.98
-27.49
-28.45
-30.00
-32.11
-34.67
-37.47
-40.34
-43.09
-45.53
-47.34
-48.16
-47.66
-45.76
-42.69
-38.98
-35.15
-31.59
-28.35
-25.31
-22.32
-19.37
-16.66
-14.44
-12.91
-12.07
-11.75
-11.62
-11.26
-10.25
-8.18
-4.89
-0.49
4.55
9.62
14.12
17.74
20.51
22.60
24.14
25.09
25.22
24.42
22.82
20.82
18.89
17.36
16.24
15.28
14.15
12.64
10.70
8.43
5.95
3.41
1.06
-0.69
-1.33
-0.34
2.54
7.22
13.16
19.56
25.48
30.20
33.28
34.63
34.44
33.03
30.77
27.93
24.72
21.29
17.74
14.14
10.57
7.15
4.00
1.25
-1.02
-2.78
-4.10
-5.02
-5.60
-5.84
-5.77
-5.52
-5.38
-5.73
-6.95
-9.24
-12.53
-16.49
-20.64
-24.43
-27.40
-29.21
-29.69
-28.85
-26.88
-24.10
-20.92
-17.74
-14.90
-12.59
-10.92
-9.84
-9.24
-8.89
-8.54
-8.02
-7.27
-6.40
-5.66
-5.25
-5.24
-5.53
-5.89
-6.16
-6.29
-6.39
-6.60
-7.03
-7.66
-8.39
-9.15
-9.94
-10.83
-11.93
-13.26
-14.83
-16.64
-18.70
-20.98
-23.35
-25.48
-26.95
-27.38
-26.60
-24.74
-22.10
-19.05
-15.88
-12.76
-9.78
-7.05
-4.68
-2.77
-1.33
-0.27
0.55
1.24
1.79
2.10
2.08
1.71
1.09
0.40
-0.19
-0.57
-0.75
-0.82
-0.90
-1.13
-1.63
-2.42
-3.49
-4.80
-6.32
-8.03
-9.96
-12.12
-14.51
-17.06
-19.59
-21.86
-23.55
-24.34
-23.97
-22.36
-19.60
-16.00
-11.94
-7.85
-4.02
-0.62
2.30
4.71
6.58
7.85
8.51
8.62
8.36
7.93
7.55
7.31
7.15
6.95
6.54
5.92
5.18
4.50
4.08
3.96
4.07
4.26
4.31
4.05
3.37
2.19
0.50
-1.65
-4.12
-6.67
-9.09
-11.26
-13.21
-15.12
-17.15
-19.37
-21.58
-23.41
-24.43
-24.34
-23.06
-20.81
-17.87
-14.51
-10.91
-7.13
-3.24
0.60
4.21
7.40
10.02
12.10
13.72
14.99
15.98
16.72
17.17
17.32
17.22
16.98
16.81
16.86
17.21
17.83
18.54
19.16
19.55
19.67
19.58
19.39
19.10
18.68
18.03
17.06
15.78
14.20
12.37
10.37
8.32
6.34
4.62
3.26
2.28
1.56
0.92
0.13
-0.98
-2.50
-4.41
-6.63
-9.01
-11.44
-13.74
-15.85
-17.79
-19.67
-21.67
-23.99
-26.72
-29.78
-32.91
-35.67
-37.56
-38.14
-37.13
-34.50
-30.43
-25.28
-19.55
-13.80
-8.54
-4.17
-0.92
1.24
2.51
3.24
3.77
4.31
4.93
5.62
6.28
6.88
7.46
8.12
8.94
10.00
11.28
12.68
14.08
15.35
16.38
17.05
17.29
17.04
16.33
15.32
14.23
13.27
12.57
12.09
11.63
10.98
10.03
8.79
7.38
5.99
4.71
3.56
2.47
1.34
0.12
-1.20
-2.64
-4.17
-5.79
-7.45
-9.10
-10.74
-12.39
-14.15
-16.16
-18.55
-21.35
-24.50
-27.79
-30.90
-33.44
-34.99
-35.20
-33.82
-30.83
-26.48
-21.29
-15.90
-10.91
-6.69
-3.30
-0.61
1.61
3.49
5.10
6.39
7.34
8.00
8.42
8.70
8.92
9.14
9.45
10.01
10.98
12.41
14.18
16.05
17.71
18.96
19.71
20.01
19.91
19.42
18.54
17.31
15.86
14.38
13.07
11.98
11.04
10.01
8.69
7.03
5.13
3.22
1.54
0.20
-0.86
-1.80
-2.83
-4.12
-5.64
-7.34
-9.10
-10.89
-12.77
-14.82
-17.07
-19.45
-21.85
-24.21
-26.61
-29.18
-31.92
-34.61
-36.80
-37.92
-37.51
-35.41
-31.74
-26.85
-21.13
-14.99
-8.83
-3.06
1.92
5.80
8.44
9.91
10.47
10.46
10.27
10.17
10.35
10.86
11.62
12.47
13.28
13.99
14.68
15.51
16.62
18.00
19.52
20.90
21.89
22.39
22.43
22.11
21.56
20.80
19.76
18.35
16.57
14.54
12.48
10.61
9.03
7.71
6.51
5.30
4.06
2.87
1.86
1.09
0.46
-0.29
-1.40
-3.04
-5.13
-7.45
-9.73
-11.76
-13.55
-15.26
-17.21
-19.66
-22.79
-26.50
-30.45
-34.09
-36.75
-37.87
-37.08
-34.32
-29.88
-24.22
-17.95
-11.61
-5.69
-0.53
3.63
6.68
8.69
9.84
10.40
10.68
10.91
11.19
11.52
11.85
12.14
12.40
12.70
13.18
13.89
14.84
15.93
17.06
18.13
19.03
19.70
20.10
20.15
19.79
19.01
17.88
16.54
15.15
13.80
12.49
11.13
9.61
7.95
6.27
4.76
3.58
2.78
2.20
1.63
0.79
-0.50
-2.31
-4.56
-7.06
-9.62
-12.05
-14.24
-16.18
-17.89
-19.46
-21.02
-22.73
-24.77
-27.29
-30.25
-33.40
-36.23
-38.09
-38.37
-36.65
-32.91
-27.46
-20.88
-13.92
-7.31
-1.65
2.75
5.88
7.99
9.41
10.46
11.28
11.85
12.10
12.05
11.83
11.62
11.58
11.73
12.03
12.41
12.91
13.60
14.55
15.75
17.04
18.24
19.22
19.90
20.27
20.32
19.98
19.16
17.84
16.09
14.16
12.29
10.65
9.26
7.98
6.62
5.05
3.27
1.38
-0.45
-2.10
-3.51
-4.76
-6.02
-7.47
-9.23
-11.30
-13.59
-15.86
-17.91
-19.64
-21.09
-22.52
-24.20
-26.39
-29.08
-32.06
-34.89
-37.00
-37.87
-37.09
-34.53
-30.28
-24.69
-18.30
-11.70
-5.42
0.13
4.77
8.44
11.14
12.92
13.82
13.98
13.62
12.99
12.36
11.88
11.57
11.34
11.10
10.85
10.72
10.92
11.63
12.85
14.38
15.83
16.82
17.08
16.62
15.67
14.56
13.56
12.80
12.18
11.53
10.66
9.47
7.92
6.06
4.00
1.88
-0.17
-1.99
-3.52
-4.72
-5.62
-6.29
-6.80
-7.10
-7.12
-6.73
-5.81
-4.38
-2.66
-1.05
0.03
0.24
-0.53
-2.09
-4.10
-6.07
-7.63
-8.44
-8.23
-6.86
-4.27
-0.54
4.08
9.15
14.19
18.70
22.24
24.49
25.30
24.70
22.92
20.35
17.43
14.58
12.10
10.16
8.82
8.02
7.64
7.52
7.49
7.38
7.18
6.84
6.31
5.40
3.87
1.49
-1.78
-5.68
-9.71
-13.27
-15.85
-17.18
-17.28
-16.45
-15.12
-13.79
-12.92
-12.84
-13.69
-15.43
-17.84
-20.59
-23.42
-26.09
-28.44
-30.31
-31.45
-31.57
-30.36
-27.62
-23.32
-17.66
-11.04
-3.99
2.89
9.08
14.11
17.69
19.64
19.95
18.81
16.59
13.79
10.93
8.51
6.88
6.27
6.71
8.11
10.19
12.56
14.75
16.28
16.79
16.14
14.47
12.18
9.70
7.40
5.35
3.32
0.86
-2.48
-6.87
-12.05
-17.32
-21.74
-24.39
-24.72
-22.62
-18.51
-13.09
-7.18
-1.54
3.24
6.78
8.86
9.38
8.37
6.01
2.64
-1.28
-5.19
-8.69
-11.55
-13.77
-15.45
-16.72
-17.57
-17.93
-17.71
-16.99
-15.99
-15.08
-14.58
-14.65
-15.29
-16.43
-18.01
-20.05
-22.56
-25.46
-28.39
-30.69
-31.59
-30.46
-27.07
-21.75
-15.25
-8.58
-2.59
2.19
5.60
7.73
8.78
8.98
8.49
7.52
6.34
5.24
4.46
4.09
4.07
4.22
4.34
4.29
4.04
3.67
3.30
2.98
2.68
2.30
1.69
0.73
-0.66
-2.46
-4.55
-6.82
-9.17
-11.66
-14.42
-17.66
-21.47
-25.66
-29.73
-32.99
-34.79
-34.76
-32.91
-29.58
-25.24
-20.27
-15.00
-9.68
-4.59
-0.08
3.55
6.18
7.90
9.03
9.89
10.66
11.32
11.64
11.40
10.50
9.09
7.48
6.03
4.97
4.32
3.89
3.41
2.66
1.60
0.30
-1.14
-2.69
-4.49
-6.79
-9.87
-13.82
-18.51
-23.56
-28.41
-32.41
-34.93
-35.50
-33.88
-30.15
-24.67
-18.06
-11.05
-4.28
1.82
7.05
11.43
15.09
18.13
20.60
22.45
23.66
24.23
24.23
23.77
22.95
21.89
20.64
19.33
18.09
17.07
16.31
15.78
15.25
14.52
13.37
11.75
9.67
7.18
4.32
1.04
-2.69
-6.94
-11.69
-16.85
-22.12
-26.98
-30.76
-32.74
-32.35
-29.46
-24.39
-17.83
-10.62
-3.42
3.33
9.47
14.91
19.61
23.51
26.56
28.87
30.65
32.18
33.64
35.03
36.23
37.05
37.34
37.16
36.69
36.21
35.93
35.97
36.27
36.66
36.90
36.77
36.06
34.69
32.67
30.11
27.16
24.00
20.77
17.53
14.34
11.20
8.15
5.15
2.13
-1.03
-4.43
-8.07
-11.87
-15.64
-19.25
-22.66
-26.06
-29.70
-33.84
-38.59
-43.72
-48.70
-52.75
-55.04
-54.91
-52.12
-46.91
-39.97
-32.13
-24.19
-16.62
-9.62
-3.19
2.67
7.89
12.43
16.28
19.54
22.36
24.90
27.18
29.15
30.74
31.94
32.85
33.66
34.54
35.57
36.70
37.79
38.65
39.12
39.07
38.50
37.46
36.11
34.57
32.94
31.25
29.45
27.51
25.42
23.16
20.77
18.31
15.84
13.49
11.35
9.42
7.58
5.62
3.31
0.52
-2.66
-6.06
-9.43
-12.62
-15.61
-18.51
-21.52
-24.82
-28.59
-32.95
-37.92
-43.33
-48.71
-53.36
-56.40
-57.10
-55.03
-50.26
-43.31
-35.03
-26.26
-17.74
-9.96
-3.15
2.62
7.40
11.29
14.46
17.11
19.44
21.65
23.79
25.83
27.63
29.07
30.09
30.77
31.30
31.84
32.53
33.37
34.24
34.99
35.44
35.48
35.02
34.04
32.54
30.60
28.32
25.91
23.59
21.54
19.87
18.55
17.45
16.40
15.22
13.79
12.04
10.00
7.72
5.29
2.76
0.17
-2.49
-5.24
-8.09
-11.03
-14.00
-16.93
-19.75
-22.45
-25.12
-27.96
-31.21
-35.05
-39.45
-44.09
-48.37
-51.53
-52.84
-51.77
-48.23
-42.50
-35.16
-26.90
-18.37
-10.09
-2.49
4.08
9.35
13.22
15.82
17.48
18.62
19.64
20.74
21.88
22.96
23.88
24.67
25.49
26.46
27.59
28.79
29.92
30.86
31.60
32.14
32.44
32.36
31.73
30.37
28.27
25.66
22.87
20.32
18.32
16.94
16.04
15.26
14.25
12.76
10.79
8.53
6.28
4.26
2.55
1.02
-0.55
-2.34
-4.39
-6.59
-8.80
-10.95
-13.08
-15.28
-17.65
-20.19
-22.92
-25.85
-29.15
-32.98
-37.34
-41.89
-45.94
-48.57
-48.95
-46.67
-41.81
-34.99
-27.09
-19.02
-11.49
-5.03
0.12
3.92
6.54
8.31
9.62
10.85
12.20
13.67
15.07
16.18
16.86
17.14
17.21
17.33
17.67
18.34
19.30
20.47
21.73
22.91
23.83
24.32
24.27
23.69
22.71
21.53
20.33
19.18
18.06
16.94
15.76
14.52
13.31
12.13
10.98
9.81
8.59
7.33
6.06
4.83
3.66
2.52
1.29
-0.15
-1.89
-3.97
-6.36
-8.93
-11.52
-14.04
-16.48
-18.99
-21.79
-25.13
-29.15
-33.75
-38.55
-42.96
-46.36
-48.19
-48.16
-46.24
-42.58
-37.44
-31.17
-24.19
-17.04
-10.29
-4.51
-0.00
3.19
5.33
6.80
7.93
8.90
9.78
10.60
11.42
12.34
13.41
14.58
15.75
16.80
17.67
18.45
19.25
20.15
21.14
22.05
22.69
22.88
22.61
21.96
21.10
20.16
19.20
18.20
17.07
15.79
14.37
12.93
11.54
10.24
8.92
7.44
5.70
3.74
1.76
-0.01
-1.45
-2.60
-3.65
-4.83
-6.28
-7.99
-9.83
-11.66
-13.39
-15.09
-16.87
-18.87
-21.23
-24.08
-27.49
-31.43
-35.71
-39.95
-43.59
-46.04
-46.79
-45.52
-42.22
-37.14
-30.78
-23.80
-16.87
-10.56
-5.19
-0.84
2.61
5.32
7.46
9.07
10.22
10.95
11.39
11.68
11.94
12.24
12.59
12.98
13.44
13.99
14.70
15.60
16.71
17.97
19.27
20.41
21.16
21.33
20.83
19.71
18.19
16.54
15.07
13.93
13.06
12.27
11.28
9.90
8.14
6.20
4.36
2.83
1.66
0.66
-0.38
-1.63
-3.07
-4.58
-6.05
-7.49
-9.03
-10.80
-12.85
-15.09
-17.37
-19.59
-21.82
-24.26
-27.07
-30.29
-33.71
-36.90
-39.36
-40.61
-40.31
-38.34
-34.84
-30.06
-24.44
-18.46
-12.59
-7.23
-2.65
0.97
3.61
5.33
6.33
6.84
7.12
7.40
7.77
8.24
8.78
9.34
9.95
10.70
11.65
12.85
14.24
15.69
17.09
18.35
19.44
20.31
20.85
20.92
20.37
19.22
17.57
15.74
14.02
12.60
11.47
10.48
9.42
8.21
6.88
5.53
4.27
3.10
1.91
0.58
-0.97
-2.69
-4.52
-6.36
-8.20
-10.09
-12.05
-14.02
-15.90
-17.55
-18.95
-20.21
-21.58
-23.35
-25.67
-28.54
-31.69
-34.65
-36.89
-37.86
-37.18
-34.70
-30.60
-25.28
-19.30
-13.23
-7.52
-2.47
1.81
5.29
7.98
9.92
11.19
11.88
12.14
12.13
11.99
11.85
11.78
11.85
12.11
12.59
13.29
14.19
15.23
16.31
17.41
18.44
19.31
19.85
19.94
19.49
18.54
17.27
15.92
14.70
13.66
12.72
11.71
10.50
9.04
7.41
5.75
4.19
2.77
1.51
0.37
-0.66
-1.61
-2.55
-3.58
-4.86
-6.52
-8.59
-10.98
-13.48
-15.81
-17.80
-19.38
-20.68
-21.92
-23.44
-25.47
-28.18
-31.56
-35.42
-39.35
-42.74
-44.92
-45.33
-43.71
-40.22
-35.29
-29.54
-23.50
-17.52
-11.83
-6.53
-1.77
2.26
5.45
7.75
9.27
10.23
10.89
11.50
12.30
13.47
15.18
17.42
20.03
22.64
24.87
26.42
27.23
27.45
27.32
27.05
26.69
26.21
25.53
24.60
23.45
22.17
20.84
19.48
18.07
16.56
14.92
13.20
11.48
9.89
8.48
7.20
5.89
4.32
2.41
0.21
-2.01
-3.93
-5.34
-6.29
-6.98
-7.72
-8.79
-10.29
-12.32
-14.91
-18.07
-21.70
-25.48
-28.82
-31.02
-31.46
-29.80
-26.11
-20.83
-14.70
-8.52
-3.10
0.93
3.14
3.40
1.94
-0.72
-3.82
-6.54
-8.19
-8.37
-7.08
-4.67
-1.68
1.27
3.68
5.27
5.96
5.84
5.13
4.10
3.04
2.25
1.90
2.05
2.57
3.25
3.82
4.10
3.99
3.44
2.45
1.06
-0.66
-2.54
-4.40
-6.03
-7.35
-8.37
-9.30
-10.41
-11.96
-14.11
-16.85
-19.90
-22.79
-24.95
-25.91
-25.43
-23.61
-20.71
-17.14
-13.21
-9.13
-5.02
-1.00
2.80
6.22
9.13
11.42
13.07
14.09
14.58
14.69
14.53
14.26
13.94
13.58
13.14
12.65
12.20
11.92
11.91
12.16
12.53
12.81
12.82
12.49
11.77
10.62
8.98
6.80
4.10
1.00
-2.26
-5.42
-8.32
-10.99
-13.54
-16.18
-19.09
-22.29
-25.65
-28.86
-31.43
-32.87
-32.80
-31.03
-27.69
-23.18
-17.97
-12.56
-7.30
-2.48
1.73
5.13
7.64
9.23
10.03
10.26
10.13
9.77
9.22
8.48
7.52
6.46
5.48
4.83
4.72
5.21
6.19
7.32
8.22
8.48
7.91
6.54
4.62
2.44
0.19
-2.12
-4.61
-7.48
-10.86
-14.78
-19.13
-23.67
-28.04
-31.79
-34.42
-35.44
-34.55
-31.63
-26.90
-20.81
-13.99
-7.14
-0.91
4.25
8.09
10.62
12.12
12.95
13.48
13.93
14.36
14.68
14.74
14.42
13.70
12.71
11.67
10.88
10.60
10.84
11.45
12.02
12.10
11.34
9.58
6.97
3.87
0.77
-1.86
-3.67
-4.54
-4.72
-4.73
-5.28
-6.90
-9.80
-13.61
-17.56
-20.74
-22.41
-22.22
-20.23
-16.73
-12.14
-6.87
-1.34
4.02
8.77
12.61
15.47
17.47
18.90
20.07
21.15
22.17
23.05
23.69
24.02
24.05
23.83
23.40
22.86
22.31
21.84
21.50
21.23
20.87
20.24
19.22
17.76
15.94
13.92
11.83
9.74
7.61
5.35
2.81
-0.09
-3.36
-6.92
-10.66
-14.50
-18.41
-22.35
-26.26
-29.90
-32.84
-34.56
-34.58
-32.66
-28.88
-23.65
-17.60
-11.41
-5.59
-0.48
3.86
7.55
10.81
13.88
16.87
19.79
22.53
24.90
26.68
27.70
27.87
27.27
26.21
25.15
24.56
24.76
25.73
27.13
28.44
29.21
29.26
28.68
27.72
26.58
25.34
23.91
22.23
20.30
18.20
15.99
13.62
10.96
7.90
4.43
0.75
-2.84
-6.07
-8.79
-11.03
-13.00
-14.94
-17.07
-19.60
-22.68
-26.40
-30.65
-35.12
-39.23
-42.25
-43.49
-42.55
-39.41
-34.42
-28.24
-21.58
-15.02
-8.97
-3.66
0.83
4.57
7.66
10.32
12.71
15.01
17.22
19.27
21.04
22.44
23.49
24.32
25.07
25.82
26.56
27.22
27.72
28.02
28.16
28.13
27.89
27.34
26.40
25.00
23.23
21.23
19.15
17.09
15.03
12.91
10.68
8.36
6.06
3.89
1.91
0.05
-1.80
-3.75
-5.84
-8.02
-10.20
-12.38
-14.64
-17.17
-20.17
-23.73
-27.80
-32.11
-36.30
-39.83
-42.19
-42.90
-41.66
-38.47
-33.62
-27.69
-21.31
-15.10
-9.42
-4.43
-0.12
3.63
6.92
9.82
12.39
14.60
16.48
18.02
19.23
20.17
20.90
21.53
22.15
22.84
23.63
24.53
25.51
26.49
27.35
27.95
28.16
27.91
27.24
26.22
25.00
23.65
22.27
20.86
19.39
17.86
16.24
14.56
12.81
11.03
9.20
7.35
5.47
3.63
1.90
0.35
-1.01
-2.30
-3.73
-5.53
-7.77
-10.37
-13.13
-15.84
-18.45
-21.06
-23.86
-26.99
-30.45
-34.01
-37.36
-40.11
-41.90
-42.43
-41.47
-38.93
-34.93
-29.81
-24.08
-18.29
-12.91
-8.21
-4.31
-1.12
1.51
3.84
6.11
8.47
10.90
13.28
15.37
16.96
18.00
18.64
19.09
19.58
20.19
20.85
21.45
21.89
22.12
22.23
22.23
22.12
21.78
21.04
19.80
18.07
15.97
13.69
11.38
9.16
7.09
5.18
3.44
1.81
0.19
-1.56
-3.59
-5.97
-8.63
-11.41
-14.13
-16.70
-19.16
-21.69
-24.52
-27.79
-31.47
-35.42
-39.51
-43.63
-47.86
-52.31
-57.11
-62.19
-67.34
-72.19
-76.37
-79.59
-81.57
-82.09
-80.89
-77.72
-72.46
-65.29
-56.67
-47.29
-37.89
-29.08
-21.21
-14.48
-8.91
-4.37
-0.62
2.69
6.07
9.93
14.57
20.03
26.08
32.40
38.69
44.80
50.77
56.67
62.48
68.03
72.97
76.87
79.30
79.97
78.76
75.97
72.31
68.84
66.80
67.17
70.35
75.96
82.96
89.94
95.65
99.26
100.48
99.51
96.80
93.01
88.97
85.63
83.92
84.54
87.60
92.56
98.10
102.45
103.67
100.28
91.59
78.01
60.94
42.38
24.35
8.44
-4.50
-14.27
-21.02
-25.04
-26.57
-25.92
-23.55
-20.12
-16.33
-12.75
-9.67
-7.04
-4.65
-2.25
0.30
3.03
5.82
8.41
10.39
11.28
10.68
8.43
4.82
0.51
-3.59
-6.64
-8.12
-8.01
-6.80
-5.26
-4.16
-4.09
-5.32
-7.81
-11.32
-15.64
-20.59
-26.07
-31.90
-37.72
-42.87
-46.60
-48.35
-48.05
-46.26
-43.97
-42.20
-41.54
-41.97
-42.97
-43.80
-43.89
-43.00
-41.17
-38.57
-35.38
-31.77
-28.03
-24.51
-21.63
-19.73
-18.89
-18.92
-19.49
-20.24
-20.86
-21.14
-20.97
-20.23
-18.92
-17.12
-15.13
-13.39
-12.34
-12.21
-12.91
-13.98
-14.83
-15.04
-14.57
-13.77
-13.19
-13.28
-14.17
-15.61
-17.20
-18.58
-19.61
-20.34
-20.89
-21.37
-21.79
-22.19
-22.62
-23.19
-24.03
-25.15
-26.38
-27.47
-28.21
-28.56
-28.73
-29.10
-29.98
-31.47
-33.37
-35.22
-36.50
-36.87
-36.31
-35.15
-33.96
-33.35
-33.82
-35.63
-38.78
-42.92
-47.52
-51.93
-55.55
-57.96
-59.08
-59.09
-58.32
-57.06
-55.39
-53.17
-50.14
-46.11
-41.10
-35.32
-29.05
-22.46
-15.62
-8.56
-1.46
5.23
10.78
14.51
16.02
15.39
13.16
10.05
6.68
3.38
0.27
-2.62
-5.23
-7.42
-9.02
-9.99
-10.46
-10.66
-10.83
-11.15
-11.68
-12.34
-13.06
-13.77
-14.37
-14.68
-14.48
-13.51
-11.54
-8.53
-4.57
-0.01
4.75
9.40
13.74
17.79
21.62
25.23
28.50
31.19
33.06
33.98
34.06
33.43
32.28
30.66
28.51
25.76
22.45
18.78
15.08
11.71
8.84
6.48
4.47
2.50
0.25
-2.55
-6.04
-10.22
-14.91
-19.74
-24.26
-28.00
-30.60
-31.91
-31.95
-30.83
-28.69
-25.59
-21.60
-16.87
-11.67
-6.41
-1.56
2.46
5.38
7.16
7.92
7.89
7.35
6.54
5.59
4.58
3.49
2.32
1.11
-0.01
-0.83
-1.18
-1.00
-0.38
0.42
1.03
1.03
0.15
-1.79
-4.74
-8.43
-12.41
-16.11
-18.89
-20.21
-19.76
-17.50
-13.66
-8.70
-3.20
2.30
7.32
11.56
14.86
17.22
18.78
19.69
20.11
20.13
19.78
19.06
17.91
16.35
14.38
12.09
9.59
7.05
4.58
2.27
0.14
-1.90
-3.96
-6.10
-8.37
-10.75
-13.28
-16.02
-19.06
-22.35
-25.69
-28.58
-30.39
-30.55
-28.65
-24.69
-19.00
-12.17
-4.89
2.23
8.75
14.41
19.11
22.86
25.62
27.40
28.19
28.09
27.31
26.15
24.90
23.74
22.67
21.57
20.31
18.86
17.29
15.71
14.19
12.68
11.05
9.18
7.00
4.55
1.90
-0.90
-3.90
-7.18
-10.80
-14.68
-18.59
-22.09
-24.65
-25.78
-25.16
-22.74
-18.74
-13.61
-7.95
-2.38
2.57
6.59
9.65
11.96
13.93
15.95
18.28
20.96
23.79
26.46
28.63
30.05
30.58
30.28
29.31
27.93
26.47
25.19
24.28
23.70
23.26
22.62
21.51
19.81
17.61
15.21
12.91
10.91
9.14
7.38
5.30
2.62
-0.85
-5.18
-10.37
-16.29
-22.60
-28.68
-33.67
-36.67
-37.07
-34.71
-30.04
-23.83
-16.94
-10.06
-3.60
2.23
7.30
11.52
14.85
17.33
19.12
20.44
21.52
22.52
23.50
24.41
25.16
25.63
25.77
25.62
25.28
24.90
24.54
24.11
23.43
22.26
20.49
18.18
15.53
12.78
10.12
7.63
5.28
2.99
0.66
-1.92
-4.96
-8.67
-13.11
-18.08
-23.05
-27.35
-30.26
-31.29
-30.27
-27.36
-22.90
-17.35
-11.18
-4.81
1.33
6.91
11.71
15.71
18.99
21.75
24.10
26.03
27.48
28.33
28.54
28.19
27.44
26.45
25.41
24.47
23.82
23.62
24.00
24.86
25.89
26.58
26.47
25.31
23.23
20.64
18.06
15.88
14.16
12.72
11.19
9.32
6.98
4.31
1.50
-1.25
-3.83
-6.24
-8.54
-10.81
-13.12
-15.60
-18.36
-21.52
-25.07
-28.79
-32.27
-34.90
-36.08
-35.36
-32.62
-28.14
-22.49
-16.29
-10.09
-4.22
1.14
5.87
9.88
13.06
15.42
17.13
18.43
19.62
20.80
21.93
22.80
23.24
23.25
23.04
22.90
23.07
23.66
24.54
25.48
26.18
26.40
26.00
24.92
23.26
21.16
18.83
16.47
14.25
12.26
10.53
9.06
7.75
6.52
5.27
3.93
2.45
0.78
-1.13
-3.31
-5.73
-8.30
-10.90
-13.45
-15.97
-18.61
-21.57
-25.00
-28.85
-32.80
-36.40
-39.13
-40.53
-40.35
-38.49
-35.07
-30.36
-24.76
-18.74
-12.79
-7.31
-2.64
1.07
3.83
5.79
7.22
8.37
9.47
10.63
11.83
12.98
13.97
14.79
15.47
16.14
16.92
17.82
18.79
19.71
20.42
20.85
21.00
20.88
20.56
20.06
19.37
18.47
17.35
15.99
14.39
12.56
10.53
8.34
6.12
3.95
1.96
0.13
-1.59
-3.32
-5.15
-7.13
-9.28
-11.59
-14.08
-16.74
-19.59
-22.61
-25.73
-28.91
-32.13
-35.38
-38.68
-41.97
-45.16
-48.13
-50.66
-52.41
-52.90
-51.55
-47.87
-41.73
-33.52
-24.17
-14.82
-6.48
0.34
5.69
9.96
13.59
16.79
19.47
21.43
22.50
22.70
22.23
21.48
20.89
20.88
21.76
23.64
26.30
29.23
31.68
32.91
32.41
30.06
26.22
21.60
17.03
13.25
10.68
9.32
8.78
8.50
7.85
6.42
4.12
1.22
-1.81
-4.38
-6.05
-6.69
-6.50
-5.95
-5.61
-5.97
-7.31
-9.58
-12.51
-15.60
-18.30
-20.11
-20.64
-19.68
-17.19
-13.29
-8.23
-2.42
3.62
9.28
14.00
17.38
19.38
20.26
20.45
20.34
20.05
19.56
18.77
17.76
16.86
16.50
17.00
18.28
19.90
21.24
21.86
21.69
21.01
20.24
19.63
19.20
18.79
18.29
17.80
17.57
17.80
18.47
19.25
19.63
19.07
17.29
14.23
10.06
5.04
-0.52
-6.28
-11.86
-16.86
-20.79
-23.13
-23.42
-21.38
-17.12
-11.22
-4.61
1.64
6.64
9.87
11.24
10.90
9.08
5.96
1.76
-3.19
-8.39
-13.17
-16.95
-19.41
-20.50
-20.48
-19.77
-18.77
-17.85
-17.11
-16.43
-15.48
-13.87
-11.38
-8.13
-4.64
-1.62
0.20
0.26
-1.74
-5.91
-12.12
-20.03
-28.93
-37.72
-45.00
-49.36
-49.80
-46.07
-38.81
-29.29
-19.07
-9.51
-1.43
4.98
9.84
13.31
15.34
15.62
13.93
10.37
5.62
0.80
-2.89
-4.61
-4.11
-1.75
1.75
5.63
9.27
12.31
14.51
15.70
15.76
14.63
12.40
9.26
5.46
1.18
-3.53
-8.67
-14.17
-19.72
-24.77
-28.56
-30.46
-30.06
-27.36
-22.69
-16.69
-10.18
-4.02
1.04
4.54
6.47
7.26
7.61
8.22
9.53
11.61
14.13
16.54
18.30
18.92
18.11
15.79
12.09
7.33
2.04
-3.19
-7.80
-11.44
-14.09
-16.10
-18.03
-20.55
-24.09
-28.71
-34.05
-39.42
-43.99
-47.05
-48.10
-46.92
-43.62
-38.51
-32.09
-25.04
-18.04
-11.69
-6.34
-1.99
1.68
5.19
8.97
13.19
17.56
21.47
24.19
25.17
24.27
21.77
18.23
14.32
10.65
7.66
5.63
4.65
4.62
5.24
6.05
6.57
6.49
5.78
4.65
3.46
2.55
2.17
2.44
3.36
4.88
6.86
9.11
11.34
13.34
14.98
16.26
17.30
18.23
19.08
19.75
20.04
19.75
18.76
17.08
14.86
12.34
9.82
7.57
5.87
4.90
4.70
5.15
5.95
6.64
6.69
5.56
2.89
-1.41
-6.99
-13.13
-18.87
-23.33
-25.96
-26.72
-26.00
-24.40
-22.44
-20.43
-18.43
-16.35
-14.16
-11.87
-9.57
-7.33
-5.15
-2.97
-0.79
1.29
3.04
4.19
4.54
4.10
3.09
1.78
0.38
-1.08
-2.72
-4.75
-7.37
-10.66
-14.60
-19.04
-23.70
-28.16
-31.82
-33.98
-34.03
-31.58
-26.69
-19.89
-12.10
-4.37
2.38
7.59
11.09
13.05
13.79
13.63
12.80
11.44
9.71
7.81
6.02
4.58
3.65
3.20
3.07
3.03
2.87
2.43
1.64
0.45
-1.21
-3.45
-6.42
-10.16
-14.56
-19.15
-23.25
-26.03
-26.78
-25.17
-21.32
-15.83
-9.53
-3.26
2.32
6.91
10.44
13.09
15.02
16.38
17.16
17.32
16.82
15.68
14.02
12.05
9.95
7.90
6.03
4.43
3.15
2.15
1.33
0.43
-0.89
-2.96
-5.99
-9.89
-14.29
-18.58
-22.09
-24.23
-24.60
-23.08
-19.75
-14.92
-9.08
-2.84
3.18
8.45
12.64
15.71
17.78
19.07
19.76
19.89
19.43
18.33
16.59
14.35
11.89
9.55
7.65
6.39
5.74
5.49
5.26
4.65
3.29
0.92
-2.59
-7.18
-12.54
-18.08
-22.97
-26.29
-27.29
-25.64
-21.53
-15.56
-8.59
-1.41
5.37
11.42
16.60
20.80
23.90
25.83
26.60
26.42
25.64
24.63
23.65
22.75
21.74
20.35
18.37
15.82
12.94
10.09
7.57
5.54
3.91
2.37
0.51
-2.11
-5.89
-10.97
-17.15
-23.81
-29.95
-34.39
-36.10
-34.56
-29.89
-22.84
-14.54
-6.11
1.59
8.10
13.34
17.48
20.73
23.32
25.36
26.89
27.86
28.19
27.83
26.82
25.27
23.35
21.21
18.98
16.79
14.79
13.15
11.96
11.12
10.41
9.44
7.91
5.65
2.69
-0.83
-4.79
-9.15
-13.96
-19.24
-24.85
-30.34
-35.01
-37.99
-38.55
-36.23
-31.14
-23.87
-15.40
-6.75
1.25
8.17
13.97
18.80
22.93
26.51
29.60
32.14
34.02
35.09
35.27
34.55
33.08
31.11
29.01
27.12
25.63
24.54
23.64
22.68
21.41
19.74
17.70
15.36
12.77
9.92
6.74
3.09
-1.13
-6.06
-11.75
-18.07
-24.59
-30.57
-35.06
-37.15
-36.33
-32.61
-26.52
-18.95
-10.83
-3.03
3.86
9.44
13.53
16.19
17.65
18.30
18.51
18.53
18.43
18.18
17.70
17.00
16.17
15.32
14.46
13.51
12.33
10.85
9.09
7.20
5.36
3.65
1.99
0.17
-2.10
-5.11
-9.01
-13.84
-19.38
-25.11
-30.26
-33.95
-35.37
-34.10
-30.20
-24.18
-16.90
-9.27
-2.09
4.09
9.06
12.83
15.60
17.60
19.01
19.90
20.26
20.08
19.43
18.50
17.56
16.82
16.38
16.16
15.94
15.50
14.65
13.36
11.62
9.51
7.03
4.21
1.04
-2.51
-6.45
-10.84
-15.73
-21.12
-26.84
-32.40
-36.99
-39.68
-39.67
-36.67
-31.02
-23.59
-15.54
-7.89
-1.29
4.14
8.60
12.40
15.79
18.82
21.38
23.30
24.49
24.88
24.54
23.57
22.13
20.41
18.65
17.03
15.71
14.68
13.83
12.98
11.95
10.57
8.73
6.39
3.55
0.27
-3.44
-7.58
-12.20
-17.33
-22.85
-28.41
-33.41
-37.07
-38.67
-37.72
-34.22
-28.60
-21.63
-14.15
-6.87
-0.25
5.54
10.48
14.59
17.90
20.41
22.17
23.27
23.86
24.07
24.00
23.68
23.12
22.34
21.44
20.49
19.63
18.90
18.26
17.59
16.65
15.20
13.06
10.27
6.98
3.50
0.06
-3.22
-6.44
-9.85
-13.76
-18.37
-23.68
-29.41
-35.03
-39.83
-43.04
-44.09
-42.68
-38.93
-33.34
-26.58
-19.37
-12.28
-5.75
-0.05
4.69
8.41
11.16
13.06
14.31
15.11
15.60
15.88
15.91
15.66
15.09
14.22
13.16
12.02
10.89
9.76
8.57
7.26
5.79
4.10
2.12
-0.33
-3.50
-7.50
-12.17
-17.02
-21.40
-24.82
-27.25
-29.09
-31.01
-33.47
-36.49
-39.52
-41.82
-42.69
-41.78
-39.05
-34.61
-28.54
-20.92
-11.91
-1.89
8.50
18.48
27.30
34.35
39.28
41.95
42.49
41.30
39.00
36.27
33.64
31.38
29.49
27.85
26.42
25.29
24.62
24.49
24.73
24.98
24.80
23.93
22.34
20.21
17.77
15.19
12.52
9.69
6.64
3.30
-0.38
-4.41
-8.79
-13.40
-17.96
-22.07
-25.14
-26.65
-26.23
-23.87
-19.83
-14.71
-9.16
-3.76
1.13
5.42
9.11
12.23
14.67
16.24
16.73
16.07
14.40
12.06
9.46
6.99
4.88
3.25
2.10
1.40
1.03
0.88
0.71
0.29
-0.58
-1.97
-3.78
-5.84
-7.97
-10.06
-12.16
-14.46
-17.16
-20.41
-24.18
-28.21
-31.94
-34.74
-36.02
-35.37
-32.75
-28.48
-23.13
-17.32
-11.60
-6.33
-1.73
2.03
4.80
6.48
7.05
6.67
5.59
4.13
2.53
0.97
-0.47
-1.72
-2.76
-3.59
-4.26
-4.92
-5.73
-6.79
-8.09
-9.55
-11.11
-12.85
-14.98
-17.76
-21.36
-25.81
-30.87
-36.18
-41.27
-45.62
-48.69
-49.96
-49.03
-45.78
-40.46
-33.67
-26.21
-18.81
-11.97
-5.83
-0.27
4.89
9.74
14.18
18.01
20.97
22.90
23.83
23.94
23.54
22.93
22.33
21.82
21.36
20.82
20.06
18.98
17.54
15.72
13.56
11.09
8.34
5.28
1.83
-2.12
-6.68
-11.83
-17.42
-23.08
-28.28
-32.32
-34.53
-34.35
-31.55
-26.31
-19.21
-11.12
-2.96
4.51
10.87
16.03
20.14
23.46
26.16
28.35
30.06
31.29
32.02
32.26
32.00
31.25
30.06
28.53
26.83
25.16
23.67
22.44
21.44
20.52
19.45
17.96
15.81
12.87
9.17
4.97
0.65
-3.39
-6.89
-9.88
-12.61
-15.52
-19.05
-23.45
-28.60
-33.97
-38.69
-41.69
-42.09
-39.42
-33.88
-26.26
-17.68
-9.23
-1.61
4.92
10.43
15.14
19.14
22.41
24.88
26.49
27.33
27.59
27.53
27.37
27.24
27.11
26.84
26.23
25.15
23.63
21.86
20.09
18.53
17.17
15.81
14.16
11.97
9.17
5.81
2.14
-1.61
-5.23
-8.63
-11.78
-14.79
-17.83
-21.13
-24.90
-29.24
-34.09
-39.15
-43.87
-47.50
-49.31
-48.69
-45.47
-39.91
-32.68
-24.63
-16.58
-9.11
-2.49
3.19
7.95
11.83
14.87
17.13
18.74
19.86
20.60
21.02
21.13
20.96
20.61
20.21
19.87
19.62
19.36
18.90
18.06
16.79
15.12
13.14
10.93
8.48
5.73
2.75
-0.35
-3.38
-6.24
-9.04
-12.08
-15.69
-20.10
-25.28
-30.86
-36.22
-40.65
-43.49
-44.27
-42.78
-39.08
-33.46
-26.42
-18.56
-10.49
-2.73
4.33
10.38
15.28
19.00
21.59
23.22
24.16
24.66
24.97
25.24
25.50
25.70
25.78
25.73
25.59
25.45
25.36
25.27
25.06
24.55
23.62
22.22
20.48
18.57
16.66
14.82
13.00
11.03
8.76
6.04
2.91
-0.50
-3.94
-7.19
-10.14
-12.86
-15.56
-18.51
-22.00
-26.11
-30.77
-35.65
-40.22
-43.85
-45.88
-45.82
-43.42
-38.78
-32.32
-24.72
-16.69
-8.85
-1.65
4.70
10.12
14.62
18.21
20.92
22.83
24.05
24.75
25.12
25.32
25.47
25.70
26.08
26.66
27.41
28.21
28.90
29.31
29.38
29.10
28.55
27.79
26.87
25.78
24.47
22.94
21.18
19.22
17.12
14.93
12.69
10.44
8.21
6.01
3.86
1.74
-0.39
-2.60
-4.98
-7.63
-10.63
-13.94
-17.42
-20.86
-24.12
-27.22
-30.36
-33.77
-37.59
-41.63
-45.36
-48.04
-48.95
-47.67
-44.20
-38.95
-32.54
-25.65
-18.84
-12.46
-6.71
-1.68
2.61
6.15
8.99
11.20
12.85
14.05
14.88
15.41
15.75
16.06
16.50
17.26
18.40
19.90
21.62
23.37
24.98
26.33
27.33
27.91
28.02
27.60
26.65
25.26
23.58
21.75
19.85
17.90
15.83
13.65
11.40
9.22
7.21
5.34
3.52
1.54
-0.73
-3.34
-6.15
-8.99
-11.65
-14.07
-16.29
-18.44
-20.73
-23.35
-26.51
-30.29
-34.60
-39.04
-43.00
-45.67
-46.34
-44.68
-40.81
-35.32
-29.06
-22.79
-17.06
-12.04
-7.67
-3.81
-0.36
2.70
5.35
7.62
9.55
11.26
12.79
14.16
15.34
16.36
17.32
18.38
19.69
21.30
23.08
24.72
25.88
26.25
25.80
24.68
23.26
21.89
20.78
19.91
19.05
17.90
16.22
13.97
11.29
8.48
5.85
3.64
1.95
0.66
-0.48
-1.79
-3.56
-5.88
-8.60
-11.43
-14.02
-16.16
-17.90
-19.50
-21.45
-24.21
-28.04
-32.88
-38.24
-43.27
-46.93
-48.30
-46.82
-42.48
-35.80
-27.65
-19.02
-10.79
-3.52
2.51
7.35
11.30
14.67
17.75
20.63
23.17
25.04
25.88
25.50
24.03
21.92
19.83
18.41
18.02
18.71
20.22
22.06
23.70
24.63
24.45
22.91
19.98
15.93
11.24
6.55
2.47
-0.64
-2.72
-3.99
-4.83
-5.59
-6.49
-7.53
-8.55
-9.34
-9.83
-10.14
-10.58
-11.53
-13.24
-15.65
-18.49
-21.33
-23.89
-26.03
-27.76
-29.05
-29.75
-29.52
-28.01
-24.98
-20.39
-14.37
-7.21
0.68
8.69
16.08
22.01
25.83
27.32
26.81
25.04
22.90
21.09
19.96
19.50
19.46
19.58
19.62
19.47
19.04
18.25
17.06
15.46
13.52
11.39
9.21
7.10
5.10
3.16
1.18
-0.96
-3.44
-6.32
-9.61
-13.18
-16.78
-20.09
-22.78
-24.60
-25.35
-24.92
-23.22
-20.29
-16.24
-11.39
-6.18
-1.10
3.39
7.00
9.64
11.37
12.27
12.38
11.72
10.29
8.17
5.55
2.67
-0.21
-2.94
-5.40
-7.53
-9.30
-10.67
-11.59
-12.07
-12.16
-11.99
-11.76
-11.75
-12.18
-13.28
-15.17
-17.84
-21.14
-24.80
-28.48
-31.78
-34.33
-35.74
-35.72
-34.11
-30.94
-26.52
-21.33
-15.89
-10.68
-5.95
-1.75
2.00
5.36
8.32
10.70
12.31
13.01
12.78
11.78
10.33
8.78
7.36
6.20
5.26
4.41
3.54
2.55
1.43
0.13
-1.44
-3.40
-5.90
-9.05
-12.86
-17.18
-21.75
-26.10
-29.70
-32.03
-32.71
-31.59
-28.84
-24.85
-20.18
-15.36
-10.82
-6.83
-3.48
-0.74
1.55
3.59
5.55
7.55
9.61
11.63
13.43
14.87
15.76
15.98
15.48
14.22
12.32
9.98
7.44
4.86
2.33
-0.27
-3.16
-6.53
-10.52
-15.13
-20.23
-25.55
-30.77
-35.45
-39.15
-41.45
-42.03
-40.76
-37.74
-33.24
-27.64
-21.39
-14.92
-8.65
-2.91
1.98
5.81
8.44
9.87
10.32
10.23
10.20
10.77
12.29
14.63
17.29
19.59
20.97
21.29
20.87
20.30
20.09
20.41
20.98
21.15
20.21
17.68
13.42
7.70
1.02
-6.04
-13.01
-19.58
-25.58
-30.78
-34.92
-37.60
-38.48
-37.43
-34.67
-30.86
-26.92
-23.84
-22.47
-23.35
-26.75
-32.72
-40.90
-50.40
-59.57
-66.21
-68.25
-64.53
-55.39
-42.68
-29.02
-16.77
-7.24
-0.59
3.76
6.35
7.26
6.11
2.51
-3.47
-11.10
-19.17
-26.47
-32.10
-35.62
-36.93
-36.08
-33.08
-27.91
-20.56
-11.27
-0.57
10.74
21.77
31.77
40.28
47.26
52.92
57.57
61.52
64.96
67.97
70.64
73.01
75.23
77.49
80.00
82.96
86.47
90.56
95.02
99.46
103.11
105.07
104.38
100.32
92.69
82.02
69.52
56.88
45.88
38.01
34.08
34.07
37.25
42.36
47.98
52.89
56.35
58.25
59.00
59.35
59.99
61.27
63.01
64.49
64.73
62.83
58.29
51.29
42.65
33.52
25.03
17.92
12.42
8.34
5.25
2.79
0.71
-1.15
-3.02
-5.29
-8.47
-12.94
-18.75
-25.48
-32.31
-38.28
-42.59
-44.81
-44.91
-43.10
-39.69
-34.95
-29.11
-22.43
-15.28
-8.20
-1.77
3.50
7.23
9.29
9.74
8.83
6.85
4.23
1.44
-1.07
-2.98
-4.16
-4.69
-4.81
-4.76
-4.71
-4.69
-4.69
-4.78
-5.13
-6.06
-7.88
-10.85
-14.99
-20.14
-25.83
-31.37
-35.90
-38.54
-38.72
-36.29
-31.62
-25.46
-18.67
-11.99
-5.88
-0.59
3.77
7.05
9.09
9.78
9.18
7.54
5.29
2.85
0.51
-1.70
-3.86
-6.09
-8.39
-10.62
-12.57
-14.13
-15.40
-16.62
-18.15
-20.30
-23.26
-27.09
-31.75
-37.10
-42.79
-48.22
-52.54
-54.91
-54.65
-51.62
-46.18
-39.10
-31.29
-23.52
-16.28
-9.78
-4.05
0.94
5.24
8.89
11.93
14.37
16.26
17.57
18.27
18.31
17.66
16.29
14.24
11.64
8.73
5.82
3.19
0.96
-0.99
-3.02
-5.56
-9.03
-13.58
-19.11
-25.21
-31.25
-36.44
-40.06
-41.52
-40.64
-37.65
-33.21
-28.22
-23.50
-19.62
-16.72
-14.70
-13.33
-12.48
-12.17
-12.43
-13.23
-14.39
-15.62
-16.65
-17.26
-17.41
-17.10
-16.39
-15.27
-13.70
-11.63
-9.12
-6.33
-3.64
-1.55
-0.66
-1.54
-4.63
-10.03
-17.37
-25.84
-34.19
-41.07
-45.27
-46.07
-43.38
-37.72
-30.03
-21.35
-12.60
-4.37
3.04
9.52
15.06
19.61
23.08
25.33
26.18
25.58
23.57
20.39
16.45
12.25
8.22
4.65
1.56
-1.24
-4.09
-7.25
-10.84
-14.75
-18.71
-22.44
-25.79
-28.77
-31.63
-34.62
-37.87
-41.29
-44.50
-46.91
-47.81
-46.38
-41.66
-32.77
-19.23
-1.37
19.46
41.20
61.70
79.43
93.82
105.10
113.70
119.82
123.31
124.04
122.42
119.59
117.02
115.76
115.74
115.71
113.78
108.30
98.37
84.08
66.08
45.35
23.15
1.07
-18.84
-34.46
-44.26
-47.98
-46.90
-43.34
-39.65
-37.21
-36.04
-35.04
-32.93
-28.97
-23.39
-17.11
-11.16
-6.12
-1.95
1.77
5.50
9.41
13.30
16.76
19.44
21.20
22.16
22.56
22.69
22.72
22.66
22.39
21.72
20.54
18.90
17.10
15.58
14.79
14.86
15.48
15.98
15.55
13.69
10.33
5.86
0.86
-4.31
-9.54
-14.99
-20.70
-26.41
-31.51
-35.23
-36.98
-36.69
-34.83
-32.20
-29.67
-27.78
-26.69
-26.19
-25.90
-25.47
-24.59
-23.17
-21.31
-19.43
-18.21
-18.46
-20.79
-25.23
-30.99
-36.59
-40.24
-40.47
-36.64
-29.10
-19.01
-7.87
3.04
12.92
21.44
28.59
34.46
39.13
42.75
45.61
48.23
51.23
55.11
60.07
65.92
72.16
78.09
83.13
86.77
88.72
88.77
86.83
83.00
77.60
71.12
64.19
57.36
50.99
45.19
39.85
34.74
29.63
24.38
18.83
12.88
6.39
-0.71
-8.37
-16.37
-24.35
-31.97
-39.03
-45.55
-51.74
-57.83
-63.89
-69.72
-74.79
-78.50
-80.34
-80.13
-77.99
-74.22
-69.14
-62.95
-55.74
-47.60
-38.76
-29.63
-20.78
-12.80
-6.14
-0.97
2.78
5.35
7.02
7.98
8.36
8.23
7.71
7.01
6.30
5.71
5.21
4.69
4.08
3.47
3.09
3.23
4.05
5.42
6.93
8.05
8.35
7.71
6.37
4.81
3.68
3.50
4.64
7.21
11.11
16.04
21.53
27.07
32.14
36.37
39.56
41.79
43.25
44.18
44.75
45.01
44.87
44.17
42.84
40.83
38.21
35.12
31.73
28.20
24.70
21.34
18.14
15.02
11.82
8.36
4.51
0.22
-4.45
-9.38
-14.43
-19.52
-24.63
-29.80
-35.10
-40.52
-45.92
-50.97
-55.23
-58.08
-58.98
-57.53
-53.66
-47.67
-40.19
-32.03
-23.92
-16.39
-9.72
-4.00
0.73
4.40
6.90
8.17
8.29
7.49
6.07
4.36
2.53
0.73
-0.97
-2.43
-3.50
-4.11
-4.34
-4.40
-4.65
-5.30
-6.34
-7.58
-8.76
-9.73
-10.61
-11.72
-13.44
-15.99
-19.38
-23.27
-27.17
-30.44
-32.44
-32.68
-30.86
-27.04
-21.57
-15.11
-8.43
-2.27
2.87
6.77
9.42
11.04
11.91
12.27
12.29
12.00
11.37
10.37
9.06
7.61
6.23
5.06
4.11
3.27
2.39
1.34
0.09
-1.34
-2.96
-4.73
-6.62
-8.65
-10.81
-13.15
-15.78
-18.81
-22.29
-26.01
-29.54
-32.27
-33.58
-33.06
-30.60
-26.46
-21.10
-15.16
-9.23
-3.86
0.64
4.14
6.73
8.68
10.27
11.69
12.94
13.88
14.30
14.01
13.03
11.57
10.00
8.61
7.57
6.83
6.17
5.35
4.22
2.80
1.15
-0.65
-2.68
-5.10
-8.19
-12.11
-16.87
-22.24
-27.76
-32.86
-36.88
-39.23
-39.47
-37.49
-33.50
-27.99
-21.64
-15.07
-8.79
-3.13
1.74
5.76
8.91
11.22
12.81
13.81
14.37
14.62
14.61
14.39
13.98
13.37
12.56
11.49
10.12
8.45
6.60
4.70
2.86
1.08
-0.74
-2.77
-5.16
-8.01
-11.38
-15.34
-19.88
-24.84
-29.79
-34.01
-36.67
-37.02
-34.72
-29.95
-23.33
-15.73
-7.98
-0.68
5.83
11.44
16.13
19.94
22.86
24.86
25.97
26.27
25.91
25.07
23.92
22.56
21.04
19.43
17.81
16.28
14.87
13.56
12.19
10.57
8.55
6.14
3.42
0.55
-2.43
-5.61
-9.21
-13.47
-18.42
-23.80
-28.97
-33.11
-35.42
-35.34
-32.75
-27.91
-21.40
-13.90
-6.10
1.38
8.04
13.43
17.35
19.83
21.17
21.83
22.31
22.89
23.57
24.11
24.20
23.62
22.39
20.75
19.04
17.56
16.42
15.53
14.71
13.70
12.36
10.61
8.48
6.02
3.27
0.29
-2.88
-6.24
-9.79
-13.63
-17.91
-22.77
-28.18
-33.82
-39.04
-42.95
-44.68
-43.69
-39.93
-33.85
-26.28
-18.15
-10.23
-3.03
3.23
8.50
12.79
16.12
18.49
19.95
20.67
20.86
20.85
20.86
21.02
21.25
21.38
21.22
20.71
19.99
19.32
18.83
18.46
17.92
16.81
14.90
12.24
9.10
5.82
2.64
-0.43
-3.48
-6.52
-9.49
-12.25
-14.78
-17.33
-20.34
-24.17
-28.83
-33.82
-38.23
-41.04
-41.47
-39.28
-34.70
-28.35
-20.99
-13.29
-5.80
1.11
7.22
12.39
16.56
19.74
21.95
23.26
23.81
23.80
23.47
23.01
22.61
22.28
22.00
21.67
21.21
20.63
19.97
19.29
18.59
17.83
16.86
15.64
14.13
12.43
10.60
8.62
6.37
3.67
0.42
-3.34
-7.38
-11.42
-15.31
-19.07
-22.89
-26.92
-31.11
-35.16
-38.54
-40.65
-41.01
-39.41
-35.90
-30.78
-24.48
-17.49
-10.30
-3.33
3.06
8.61
13.11
16.49
18.74
19.96
20.38
20.34
20.18
20.14
20.31
20.58
20.79
20.76
20.43
19.83
19.10
18.38
17.76
17.23
16.67
15.94
14.88
13.42
11.51
9.24
6.68
3.91
1.01
-2.02
-5.17
-8.42
-11.78
-15.28
-19.03
-23.13
-27.63
-32.35
-36.84
-40.43
-42.44
-42.32
-39.87
-35.25
-28.94
-21.60
-13.92
-6.46
0.36
6.29
11.21
15.11
18.04
20.10
21.42
22.20
22.62
22.87
23.06
23.22
23.33
23.36
23.32
23.28
23.30
23.35
23.29
22.93
22.08
20.70
18.86
16.77
14.61
12.51
10.47
8.44
6.32
4.04
1.54
-1.19
-4.17
-7.38
-10.73
-14.08
-17.31
-20.34
-23.26
-26.23
-29.44
-32.91
-36.44
-39.58
-41.72
-42.31
-41.01
-37.81
-32.99
-27.08
-20.62
-14.15
-8.02
-2.45
2.47
6.70
10.27
13.24
15.62
17.47
18.82
19.72
20.20
20.34
20.19
19.88
19.51
19.22
19.11
19.19
19.43
19.70
19.85
19.74
19.25
18.43
17.36
16.18
14.99
13.80
12.51
11.02
9.29
7.37
5.38
3.40
1.43
-0.57
-2.73
-5.07
-7.53
-9.99
-12.34
-14.53
-16.61
-18.73
-21.04
-23.65
-26.62
-29.91
-33.40
-36.89
-39.97
-42.15
-42.88
-41.74
-38.58
-33.68
-27.59
-21.05
-14.70
-8.95
-3.91
0.53
4.53
8.12
11.28
13.85
15.72
16.89
17.49
17.74
17.81
17.84
17.88
17.92
17.95
18.03
18.18
18.44
18.78
19.08
19.17
18.89
18.18
17.03
15.53
13.83
12.09
10.42
8.97
7.81
6.96
6.24
5.36
3.88
1.49
-1.94
-6.15
-10.60
-14.66
-17.79
-19.81
-20.90
-21.63
-22.69
-24.67
-27.89
-32.21
-37.10
-41.70
-45.09
-46.54
-45.63
-42.39
-37.16
-30.49
-23.03
-15.39
-8.09
-1.52
4.09
8.69
12.33
15.15
17.30
18.87
19.99
20.74
21.16
21.27
21.11
20.74
20.29
19.95
19.90
20.24
20.92
21.71
22.26
22.28
21.63
20.36
18.68
16.88
15.19
13.73
12.50
11.38
10.22
8.84
7.14
5.10
2.84
0.54
-1.62
-3.55
-5.33
-7.11
-9.06
-11.27
-13.71
-16.25
-18.78
-21.29
-23.86
-26.58
-29.42
-32.18
-34.52
-35.97
-36.17
-34.90
-32.20
-28.30
-23.59
-18.49
-13.42
-8.71
-4.57
-1.11
1.73
4.03
5.94
7.57
8.96
10.09
10.98
11.63
12.15
12.64
13.22
13.91
14.71
15.56
16.39
17.14
17.75
18.14
18.28
18.10
17.56
16.68
15.46
13.97
12.30
10.55
8.83
7.21
5.71
4.28
2.88
1.44
-0.10
-1.82
-3.80
-6.03
-8.44
-10.86
-13.14
-15.20
-17.13
-19.15
-21.44
-24.05
-26.81
-29.37
-31.37
-32.54
-32.75
-32.00
-30.27
-27.57
-23.97
-19.66
-15.02
-10.47
-6.37
-2.91
-0.06
2.34
4.44
6.32
8.02
9.52
10.79
11.87
12.77
13.46
13.95
14.29
14.54
14.86
15.36
16.06
16.82
17.43
17.67
17.39
16.65
15.60
14.43
13.28
12.17
11.04
9.85
8.61
7.37
6.20
5.04
3.83
2.43
0.80
-1.07
-3.10
-5.26
-7.55
-9.96
-12.48
-15.03
-17.52
-19.93
-22.30
-24.69
-27.18
-29.71
-32.06
-33.84
-34.61
-33.99
-31.85
-28.33
-23.87
-19.03
-14.34
-10.11
-6.41
-3.14
-0.20
2.42
4.61
6.28
7.44
8.30
9.10
10.08
11.27
12.56
13.76
14.67
15.21
15.43
15.48
15.53
15.74
16.20
16.88
17.63
18.23
18.47
18.19
17.38
16.16
14.70
13.13
11.49
9.76
7.86
5.73
3.41
0.94
-1.57
-4.06
-6.48
-8.81
-11.05
-13.22
-15.29
-17.33
-19.45
-21.81
-24.54
-27.65
-30.89
-33.82
-35.86
-36.51
-35.49
-32.85
-28.90
-24.09
-18.87
-13.56
-8.44
-3.72
0.39
3.73
6.22
7.95
9.10
9.87
10.45
10.95
11.40
11.82
12.31
12.94
13.79
14.88
16.13
17.49
18.81
20.00
20.92
21.42
21.39
20.82
19.84
18.68
17.54
16.53
15.62
14.64
13.44
11.89
9.95
7.62
4.95
2.02
-1.09
-4.20
-7.15
-9.79
-12.11
-14.22
-16.31
-18.63
-21.35
-24.58
-28.20
-31.93
-35.29
-37.64
-38.40
-37.19
-34.02
-29.31
-23.76
-18.14
-12.99
-8.56
-4.80
-1.55
1.35
3.97
6.30
8.32
10.05
11.52
12.76
13.80
14.64
15.31
15.90
16.52
17.27
18.21
19.35
20.61
21.92
23.18
24.23
24.91
25.06
24.60
23.59
22.19
20.60
19.01
17.49
16.00
14.46
12.70
10.61
8.15
5.35
2.34
-0.68
-3.60
-6.34
-8.95
-11.52
-14.14
-16.82
-19.56
-22.42
-25.50
-28.93
-32.69
-36.43
-39.49
-41.05
-40.47
-37.55
-32.64
-26.54
-20.14
-14.15
-8.87
-4.28
-0.19
3.55
6.89
9.64
11.62
12.83
13.49
13.98
14.62
15.55
16.67
17.71
18.40
18.59
18.44
18.23
18.33
18.99
20.25
21.95
23.73
25.21
26.06
26.11
25.37
23.96
22.07
19.85
17.49
15.10
12.81
10.71
8.79
6.92
4.95
2.73
0.21
-2.49
-5.24
-7.93
-10.57
-13.32
-16.39
-19.91
-23.85
-28.03
-32.15
-35.86
-38.80
-40.55
-40.75
-39.13
-35.59
-30.32
-23.80
-16.68
-9.65
-3.29
2.04
6.20
9.23
11.31
12.69
13.62
14.40
15.25
16.28
17.47
18.67
19.71
20.44
20.93
21.32
21.86
22.67
23.71
24.83
25.79
26.48
26.89
27.08
27.02
26.59
25.58
23.84
21.38
18.42
15.29
12.27
9.56
7.17
5.04
3.06
1.15
-0.75
-2.72
-4.80
-7.07
-9.51
-12.13
-14.92
-17.87
-21.03
-24.42
-28.05
-31.82
-35.49
-38.65
-40.75
-41.21
-39.65
-35.95
-30.39
-23.59
-16.29
-9.26
-3.05
2.10
6.20
9.44
12.03
14.07
15.56
16.44
16.70
16.51
16.15
15.93
16.10
16.71
17.70
18.95
20.30
21.66
22.88
23.80
24.23
24.11
23.49
22.59
21.63
20.72
19.85
18.89
17.70
16.21
14.41
12.39
10.25
8.10
6.05
4.12
2.27
0.39
-1.67
-4.01
-6.67
-9.57
-12.62
-15.77
-18.99
-22.34
-25.83
-29.38
-32.72
-35.42
-37.01
-37.04
-35.28
-31.75
-26.80
-20.99
-14.93
-9.15
-3.97
0.49
4.25
7.40
10.00
12.05
13.55
14.51
15.00
15.17
15.19
15.25
15.48
15.94
16.61
17.36
18.09
18.71
19.25
19.77
20.35
20.97
21.51
21.77
21.56
20.78
19.47
17.76
15.82
13.82
11.78
9.71
7.52
5.15
2.55
-0.28
-3.22
-6.14
-8.89
-11.39
-13.69
-15.96
-18.42
-21.27
-24.60
-28.30
-32.10
-35.57
-38.22
-39.55
-39.18
-36.93
-32.91
-27.50
-21.27
-14.86
-8.79
-3.41
1.15
4.93
8.02
10.50
12.41
13.72
14.42
14.56
14.28
13.78
13.34
13.16
13.37
14.01
15.00
16.24
17.58
18.91
20.11
21.00
21.44
21.29
20.53
19.19
17.45
15.51
13.56
11.75
10.13
8.68
7.29
5.81
4.08
2.03
-0.29
-2.80
-5.36
-7.87
-10.25
-12.57
-14.95
-17.58
-20.66
-24.32
-28.49
-32.83
-36.76
-39.52
-40.46
-39.15
-35.62
-30.32
-23.92
-17.20
-10.78
-5.10
-0.36
3.37
6.17
8.24
9.75
10.94
11.91
12.72
13.30
13.64
13.75
13.72
13.73
13.85
14.15
14.64
15.34
16.29
17.48
18.76
19.82
20.31
19.95
18.79
17.11
15.39
13.99
13.00
12.22
11.22
9.69
7.48
4.69
1.58
-1.62
-4.76
-7.77
-10.67
-13.49
-16.29
-19.15
-22.13
-25.21
-28.31
-31.19
-33.51
-34.85
-34.86
-33.33
-30.25
-25.83
-20.46
-14.64
-8.88
-3.57
1.01
4.73
7.59
9.66
11.06
11.96
12.58
13.10
13.70
14.41
15.20
15.95
16.55
17.02
17.43
17.92
18.60
19.43
20.24
20.80
20.95
20.64
19.93
18.92
17.66
16.14
14.32
12.16
9.74
7.18
4.59
2.00
-0.57
-3.13
-5.64
-8.05
-10.37
-12.67
-15.15
-18.00
-21.34
-25.08
-28.95
-32.46
-35.08
-36.28
-35.79
-33.50
-29.61
-24.49
-18.65
-12.60
-6.80
-1.56
2.87
6.39
9.01
10.82
11.98
12.70
13.17
13.52
13.80
14.03
14.14
14.17
14.19
14.36
14.82
15.61
16.65
17.73
18.62
19.14
19.16
18.60
17.48
15.89
14.02
12.17
10.53
9.18
7.90
6.39
4.34
1.69
-1.40
-4.57
-7.44
-9.84
-11.85
-13.75
-15.89
-18.54
-21.80
-25.50
-29.23
-32.40
-34.36
-34.60
-32.86
-29.23
-24.11
-18.09
-11.81
-5.80
-0.50
3.85
7.13
9.44
11.01
12.13
13.06
13.94
14.76
15.44
15.84
15.91
15.72
15.40
15.17
15.20
15.59
16.32
17.29
18.29
19.13
19.63
19.68
19.22
18.15
16.44
14.05
11.11
7.87
4.63
1.69
-0.85
-3.07
-5.18
-7.36
-9.73
-12.28
-14.95
-17.76
-20.78
-24.04
-27.42
-30.48
-32.57
-33.00
-31.37
-27.68
-22.41
-16.37
-10.38
-5.05
-0.60
3.01
5.98
8.47
10.52
12.12
13.24
13.88
14.13
14.09
13.88
13.55
13.15
12.81
12.63
12.74
13.20
13.96
14.85
15.67
16.20
16.31
15.96
15.19
14.03
12.53
10.70
8.54
6.10
3.47
0.77
-1.89
-4.45
-6.98
-9.63
-12.59
-15.99
-19.85
-23.97
-28.02
-31.60
-34.24
-35.56
-35.29
-33.34
-29.78
-24.92
-19.25
-13.31
-7.64
-2.59
1.72
5.34
8.43
11.03
13.10
14.51
15.18
15.21
14.86
14.48
14.39
14.72
15.44
16.39
17.35
18.17
18.71
18.92
18.77
18.25
17.44
16.41
15.27
14.08
12.84
11.43
9.78
7.78
5.33
2.42
-0.91
-4.50
-8.03
-11.11
-13.42
-14.90
-15.81
-16.68
-18.03
-20.08
-22.52
-24.62
-25.46
-24.43
-21.41
-16.83
-11.44
-5.97
-0.96
3.30
6.74
9.34
11.12
12.18
12.65
12.73
12.64
12.52
12.42
12.31
12.14
11.84
11.40
10.84
10.22
9.67
9.25
9.00
8.83
8.55
7.88
6.63
4.71
2.22
-0.52
-3.19
-5.53
-7.48
-9.19
-11.01
-13.25
-16.16
-19.74
-23.75
-27.73
-31.09
-33.18
-33.46
-31.66
-27.85
-22.46
-16.22
-9.91
-4.18
0.57
4.20
6.75
8.37
9.23
9.53
9.47
9.22
8.86
8.37
7.73
6.98
6.28
5.88
5.94
6.46
7.24
7.95
8.34
8.25
7.68
6.65
5.19
3.33
1.07
-1.50
-4.30
-7.27
-10.44
-13.91
-17.79
-22.05
-26.50
-30.70
-34.14
-36.24
-36.60
-35.00
-31.51
-26.47
-20.42
-13.98
-7.76
-2.22
2.37
5.99
8.79
10.98
12.79
14.35
15.67
16.71
17.40
17.67
17.56
17.13
16.51
15.79
15.09
14.49
14.04
13.71
13.40
12.93
12.07
10.66
8.60
6.00
3.02
-0.06
-3.07
-5.96
-8.87
-12.07
-15.85
-20.33
-25.38
-30.51
-35.00
-38.08
-39.14
-37.94
-34.63
-29.66
-23.62
-17.09
-10.56
-4.40
1.13
5.85
9.70
12.72
15.05
16.83
18.20
19.27
20.12
20.84
21.49
22.09
22.61
23.00
23.20
23.23
23.16
23.08
23.05
23.04
22.90
22.40
21.33
19.52
16.96
13.76
10.16
6.41
2.69
-0.92
-4.46
-8.01
-11.68
-15.57
-19.76
-24.25
-28.96
-33.59
-37.63
-40.40
-41.29
-39.90
-36.28
-30.93
-24.58
-18.04
-11.89
-6.43
-1.67
2.53
6.35
9.94
13.32
16.41
19.15
21.49
23.45
25.14
26.62
27.92
28.98
29.74
30.18
30.39
30.52
30.70
30.92
31.00
30.71
29.85
28.35
26.31
23.87
21.16
18.20
14.99
11.54
7.92
4.19
0.41
-3.48
-7.55
-11.86
-16.42
-21.15
-25.94
-30.65
-35.03
-38.73
-41.28
-42.19
-41.11
-38.01
-33.21
-27.28
-20.85
-14.44
-8.36
-2.71
2.50
7.28
11.60
15.45
18.79
21.61
23.97
25.92
27.52
28.85
29.95
30.79
31.31
31.47
31.26
30.80
30.20
29.58
28.97
28.31
27.54
26.66
25.69
24.60
23.17
21.05
17.85
13.35
7.70
1.43
-4.73
-10.12
-14.43
-17.76
-20.54
-23.30
-26.43
-30.04
-34.02
-37.99
-41.52
-44.11
-45.35
-44.90
-42.60
-38.50
-32.87
-26.16
-18.94
-11.78
-5.15
0.65
5.55
9.63
13.12
16.20
18.99
21.53
23.69
25.31
26.27
26.60
26.53
26.44
26.65
27.38
28.54
29.85
30.92
31.39
31.06
29.90
28.07
25.77
23.19
20.47
17.66
14.80
11.90
9.01
6.15
3.31
0.39
-2.71
-6.03
-9.56
-13.18
-16.80
-20.40
-24.13
-28.15
-32.52
-37.00
-41.05
-43.94
-45.04
-44.00
-40.86
-36.03
-30.05
-23.44
-16.57
-9.69
-3.03
3.17
8.63
13.12
16.60
19.18
21.08
22.50
23.52
24.15
24.36
24.29
24.14
24.20
24.61
25.30
26.02
26.49
26.51
26.02
25.10
23.87
22.44
20.89
19.23
17.46
15.54
13.36
10.86
8.07
5.10
2.16
-0.63
-3.23
-5.82
-8.63
-11.80
-15.36
-19.20
-23.21
-27.34
-31.59
-35.88
-39.94
-43.23
-45.15
-45.24
-43.32
-39.58
-34.40
-28.19
-21.35
-14.20
-7.11
-0.46
5.38
10.15
13.82
16.50
18.45
19.91
21.03
21.92
22.63
23.22
23.72
24.22
24.70
25.18
25.63
26.02
26.29
26.38
26.20
25.67
24.74
23.40
21.71
19.82
17.86
15.92
14.03
12.12
10.06
7.72
4.96
1.80
-1.68
-5.30
-8.86
-12.21
-15.33
-18.31
-21.32
-24.53
-28.01
-31.67
-35.23
-38.37
-40.79
-42.29
-42.76
-42.11
-40.22
-36.99
-32.42
-26.69
-20.22
-13.53
-7.18
-1.55
3.20
7.08
10.22
12.73
14.70
16.18
17.22
17.95
18.51
19.04
19.61
20.22
20.79
21.27
21.64
21.96
22.28
22.59
22.76
22.53
21.66
20.06
17.89
15.52
13.40
11.82
10.79
10.01
9.07
7.65
5.67
3.24
0.67
-1.80
-4.02
-5.98
-7.80
-9.66
-11.74
-14.22
-17.23
-20.74
-24.48
-27.94
-30.39
-31.13
-29.72
-26.14
-20.84
-14.60
-8.30
-2.66
1.89
5.36
7.98
10.09
11.96
13.64
15.10
16.23
17.00
17.45
17.60
17.38
16.59
15.01
12.55
9.36
5.87
2.65
0.20
-1.19
-1.58
-1.26
-0.59
0.12
0.72
1.22
1.64
1.95
1.99
1.54
0.38
-1.59
-4.35
-7.72
-11.45
-15.29
-18.99
-22.36
-25.27
-27.57
-29.10
-29.70
-29.15
-27.35
-24.34
-20.41
-16.03
-11.80
-8.17
-5.39
-3.40
-1.96
-0.83
0.15
1.04
1.81
2.40
2.79
2.93
2.72
2.09
0.99
-0.45
-1.96
-3.20
-3.91
-4.04
-3.79
-3.50
-3.51
-4.02
-5.02
-6.35
-7.79
-9.15
-10.28
-11.18
-11.93
-12.75
-13.94
-15.79
-18.38
-21.51
-24.65
-27.07
-28.11
-27.45
-25.19
-21.73
-17.62
-13.32
-9.11
-5.12
-1.47
1.71
4.29
6.21
7.48
8.21
8.52
8.43
7.98
7.20
6.22
5.25
4.51
4.07
3.85
3.65
3.23
2.44
1.25
-0.25
-1.91
-3.60
-5.27
-6.98
-8.84
-11.06
-13.83
-17.25
-21.33
-25.85
-30.41
-34.39
-37.16
-38.21
-37.30
-34.53
-30.34
-25.29
-19.98
-14.84
-10.14
-5.92
-2.15
1.28
4.42
7.29
9.82
11.91
13.48
14.48
14.91
14.79
14.18
13.17
11.93
10.66
9.49
8.53
7.70
6.87
5.89
4.65
3.10
1.18
-1.32
-4.63
-8.98
-14.31
-20.23
-25.99
-30.72
-33.69
-34.48
-33.03
-29.63
-24.73
-18.86
-12.59
-6.41
-0.78
4.02
7.89
10.93
13.30
15.13
16.46
17.23
17.40
17.04
16.35
15.56
14.85
14.21
13.52
12.61
11.42
10.02
8.56
7.15
5.72
4.06
1.98
-0.65
-3.81
-7.43
-11.47
-15.96
-21.00
-26.46
-31.92
-36.58
-39.56
-40.14
-38.05
-33.55
-27.25
-19.96
-12.37
-5.04
1.71
7.68
12.74
16.83
19.91
22.09
23.51
24.41
25.01
25.49
25.93
26.28
26.41
26.13
25.40
24.31
23.08
21.94
21.05
20.38
19.75
18.89
17.50
15.44
12.67
9.31
5.54
1.56
-2.47
-6.48
-10.51
-14.72
-19.30
-24.40
-29.96
-35.59
-40.55
-43.92
-44.85
-42.87
-38.10
-31.21
-23.21
-15.11
-7.62
-1.11
4.39
8.99
12.81
15.93
18.42
20.36
21.91
23.23
24.41
25.48
26.38
27.01
27.26
27.12
26.67
26.06
25.49
25.05
24.69
24.19
23.27
21.64
19.18
15.99
12.35
8.63
5.13
1.98
-0.95
-3.95
-7.41
-11.67
-16.86
-22.84
-29.13
-35.02
-39.69
-42.35
-42.49
-39.96
-34.97
-28.10
-20.14
-11.91
-4.11
2.81
8.67
13.51
17.50
20.82
23.59
25.81
27.42
28.46
28.98
29.17
29.24
29.38
29.69
30.16
30.70
31.18
31.46
31.44
31.05
30.25
29.03
27.35
25.21
22.61
19.58
16.23
12.73
9.30
6.08
3.11
0.27
-2.59
-5.66
-9.05
-12.89
-17.27
-22.26
-27.80
-33.56
-38.91
-42.93
-44.64
-43.38
-39.01
-32.08
-23.62
-14.88
-6.88
-0.15
5.30
9.79
13.66
17.09
20.08
22.53
24.45
25.96
27.28
28.50
29.62
30.47
30.94
31.11
31.22
31.60
32.44
33.63
34.84
35.64
35.73
35.01
33.61
31.76
29.72
27.65
25.63
23.64
21.63
19.53
17.28
14.90
12.38
9.74
6.91
3.83
0.50
-2.92
-6.20
-9.11
-11.61
-13.97
-16.70
-20.34
-25.18
-31.09
-37.46
-43.37
-47.86
-50.13
-49.74
-46.67
-41.32
-34.37
-26.62
-18.82
-11.53
-5.06
0.49
5.15
9.01
12.12
14.64
16.74
18.66
20.56
22.51
24.39
26.00
27.15
27.73
27.88
27.84
27.93
28.30
28.94
29.62
30.03
29.90
29.09
27.66
25.75
23.56
21.25
18.91
16.61
14.39
12.30
10.31
8.37
6.34
4.15
1.78
-0.71
-3.22
-5.66
-8.01
-10.35
-12.79
-15.50
-18.62
-22.30
-26.58
-31.28
-35.95
-39.88
-42.26
-42.44
-40.18
-35.69
-29.57
-22.62
-15.54
-8.89
-2.99
1.97
5.93
8.92
11.05
12.55
13.69
14.74
15.87
17.12
18.39
19.55
20.48
21.11
21.49
21.75
22.01
22.37
22.80
23.19
23.37
23.21
22.65
21.70
20.40
18.81
16.97
14.97
12.93
11.00
9.31
7.88
6.63
5.41
4.07
2.53
0.79
-1.07
-3.03
-5.14
-7.50
-10.25
-13.50
-17.28
-21.49
-25.90
-30.16
-33.81
-36.37
-37.39
-36.60
-33.98
-29.79
-24.55
-18.83
-13.19
-8.04
-3.55
0.23
3.36
5.90
7.92
9.51
10.77
11.81
12.69
13.41
13.89
14.06
13.93
13.63
13.33
13.25
13.53
14.14
14.94
15.76
16.43
16.84
17.00
16.89
16.51
15.79
14.67
13.12
11.19
9.01
6.69
4.33
1.93
-0.51
-2.99
-5.47
-7.89
-10.29
-12.82
-15.68
-19.02
-22.84
-26.87
-30.66
-33.68
-35.44
-35.69
-34.34
-31.54
-27.55
-22.77
-17.66
-12.64
-8.05
-4.10
-0.85
1.79
3.95
5.76
7.34
8.73
9.94
10.97
11.80
12.43
12.91
13.31
13.76
14.36
15.18
16.17
17.14
17.85
18.06
17.67
16.70
15.30
13.70
12.05
10.40
8.71
6.91
4.90
2.69
0.31
-2.17
-4.66
-7.05
-9.26
-11.23
-12.95
-14.52
-16.13
-18.01
-20.35
-23.23
-26.55
-30.07
-33.39
-36.12
-37.90
-38.43
-37.50
-35.03
-31.07
-25.85
-19.83
-13.62
-7.82
-2.87
1.05
4.06
6.41
8.40
10.17
11.73
13.00
13.89
14.38
14.56
14.55
14.53
14.63
14.94
15.44
16.01
16.47
16.65
16.45
15.88
15.07
14.14
13.18
12.18
11.10
9.84
8.34
6.61
4.68
2.62
0.48
-1.64
-3.71
-5.70
-7.61
-9.47
-11.34
-13.24
-15.24
-17.43
-19.90
-22.75
-25.99
-29.47
-32.90
-35.85
-37.85
-38.45
-37.42
-34.72
-30.62
-25.60
-20.23
-15.01
-10.28
-6.12
-2.43
0.90
3.92
6.56
8.64
10.06
10.85
11.17
11.23
11.24
11.28
11.41
11.64
11.99
12.45
13.02
13.58
14.02
14.26
14.22
13.91
13.32
12.45
11.27
9.73
7.82
5.60
3.19
0.70
-1.73
-4.07
-6.30
-8.47
-10.61
-12.72
-14.80
-16.85
-18.92
-21.09
-23.40
-25.76
-27.90
-29.41
-29.86
-28.94
-26.65
-23.21
-19.05
-14.57
-10.15
-6.04
-2.38
0.69
3.09
4.81
5.99
6.83
7.55
8.28
9.06
9.77
10.29
10.58
10.66
10.63
10.58
10.50
10.33
9.96
9.36
8.57
7.76
7.05
6.49
5.95
5.15
3.80
1.79
-0.81
-3.68
-6.49
-8.98
-11.15
-13.20
-15.41
-17.95
-20.77
-23.63
-26.20
-28.19
-29.46
-29.96
-29.68
-28.63
-26.72
-23.88
-20.15
-15.70
-10.88
-6.07
-1.64
2.18
5.29
7.74
9.59
10.96
11.88
12.39
12.56
12.47
12.29
12.18
12.26
12.56
12.99
13.39
13.58
13.41
12.86
12.00
10.98
9.92
8.87
7.78
6.47
4.75
2.53
-0.14
-3.02
-5.74
-8.03
-9.78
-11.13
-12.37
-13.86
-15.88
-18.54
-21.76
-25.25
-28.57
-31.20
-32.63
-32.54
-30.86
-27.80
-23.72
-19.05
-14.20
-9.50
-5.19
-1.42
1.78
4.52
6.96
9.25
11.43
13.41
14.97
15.98
16.41
16.40
16.23
16.15
16.31
16.70
17.21
17.67
17.94
17.91
17.52
16.80
15.79
14.56
13.21
11.81
10.41
8.98
7.45
5.74
3.77
1.52
-0.96
-3.58
-6.24
-8.79
-11.19
-13.44
-15.68
-18.11
-20.91
-24.07
-27.33
-30.21
-32.11
-32.56
-31.38
-28.79
-25.24
-21.28
-17.33
-13.62
-10.19
-7.00
-4.08
-1.48
0.70
2.49
3.97
5.30
6.59
7.84
8.90
9.61
9.89
9.80
9.58
9.46
9.62
10.08
10.73
11.38
11.82
11.84
11.23
9.88
7.77
5.07
2.06
-0.96
-3.82
-6.52
-9.22
-12.09
-15.24
-18.62
-22.09
-25.51
-28.78
-31.83
-34.53
-36.71
-38.07
-38.34
-37.28
-34.86
-31.19
-26.56
-21.33
-15.89
-10.65
-6.02
-2.39
-0.09
0.72
0.11
-1.51
-3.47
-4.96
-5.29
-4.11
-1.59
1.72
5.09
7.91
9.92
11.20
12.00
12.59
13.02
13.12
12.64
11.39
9.43
7.07
4.71
2.64
0.83
-1.02
-3.33
-6.31
-9.89
-13.62
-16.95
-19.41
-20.82
-21.26
-20.94
-20.03
-18.61
-16.76
-14.50
-11.90
-9.00
-5.77
-2.16
1.79
5.89
9.69
12.63
14.21
14.19
12.70
10.13
6.95
3.55
0.10
-3.32
-6.53
-9.13
-10.52
-10.26
-8.38
-5.53
-2.88
-1.67
-2.73
-6.27
-11.79
-18.38
-25.00
-30.69
-34.81
-37.11
-37.91
-38.00
-38.45
-40.05
-42.99
-46.62
-49.70
-51.06
-50.18
-47.56
-44.52
-42.70
-43.39
-46.97
-52.84
-59.50
-65.06
-67.92
-67.21
-63.14
-56.94
-50.48
-45.63
-43.57
-44.26
-46.53
-48.57
-48.81
-46.52
-41.91
-35.60
-27.98
-18.79
-7.21
7.43
25.06
44.48
63.67
80.55
93.78
103.12
109.15
112.62
113.84
112.48
107.83
99.42
87.52
73.42
59.20
47.16
39.14
36.02
37.62
42.99
50.80
59.75
68.83
77.27
84.54
90.27
94.35
96.93
98.33
98.87
98.64
97.53
95.35
92.02
87.66
82.49
76.54
69.50
60.81
49.99
36.95
22.11
6.25
-9.75
-25.14
-39.29
-51.71
-62.14
-70.67
-77.83
-84.43
-91.10
-97.78
-103.54
-106.85
-106.21
-100.90
-91.21
-78.39
-64.07
-49.82
-36.79
-25.59
-16.42
-9.16
-3.55
0.71
3.80
5.92
7.20
7.83
7.98
7.75
7.11
5.90
3.94
1.17
-2.20
-5.69
-8.71
-10.80
-11.80
-11.89
-11.46
-10.93
-10.62
-10.73
-11.34
-12.58
-14.57
-17.32
-20.61
-23.92
-26.53
-27.76
-27.18
-24.77
-20.87
-15.93
-10.38
-4.57
1.27
6.85
11.84
15.95
18.97
20.89
21.89
22.17
21.97
21.45
20.73
19.95
19.17
18.43
17.70
16.92
16.04
15.03
13.86
12.42
10.51
7.91
4.44
0.10
-4.93
-10.31
-15.66
-20.48
-24.27
-26.42
-26.39
-23.84
-18.89
-12.04
-4.10
4.07
11.78
18.57
24.12
28.18
30.53
31.16
30.27
28.40
26.22
24.40
23.30
22.99
23.21
23.57
23.74
23.58
23.13
22.58
22.06
21.59
21.00
20.06
18.58
16.51
13.95
11.03
7.89
4.64
1.52
-1.07
-2.60
-2.63
-0.97
2.23
6.58
11.59
16.81
21.93
26.64
30.67
33.74
35.67
36.44
36.22
35.24
33.74
31.96
30.06
28.26
26.77
25.65
24.81
23.91
22.54
20.27
16.92
12.50
7.29
1.71
-3.80
-8.91
-13.41
-17.15
-19.99
-21.69
-21.96
-20.55
-17.46
-12.98
-7.70
-2.30
2.62
6.81
10.37
13.62
16.93
20.44
23.98
27.17
29.57
30.94
31.35
31.17
30.83
30.66
30.71
30.84
30.84
30.59
30.11
29.47
28.69
27.71
26.39
24.62
22.26
19.24
15.61
11.63
7.77
4.71
3.11
3.37
5.38
8.57
12.07
15.08
17.15
18.27
18.78
19.10
19.55
20.32
21.46
22.96
24.66
26.31
27.50
27.72
26.52
23.78
19.78
15.28
11.14
8.05
6.25
5.50
5.27
5.03
4.48
3.54
2.28
0.73
-1.15
-3.37
-5.83
-8.13
-9.74
-10.13
-9.02
-6.45
-2.74
1.64
6.24
10.68
14.71
18.14
20.79
22.46
23.04
22.54
21.21
19.45
17.66
16.17
15.14
14.57
14.42
14.63
15.10
15.64
15.87
15.31
13.58
10.51
6.20
1.02
-4.63
-10.36
-15.82
-20.59
-24.10
-25.80
-25.30
-22.65
-18.35
-13.23
-8.16
-3.80
-0.46
1.77
2.98
3.19
2.52
1.11
-0.79
-2.78
-4.54
-5.87
-6.78
-7.39
-7.95
-8.55
-9.18
-9.76
-10.16
-10.36
-10.49
-10.83
-11.68
-13.23
-15.46
-18.09
-20.65
-22.64
-23.67
-23.54
-22.25
-19.96
-16.94
-13.51
-9.98
-6.69
-3.85
-1.58
0.14
1.41
2.38
3.21
4.00
4.81
5.63
6.39
6.98
7.26
7.12
6.53
5.56
4.39
3.27
2.39
1.80
1.38
0.85
-0.09
-1.69
-3.99
-6.76
-9.60
-11.98
-13.45
-13.77
-12.92
-11.11
-8.68
-5.95
-3.19
-0.59
1.71
3.58
4.95
5.81
6.29
6.60
6.93
7.30
7.59
7.53
6.94
5.83
4.42
3.07
2.07
1.47
1.14
0.81
0.26
-0.60
-1.81
-3.33
-5.24
-7.61
-10.45
-13.59
-16.68
-19.19
-20.63
-20.67
-19.26
-16.67
-13.33
-9.72
-6.18
-2.88
0.11
2.77
5.07
6.94
8.33
9.19
9.57
9.56
9.32
8.99
8.72
8.52
8.36
8.13
7.69
6.98
6.01
4.92
3.90
3.05
2.34
1.52
0.27
-1.69
-4.41
-7.70
-11.12
-14.15
-16.29
-17.22
-16.87
-15.42
-13.22
-10.67
-8.11
-5.78
-3.73
-1.93
-0.24
1.41
3.08
4.76
6.36
7.79
8.98
9.85
10.41
10.69
10.70
10.43
9.86
8.96
7.78
6.42
5.06
3.83
2.79
1.88
0.93
-0.30
-1.95
-4.14
-6.80
-9.77
-12.80
-15.57
-17.78
-19.20
-19.67
-19.15
-17.68
-15.40
-12.56
-9.48
-6.50
-3.87
-1.70
0.05
1.47
2.68
3.68
4.49
5.10
5.56
5.94
6.29
6.61
6.83
6.92
6.91
6.92
7.05
7.34
7.65
7.75
7.42
6.57
5.28
3.79
2.28
0.85
-0.62
-2.40
-4.74
-7.72
-11.12
-14.52
-17.39
-19.31
-20.12
-19.88
-18.76
-16.96
-14.60
-11.79
-8.72
-5.65
-2.92
-0.76
0.81
1.96
2.94
3.93
4.92
5.75
6.23
6.30
6.03
5.64
5.33
5.19
5.25
5.44
5.74
6.09
6.44
6.71
6.72
6.30
5.34
3.85
1.98
-0.11
-2.28
-4.50
-6.85
-9.42
-12.24
-15.23
-18.12
-20.60
-22.31
-22.98
-22.50
-20.93
-18.49
-15.56
-12.55
-9.74
-7.26
-5.05
-2.96
-0.85
1.23
3.11
4.56
5.44
5.87
6.07
6.36
6.87
7.56
8.24
8.69
8.84
8.79
8.77
9.01
9.65
10.68
11.96
13.29
14.43
15.22
15.55
15.53
15.36
15.34
15.79
16.92
18.80
21.38
24.48
27.89
31.35
34.59
37.43
40.03
42.99
47.27
53.86
63.17
74.74
87.28
99.12
108.96
116.17
120.66
122.34
120.68
114.72
103.65
87.61
68.04
47.40
28.29
12.44
0.15
-9.42
-17.55
-25.10
-32.16
-38.24
-42.77
-45.61
-47.18
-48.17
-49.16
-50.38
-51.65
-52.67
-53.29
-53.73
-54.52
-56.22
-59.10
-62.96
-67.08
-70.47
-72.19
-71.67
-68.91
-64.48
-59.29
-54.24
-49.83
-46.01
-42.35
-38.37
-33.91
-29.30
-25.10
-21.65
-18.74
-15.59
-11.24
-5.26
1.91
8.95
14.32
17.02
17.15
15.81
14.49
14.30
15.46
17.34
18.95
19.49
18.77
17.19
15.40
13.97
13.04
12.41
11.70
10.54
8.71
6.05
2.47
-2.12
-7.63
-13.74
-19.80
-24.93
-28.30
-29.45
-28.44
-25.90
-22.77
-20.00
-18.28
-17.92
-18.82
-20.51
-22.23
-23.12
-22.46
-20.02
-16.23
-12.20
-9.26
-8.57
-10.57
-14.91
-20.53
-26.16
-30.63
-33.18
-33.42
-31.36
-27.40
-22.43
-17.81
-15.15
-15.81
-20.30
-27.90
-36.74
-44.37
-48.55
-47.99
-42.70
-33.85
-23.12
-12.05
-1.51
8.27
17.35
25.52
31.98
35.46
34.83
29.76
21.14
10.91
1.39
-5.56
-9.05
-9.35
-7.49
-4.77
-2.25
-0.64
-0.25
-1.24
-3.70
-7.58
-12.59
-18.02
-22.80
-25.80
-26.29
-24.41
-21.32
-18.91
-19.06
-22.91
-30.32
-39.83
-49.25
-56.32
-59.44
-58.09
-52.77
-44.79
-35.82
-27.53
-21.23
-17.70
-16.92
-18.10
-19.79
-20.30
-18.24
-12.95
-4.84
4.81
14.08
20.98
23.95
22.27
16.40
7.93
-0.76
-7.15
-9.39
-6.96
-0.82
6.93
13.85
18.14
19.06
16.99
12.98
8.24
3.73
0.11
-2.27
-3.24
-2.82
-1.29
0.81
2.72
3.63
2.95
0.43
-3.73
-9.05
-14.87
-20.61
-25.93
-30.70
-34.92
-38.47
-40.99
-41.94
-40.86
-37.65
-32.74
-26.95
-21.17
-16.05
-11.84
-8.54
-6.16
-4.91
-5.17
-7.24
-11.03
-16.03
-21.35
-26.00
-29.09
-29.93
-28.07
-23.42
-16.54
-8.80
-2.32
0.40
-2.71
-12.53
-28.20
-47.21
-66.11
-81.50
-91.05
-94.09
-91.51
-85.21
-77.18
-68.82
-60.54
-51.89
-42.05
-30.39
-16.86
-2.00
13.35
28.34
42.34
54.78
64.98
72.10
75.42
74.77
71.00
66.04
62.46
62.60
67.72
77.45
89.82
101.90
110.77
114.30
111.73
103.66
91.86
78.75
66.88
58.46
54.68
55.17
57.75
59.01
55.76
46.58
32.87
18.34
7.31
2.55
3.92
8.66
12.96
13.90
10.61
4.02
-4.19
-12.74
-21.12
-29.10
-36.08
-40.87
-42.14
-39.24
-32.79
-24.50
-16.58
-10.96
-8.54
-9.13
-11.69
-14.95
-17.87
-20.05
-21.63
-23.07
-24.76
-26.60
-27.87
-27.26
-23.33
-15.08
-2.47
13.40
30.51
46.55
59.55
68.28
72.34
72.12
68.61
63.33
58.15
54.98
55.28
59.62
67.36
76.85
86.00
92.89
96.27
95.84
92.05
85.94
78.72
71.38
64.31
57.15
49.06
39.22
27.69
15.65
5.30
-0.98
-1.67
3.06
11.30
19.96
25.82
26.53
21.09
9.78
-6.29
-25.69
-46.90
-68.14
-87.31
-102.06
-110.34
-111.18
-105.22
-94.77
-83.12
-73.46
-67.85
-66.73
-69.03
-72.83
-76.17
-77.57
-76.42
-72.84
-67.44
-61.05
-54.45
-48.21
-42.78
-38.45
-35.45
-33.95
-33.92
-35.01
-36.69
-38.28
-39.27
-39.46
-38.90
-37.75
-36.01
-33.36
-29.30
-23.41
-15.75
-7.04
1.45
8.35
12.68
14.13
13.04
10.12
6.14
1.73
-2.62
-6.49
-9.55
-11.57
-12.50
-12.49
-11.81
-10.76
-9.60
-8.62
-8.11
-8.37
-9.61
-11.84
-14.89
-18.44
-22.12
-25.55
-28.29
-29.77
-29.44
-26.98
-22.62
-17.14
-11.63
-6.88
-3.03
0.62
5.14
11.34
19.19
27.74
35.41
40.68
42.69
41.38
37.43
31.82
25.47
19.09
13.19
8.21
4.57
2.46
1.77
1.95
2.15
1.57
-0.20
-2.89
-5.76
-7.80
-8.25
-6.86
-3.99
-0.40
3.11
5.98
8.09
9.55
10.67
11.49
11.80
11.12
8.99
5.30
0.47
-4.60
-8.89
-11.59
-12.39
-11.47
-9.35
-6.64
-3.93
-1.77
-0.66
-0.99
-2.90
-6.08
-9.77
-12.94
-14.58
-14.07
-11.32
-6.71
-0.94
5.18
10.91
15.66
19.03
20.88
21.32
20.66
19.33
17.66
15.88
14.06
12.17
10.23
8.29
6.43
4.67
2.93
1.11
-0.88
-3.06
-5.33
-7.55
-9.64
-11.55
-13.22
-14.50
-15.10
-14.70
-13.00
-9.86
-5.38
0.04
5.80
11.24
15.79
19.04
20.88
21.52
21.51
21.56
22.33
24.15
26.84
29.63
31.47
31.31
28.60
23.50
16.90
10.22
4.89
1.90
1.42
2.75
4.54
5.33
4.08
0.50
-4.95
-11.36
-17.55
-22.28
-24.35
-22.74
-17.04
-7.76
3.48
14.29
22.34
26.13
25.55
21.72
16.45
11.37
7.49
5.04
3.72
3.07
2.65
2.08
0.93
-1.25
-4.91
-10.26
-17.09
-24.66
-31.76
-36.99
-39.25
-38.10
-34.00
-28.08
-21.71
-15.97
-11.26
-7.38
-3.79
-0.08
3.73
7.26
10.07
12.02
13.36
14.61
16.12
17.76
18.89
18.64
16.39
12.17
6.72
1.30
-2.87
-5.05
-5.25
-4.19
-2.97
-2.65
-3.93
-6.91
-11.22
-16.21
-21.17
-25.47
-28.56
-29.94
-29.20
-26.16
-20.98
-14.34
-7.23
-0.75
4.25
7.47
9.11
9.69
9.75
9.56
9.10
8.18
6.72
4.84
2.84
1.03
-0.48
-1.83
-3.27
-4.92
-6.59
-7.86
-8.42
-8.28
-8.03
-8.56
-10.66
-14.51
-19.45
-24.11
-26.96
-26.86
-23.53
-17.66
-10.55
-3.65
1.91
5.53
7.07
6.73
4.97
2.53
0.44
-0.26
1.06
4.20
7.87
10.10
8.98
3.54
-5.75
-16.98
-27.47
-34.72
-37.26
-35.16
-29.83
-23.46
-18.05
-14.79
-13.89
-14.93
-17.44
-21.06
-25.30
-29.00
-30.26
-27.06
-18.49
-5.58
8.69
20.73
28.06
30.51
30.03
29.45
30.82
34.52
39.36
43.68
46.31
47.22
47.27
47.49
48.41
49.63
49.99
48.02
42.69
33.97
22.89
11.18
0.66
-7.37
-12.33
-14.23
-13.40
-10.27
-5.43
0.26
5.71
9.88
12.12
12.38
11.20
9.39
7.68
6.56
6.16
6.38
7.03
7.86
8.68
9.32
9.67
9.71
9.53
9.24
9.05
9.09
9.35
9.56
9.29
8.00
5.39
1.60
-2.75
-6.57
-8.74
-8.37
-5.19
0.39
7.39
14.58
20.90
25.77
29.20
31.55
33.29
34.65
35.53
35.59
34.50
32.11
28.49
23.93
18.73
13.22
7.75
2.67
-1.73
-5.20
-7.75
-9.59
-11.16
-12.98
-15.48
-18.84
-22.73
-26.35
-28.59
-28.43
-25.41
-19.83
-12.75
-5.52
0.71
5.37
8.42
10.16
10.94
10.96
10.36
9.33
8.11
6.88
5.66
4.27
2.48
0.19
-2.39
-4.87
-6.78
-7.89
-8.29
-8.39
-8.81
-10.13
-12.72
-16.48
-20.83
-24.82
-27.33
-27.50
-24.99
-20.10
-13.65
-6.71
-0.23
5.17
9.23
12.02
13.73
14.56
14.69
14.18
13.11
11.47
9.29
6.65
3.69
0.68
-2.10
-4.43
-6.16
-7.35
-8.21
-9.07
-10.31
-12.30
-15.25
-19.08
-23.33
-27.16
-29.58
-29.71
-27.11
-21.96
-14.99
-7.27
0.12
6.40
11.25
14.73
17.11
18.72
19.74
20.21
20.11
19.42
18.14
16.34
14.15
11.74
9.29
7.00
5.05
3.53
2.39
1.41
0.18
-1.74
-4.72
-8.86
-13.87
-19.02
-23.29
-25.58
-25.06
-21.40
-14.98
-6.76
1.93
9.80
15.93
19.91
21.87
22.31
21.87
21.13
20.42
19.78
19.06
18.02
16.53
14.59
12.43
10.36
8.65
7.40
6.49
5.59
4.32
2.35
-0.60
-4.57
-9.42
-14.70
-19.65
-23.29
-24.66
-23.12
-18.66
-11.92
-3.98
3.93
10.80
16.07
19.62
21.62
22.33
22.04
20.99
19.39
17.45
15.39
13.37
11.46
9.66
7.92
6.22
4.55
2.91
1.29
-0.40
-2.34
-4.75
-7.82
-11.64
-16.07
-20.62
-24.53
-26.81
-26.61
-23.53
-17.83
-10.45
-2.65
4.39
9.98
14.00
16.72
18.52
19.64
20.14
20.00
19.31
18.23
16.96
15.56
13.91
11.86
9.40
6.76
4.38
2.68
1.78
1.43
1.05
-0.07
-2.44
-6.26
-11.23
-16.69
-21.70
-25.25
-26.47
-24.86
-20.38
-13.53
-5.27
3.24
10.90
16.93
21.01
23.29
24.12
24.00
23.30
22.25
20.96
19.46
17.80
16.02
14.15
12.17
10.11
8.03
6.08
4.48
3.36
2.69
2.15
1.22
-0.70
-4.00
-8.76
-14.55
-20.44
-25.19
-27.61
-26.90
-22.93
-16.36
-8.34
-0.18
7.07
12.86
17.07
19.91
21.59
22.27
22.00
20.89
19.16
17.20
15.37
13.91
12.83
11.89
10.85
9.54
8.00
6.43
5.05
3.97
3.00
1.74
-0.28
-3.40
-7.74
-12.98
-18.48
-23.35
-26.63
-27.56
-25.77
-21.44
-15.19
-7.95
-0.65
6.01
11.59
15.91
18.91
20.55
20.84
19.95
18.21
16.14
14.29
13.01
12.31
11.90
11.35
10.32
8.82
7.07
5.44
4.13
3.11
2.08
0.69
-1.31
-4.06
-7.55
-11.75
-16.50
-21.47
-26.02
-29.28
-30.34
-28.65
-24.19
-17.60
-9.98
-2.44
4.17
9.42
13.31
15.99
17.64
18.31
17.95
16.55
14.24
11.42
8.63
6.44
5.20
4.91
5.24
5.68
5.75
5.23
4.17
2.75
1.22
-0.33
-1.94
-3.75
-5.89
-8.48
-11.62
-15.38
-19.77
-24.50
-28.95
-32.15
-33.07
-31.00
-25.87
-18.35
-9.62
-0.99
6.51
12.35
16.45
19.01
20.26
20.39
19.53
17.90
15.85
13.83
12.22
11.24
10.78
10.54
10.13
9.31
8.09
6.66
5.28
4.08
3.06
2.03
0.84
-0.66
-2.56
-5.01
-8.18
-12.16
-16.87
-21.87
-26.39
-29.52
-30.51
-29.00
-25.14
-19.51
-12.88
-6.00
0.55
6.36
11.16
14.75
17.08
18.18
18.30
17.82
17.15
16.57
16.20
15.99
15.79
15.51
15.10
14.56
13.84
12.82
11.37
9.40
7.00
4.35
1.69
-0.81
-3.16
-5.50
-8.07
-11.08
-14.64
-18.73
-23.13
-27.42
-30.90
-32.80
-32.45
-29.57
-24.39
-17.65
-10.34
-3.39
2.53
7.14
10.44
12.57
13.65
13.79
13.15
11.99
10.62
9.41
8.60
8.23
8.19
8.23
8.11
7.70
7.01
6.16
5.25
4.31
3.24
1.95
0.38
-1.50
-3.66
-6.13
-9.06
-12.56
-16.65
-21.07
-25.22
-28.23
-29.28
-27.80
-23.81
-17.87
-10.95
-4.09
1.89
6.62
10.14
12.68
14.53
15.78
16.45
16.47
15.87
14.78
13.40
11.94
10.57
9.43
8.61
8.13
7.96
7.86
7.55
6.76
5.38
3.50
1.39
-0.72
-2.67
-4.51
-6.41
-8.60
-11.27
-14.53
-18.35
-22.47
-26.38
-29.34
-30.56
-29.47
-25.97
-20.47
-13.81
-6.88
-0.40
5.21
9.77
13.19
15.33
16.11
15.54
13.90
11.78
9.89
8.87
9.09
10.42
12.27
13.86
14.44
13.73
11.99
10.01
8.65
8.49
9.46
10.83
11.60
10.93
8.55
4.87
0.76
-2.81
-5.05
-5.56
-4.33
-1.77
1.36
3.98
5.10
4.27
2.04
-0.03
-0.04
3.22
9.44
16.65
21.92
22.74
18.06
8.64
-3.46
-15.79
-26.27
-33.57
-37.09
-36.85
-33.39
-27.77
-21.24
-14.76
-8.53
-2.00
5.45
13.58
20.86
24.99
24.36
19.42
12.92
8.47
8.40
11.98
15.61
14.89
7.37
-5.77
-20.24
-31.10
-35.55
-34.14
-29.89
-25.90
-23.25
-20.61
-15.66
-7.29
3.22
12.84
18.83
20.59
20.05
20.26
23.08
27.82
31.55
31.18
25.62
16.79
8.50
4.08
4.39
7.38
9.67
8.76
4.53
-0.94
-4.92
-5.83
-3.99
-1.25
0.19
-1.01
-4.91
-10.43
-16.05
-20.34
-22.38
-21.93
-19.22
-14.80
-9.07
-2.13
6.15
15.74
26.00
35.69
43.40
48.28
50.50
51.08
51.15
51.04
49.87
45.90
37.62
24.88
9.53
-4.98
-14.80
-17.43
-12.85
-3.67
5.92
11.97
12.42
7.72
0.24
-7.22
-12.69
-15.67
-16.82
-17.15
-17.41
-17.79
-18.14
-18.14
-17.34
-15.12
-10.84
-4.20
4.30
13.12
20.12
23.43
22.28
17.36
10.52
3.88
-0.91
-3.14
-2.94
-0.87
2.38
6.11
9.64
12.22
13.14
11.89
8.36
2.83
-3.98
-11.22
-18.11
-24.15
-29.21
-33.63
-37.94
-42.63
-47.93
-53.65
-59.25
-63.92
-66.54
-65.87
-60.72
-50.51
-35.86
-18.92
-2.96
8.60
13.64
12.26
6.64
0.01
-5.01
-7.26
-7.29
-6.43
-5.80
-5.63
-5.37
-4.42
-2.81
-1.45
-1.68
-4.49
-9.85
-16.54
-22.63
-26.27
-26.49
-23.42
-18.07
-11.82
-5.77
-0.51
3.90
7.64
10.87
13.62
15.80
17.20
17.65
17.01
15.24
12.50
9.09
5.48
2.15
-0.50
-2.28
-3.22
-3.54
-3.72
-4.21
-5.40
-7.38
-9.92
-12.66
-15.29
-17.72
-20.09
-22.41
-24.40
-25.49
-25.00
-22.54
-18.11
-11.99
-4.43
4.44
14.56
25.50
36.15
44.75
49.44
49.00
43.47
34.14
23.07
12.29
3.07
-4.14
-9.56
-13.68
-16.93
-19.69
-22.38
-25.52
-29.60
-34.83
-41.01
-47.32
-52.58
-55.54
-55.17
-51.02
-43.33
-33.06
-21.68
-10.87
-2.01
4.07
7.34
8.28
7.62
5.98
3.77
1.22
-1.44
-3.93
-5.94
-7.13
-7.27
-6.26
-4.18
-1.35
1.62
4.03
5.18
4.66
2.34
-1.59
-6.79
-12.79
-18.94
-24.38
-28.01
-28.82
-26.27
-20.74
-13.46
-6.14
-0.17
3.93
6.67
9.15
12.37
16.54
21.09
24.96
27.27
27.79
26.91
25.40
23.88
22.59
21.41
20.02
18.21
15.90
13.10
9.80
5.94
1.47
-3.47
-8.56
-13.30
-17.13
-19.56
-20.18
-18.74
-15.27
-10.13
-3.98
2.27
7.81
12.06
14.95
16.70
17.73
18.34
18.56
18.22
17.07
14.94
11.88
8.19
4.39
1.08
-1.20
-2.27
-2.35
-2.05
-2.11
-3.16
-5.52
-9.20
-13.93
-19.21
-24.36
-28.49
-30.63
-30.04
-26.42
-20.23
-12.49
-4.45
2.83
8.74
13.23
16.49
18.80
20.32
21.10
21.15
20.43
18.92
16.61
13.56
10.01
6.28
2.84
0.09
-1.73
-2.65
-2.99
-3.33
-4.34
-6.61
-10.43
-15.56
-21.25
-26.39
-29.78
-30.52
-28.27
-23.30
-16.34
-8.37
-0.37
6.85
12.76
17.20
20.21
22.14
23.30
23.97
24.19
23.89
22.93
21.32
19.23
16.88
14.47
12.07
9.68
7.31
5.06
3.02
1.27
-0.32
-2.11
-4.58
-8.12
-12.84
-18.38
-23.91
-28.28
-30.38
-29.45
-25.44
-18.94
-10.99
-2.71
5.06
11.90
17.69
22.44
26.08
28.46
29.50
29.30
28.17
26.59
24.93
23.37
21.82
20.08
17.92
15.29
12.30
9.24
6.41
4.01
2.03
0.24
-1.76
-4.37
-7.95
-12.66
-18.40
-24.79
-31.16
-36.53
-39.91
-40.43
-37.75
-32.10
-24.33
-15.56
-6.85
1.09
8.07
14.17
19.56
24.20
27.84
30.16
30.94
30.23
28.33
25.71
22.85
20.13
17.85
16.19
15.22
14.84
14.77
14.66
14.19
13.23
11.85
10.20
8.32
6.07
3.14
-0.81
-5.92
-12.04
-18.68
-25.12
-30.45
-33.82
-34.50
-32.17
-26.99
-19.66
-11.19
-2.60
5.29
12.09
17.67
22.04
25.27
27.36
28.43
28.68
28.43
27.91
27.17
26.08
24.40
22.07
19.23
16.25
13.50
11.22
9.39
7.84
6.39
4.97
3.63
2.39
1.19
-0.15
-1.87
-4.18
-7.10
-10.52
-14.22
-17.95
-21.42
-24.27
-25.98
-25.98
-23.74
-19.04
-12.14
-3.76
5.10
13.42
20.51
26.08
30.18
32.94
34.48
34.79
33.97
32.20
29.83
27.28
24.89
22.88
21.33
20.29
19.65
19.24
18.76
17.94
16.64
14.91
12.93
10.76
8.35
5.47
1.93
-2.28
-6.86
-11.40
-15.56
-19.18
-22.41
-25.54
-28.91
-32.75
-37.07
-41.58
-45.68
-48.54
-49.33
-47.49
-42.94
-36.18
-28.16
-19.92
-12.30
-5.71
-0.11
4.79
9.35
13.70
17.69
21.00
23.31
24.50
24.78
24.57
24.26
23.97
23.57
22.79
21.47
19.73
17.90
16.38
15.36
14.73
14.10
13.05
11.24
8.68
5.67
2.68
0.14
-1.81
-3.31
-4.88
-7.05
-10.21
-14.42
-19.37
-24.55
-29.47
-33.71
-36.95
-38.89
-39.09
-37.18
-32.96
-26.68
-19.10
-11.34
-4.51
0.66
4.00
5.93
7.13
8.26
9.67
11.33
12.92
14.11
14.67
14.56
13.89
12.74
11.29
9.72
8.31
7.42
7.26
7.77
8.58
9.09
8.79
7.43
5.10
2.16
-0.94
-3.89
-6.57
-9.09
-11.66
-14.57
-18.00
-21.98
-26.23
-30.19
-33.10
-34.16
-32.82
-28.99
-23.08
-15.91
-8.47
-1.63
4.02
8.29
11.33
13.39
14.75
15.56
15.89
15.82
15.49
15.07
14.74
14.51
14.23
13.72
12.88
11.73
10.47
9.37
8.57
8.03
7.56
6.86
5.67
3.85
1.41
-1.45
-4.47
-7.33
-9.86
-12.09
-14.28
-16.78
-19.91
-23.69
-27.80
-31.56
-34.20
-35.06
-33.84
-30.68
-26.00
-20.47
-14.69
-9.14
-4.20
-0.06
3.18
5.53
7.12
8.15
8.83
9.35
9.82
10.34
10.85
11.27
11.39
11.01
10.04
8.64
7.25
6.42
6.59
7.78
9.52
11.05
11.58
10.71
8.49
5.39
2.00
-1.19
-3.98
-6.41
-8.67
-11.02
-13.63
-16.64
-19.99
-23.52
-26.87
-29.48
-30.76
-30.11
-27.27
-22.36
-15.98
-8.99
-2.32
3.35
7.70
10.82
13.08
14.78
16.14
17.08
17.44
17.09
16.11
14.82
13.66
12.92
12.64
12.61
12.48
12.02
11.29
10.53
10.04
9.93
10.07
10.12
9.76
8.81
7.27
5.22
2.79
0.02
-2.99
-6.10
-9.05
-11.61
-13.74
-15.62
-17.65
-20.27
-23.68
-27.63
-31.43
-34.12
-34.85
-33.20
-29.24
-23.55
-16.99
-10.40
-4.39
0.71
4.81
7.98
10.35
12.09
13.40
14.43
15.28
15.97
16.50
16.79
16.82
16.57
16.11
15.61
15.19
14.99
15.04
15.23
15.40
15.38
15.06
14.46
13.68
12.84
11.95
10.95
9.72
8.24
6.58
4.89
3.37
2.10
1.03
0.00
-1.11
-2.39
-3.81
-5.33
-6.95
-8.67
-10.63
-12.84
-15.25
-17.69
-19.99
-22.10
-24.12
-26.35
-29.01
-32.07
-35.06
-37.11
-37.33
-35.12
-30.51
-24.17
-17.20
-10.68
-5.30
-1.30
1.48
3.35
4.57
5.30
5.65
5.77
5.81
5.88
6.04
6.20
6.30
6.29
6.31
6.50
7.01
7.85
8.90
9.91
10.64
10.88
10.52
9.53
8.00
6.08
4.01
1.98
0.09
-1.66
-3.38
-5.15
-7.00
-8.82
-10.48
-11.89
-13.17
-14.55
-16.30
-18.59
-21.32
-24.02
-26.09
-26.85
-25.91
-23.24
-19.18
-14.33
-9.28
-4.46
-0.11
3.67
6.85
9.44
11.47
12.97
14.05
14.74
15.02
14.87
14.27
13.28
12.08
10.87
9.82
9.00
8.38
7.79
7.10
6.11
4.73
2.84
0.45
-2.40
-5.62
-9.12
-12.81
-16.63
-20.63
-24.90
-29.61
-34.81
-40.41
-46.03
-51.03
-54.63
-56.21
-55.53
-52.80
-48.70
-44.19
-40.34
-38.18
-38.50
-41.75
-47.88
-56.45
-66.85
-78.37
-90.70
-103.80
-117.71
-131.63
-143.74
-151.58
-152.84
-146.21
-131.66
-110.84
-86.77
-62.79
-41.31
-23.40
-8.44
5.04
18.71
34.05
51.26
68.84
83.55
92.09
91.32
78.89
53.85
17.78
-23.36
-61.68
-89.85
-104.76
-106.27
-98.33
-87.12
-78.65
-75.76
-74.91
-71.04
-61.23
-48.27
-34.05
-19.99
-5.91
9.06
26.63
52.00
86.94
127.98
164.59
191.73
208.45
217.82
223.87
230.96
247.34
276.76
315.52
350.02
372.99
381.54
377.63
364.72
314.56
217.83
90.88
-6.88
-67.18
-95.67
-109.79
-119.88
-134.61
-158.39
-183.69
-198.43
-191.93
-164.49
-118.49
-63.54
-14.06
14.26
11.42
-19.80
-70.43
-130.83
-196.67
-259.84
-311.71
-344.41
-354.21
-342.41
-312.53
-272.25
-231.26
-200.09
-181.56
-173.19
-169.66
-166.49
-160.81
-150.32
-134.40
-114.16
-92.94
-72.72
-54.66
-39.16
-26.10
-14.57
-2.62
11.50
28.47
47.29
66.53
84.51
99.97
112.20
121.16
127.13
130.31
130.55
127.55
121.25
112.34
102.28
93.05
86.66
84.50
87.13
94.34
105.56
120.12
137.66
158.22
182.26
210.52
243.65
281.68
323.32
365.27
402.14
427.05
433.17
415.62
373.26
309.35
230.93
146.96
66.14
-4.61
-60.79
-99.92
-121.19
-125.37
-115.11
-95.07
-71.31
-49.79
-34.64
-27.21
-26.27
-29.17
-33.36
-37.33
-40.64
-43.29
-45.11
-45.68
-44.62
-42.12
-38.98
-36.18
-34.43
-33.83
-33.92
-34.15
-34.21
-34.18
-34.28
-34.61
-34.87
-34.46
-32.83
-29.73
-25.48
-20.80
-16.49
-13.03
-10.42
-8.30
-6.16
-3.81
-1.49
0.13
0.31
-1.32
-4.55
-8.47
-11.86
-13.56
-12.88
-9.75
-4.69
1.46
7.74
13.33
17.56
20.03
20.57
19.24
16.37
12.46
8.14
3.99
0.37
-2.64
-5.19
-7.42
-9.25
-10.39
-10.47
-9.38
-7.35
-4.91
-2.57
-0.51
1.45
3.60
5.96
7.97
8.64
6.92
2.21
-5.31
-14.84
-25.35
-36.08
-46.67
-57.02
-66.94
-75.78
-82.43
-85.60
-84.37
-78.63
-69.24
-57.75
-45.93
-35.17
-26.17
-18.94
-13.03
-7.88
-3.07
1.55
5.90
9.85
13.31
16.36
19.23
22.15
25.31
28.86
32.95
37.79
43.66
50.84
59.51
69.66
81.17
93.79
107.33
121.64
136.58
151.77
166.24
178.15
184.87
183.49
171.67
148.53
115.18
74.66
31.24
-10.70
-47.64
-77.53
-99.77
-114.87
-123.89
-128.03
-128.41
-125.97
-121.48
-115.40
-107.83
-98.45
-86.70
-72.20
-55.32
-37.34
-20.25
-6.02
4.27
10.97
15.75
20.99
28.74
40.00
54.46
70.84
87.51
103.07
116.53
127.41
135.58
141.10
143.94
143.92
140.64
133.50
122.16
106.89
88.87
70.22
53.51
41.20
34.94
35.26
41.49
52.03
64.59
76.45
84.84
87.36
82.54
70.18
51.30
27.55
0.46
-29.04
-60.61
-93.81
-127.27
-158.22
-182.89
-197.66
-200.38
-191.20
-172.38
-147.36
-119.44
-90.99
-63.36
-37.37
-13.99
5.41
19.33
26.91
28.44
25.57
20.65
15.90
12.51
10.45
8.87
7.05
5.05
3.91
5.05
9.40
16.64
25.37
33.73
40.34
44.81
47.59
49.26
49.99
49.32
46.59
41.55
34.68
27.12
20.18
14.81
11.29
9.34
8.39
7.86
7.38
6.79
6.10
5.33
4.47
3.41
1.89
-0.31
-3.34
-7.15
-11.42
-15.65
-19.33
-22.04
-23.61
-24.16
-23.95
-23.23
-22.13
-20.77
-19.46
-18.78
-19.41
-21.80
-25.78
-30.50
-34.68
-37.18
-37.53
-36.10
-33.81
-31.60
-29.88
-28.47
-26.79
-24.37
-21.15
-17.53
-14.10
-11.32
-9.29
-7.84
-6.63
-5.41
-4.20
-3.21
-2.68
-2.75
-3.29
-3.96
-4.37
-4.24
-3.53
-2.58
-1.88
-2.01
-3.26
-5.56
-8.41
-11.13
-13.10
-14.12
-14.47
-14.82
-15.92
-18.23
-21.81
-26.27
-30.96
-35.22
-38.50
-40.41
-40.67
-39.09
-35.57
-30.18
-23.14
-14.85
-5.77
3.54
12.50
20.44
26.68
30.63
32.01
30.93
27.97
23.90
19.46
15.17
11.24
7.68
4.47
1.68
-0.64
-2.56
-4.38
-6.58
-9.53
-13.30
-17.50
-21.44
-24.46
-26.28
-27.21
-28.00
-29.59
-32.56
-36.89
-41.90
-46.45
-49.41
-49.99
-48.06
-44.09
-38.87
-33.01
-26.58
-18.89
-8.84
4.58
21.78
42.27
64.79
87.52
108.40
125.48
137.13
142.29
140.51
132.05
117.61
98.13
74.62
48.27
20.68
-5.97
-29.11
-46.49
-56.81
-60.24
-58.10
-52.39
-45.32
-39.08
-35.91
-37.99
-46.88
-62.77
-84.17
-108.51
-133.35
-157.44
-180.57
-202.20
-219.74
-228.00
-220.83
-194.28
-149.48
-93.61
-37.73
7.36
35.14
45.29
42.67
34.24
25.44
18.38
11.98
3.94
-7.07
-20.24
-32.91
-42.06
-45.98
-45.21
-41.96
-38.76
-36.90
-35.52
-31.90
-22.81
-5.69
20.19
53.50
91.10
128.46
160.38
182.00
189.84
182.96
163.41
135.85
106.23
80.26
62.05
53.53
54.54
63.35
77.26
92.86
106.44
114.60
115.20
108.15
95.49
80.52
66.30
54.29
43.93
33.46
21.52
8.34
-4.11
-13.27
-17.69
-18.19
-17.54
-19.14
-25.13
-35.19
-46.88
-56.84
-62.22
-61.62
-55.22
-44.31
-30.82
-17.00
-5.38
1.49
1.72
-4.93
-16.37
-28.45
-36.39
-36.79
-29.29
-16.94
-5.11
0.66
-3.31
-17.73
-40.38
-67.28
-93.95
-116.49
-132.09
-139.03
-136.64
-125.37
-106.87
-83.85
-59.70
-37.87
-21.02
-10.40
-5.46
-4.05
-3.10
0.17
7.22
17.69
29.75
41.10
50.03
55.92
59.14
60.47
60.55
59.69
58.05
55.75
52.82
48.95
43.37
35.09
23.51
9.07
-6.60
-21.17
-32.54
-39.54
-42.24
-41.50
-38.52
-34.49
-30.59
-28.08
-28.14
-31.57
-38.27
-47.09
-56.17
-63.59
-68.10
-69.48
-68.38
-65.85
-62.82
-59.86
-57.22
-55.04
-53.44
-52.33
-51.35
-49.77
-46.67
-41.31
-33.33
-22.97
-11.00
1.45
13.24
23.56
32.19
39.68
47.26
56.53
68.95
85.16
104.71
126.15
147.69
167.68
184.96
198.81
208.76
214.45
215.60
211.74
201.81
183.90
155.59
115.25
63.59
4.53
-55.51
-110.01
-155.06
-191.04
-221.73
-251.58
-282.52
-312.67
-337.36
-351.87
-354.03
-345.02
-328.23
-307.40
-285.35
-264.14
-245.45
-230.91
-221.14
-214.38
-205.78
-188.89
-158.70
-114.83
-62.59
-10.90
31.74
61.33
79.63
92.47
105.88
122.84
142.47
161.97
179.73
197.14
217.86
244.64
276.16
305.62
322.50
316.74
283.10
223.71
147.53
67.28
-4.93
-60.93
-97.21
-113.62
-111.29
-91.48
-56.09
-9.01
43.40
93.56
135.05
164.96
184.27
196.73
206.64
216.65
227.28
237.49
245.78
250.78
250.85
244.10
228.86
204.84
173.51
137.50
98.97
57.98
12.34
-40.43
-100.42
-163.25
-220.22
-262.07
-282.76
-281.51
-261.93
-229.27
-187.97
-141.46
-93.97
-50.91
-20.13
-8.98
-19.61
-45.63
-73.17
-86.70
-75.83
-39.50
16.84
82.05
143.17
189.26
214.31
217.74
203.21
177.15
147.51
125.76
119.59
129.42
148.60
167.69
179.56
181.91
177.46
172.33
178.05
202.03
243.79
295.47
345.98
385.08
404.48
397.70
331.09
192.89
2.36
-197.53
-365.26
-478.02
-531.87
-535.87
-506.24
-461.24
-411.72
-364.57
-324.30
-293.25
-271.57
-256.90
-246.52
-238.12
-229.88
-216.72
-195.60
-167.79
-137.64
-110.21
-88.33
-72.21
-59.80
-47.81
-30.45
-3.39
29.48
62.48
89.02
104.12
105.84
95.39
76.34
54.32
34.07
17.80
5.81
-2.75
-8.45
-10.87
-8.87
-1.36
11.90
29.02
45.65
56.67
57.80
47.65
28.92
7.31
-10.80
-20.87
-21.79
-15.69
-6.20
3.42
11.35
18.11
24.90
32.12
38.34
40.72
36.52
24.19
4.96
-18.50
-41.44
-59.95
-72.59
-80.89
-88.06
-96.84
-109.05
-123.15
-136.97
-146.40
-148.02
-140.01
-122.40
-96.58
-63.89
-26.86
14.18
57.70
104.39
154.82
209.39
268.37
331.98
401.34
475.64
555.76
615.36
627.78
576.91
469.05
329.55
186.98
75.59
-5.66
-62.86
-102.62
-126.76
-135.15
-130.54
-116.21
-97.43
-79.66
-68.88
-65.51
-68.40
-73.40
-76.68
-76.07
-71.82
-66.54
-63.10
-65.12
-72.41
-83.92
-96.81
-108.40
-116.95
-122.17
-125.43
-128.66
-134.30
-142.07
-149.98
-153.92
-149.55
-133.54
-105.17
-67.31
-25.78
12.08
41.16
59.67
69.60
74.55
78.00
81.63
84.91
85.55
80.92
69.54
51.07
27.55
2.64
-19.34
-35.60
-49.16
-63.95
-83.15
-108.58
-140.34
-173.19
-202.28
-223.65
-235.68
-231.72
-209.86
-173.39
-129.42
-85.14
-45.18
-11.07
17.38
40.47
58.03
69.04
72.83
69.48
59.91
44.57
24.70
2.43
-19.20
-35.70
-42.61
-36.67
-17.59
14.27
50.78
82.82
104.73
115.15
117.16
115.82
116.73
122.22
132.33
144.69
156.32
163.74
162.17
148.33
122.16
87.34
49.38
13.40
-18.60
-46.07
-70.55
-97.19
-131.61
-177.57
-235.49
-302.62
-373.35
-440.10
-493.81
-513.25
-486.06
-416.18
-323.24
-231.31
-157.06
-105.34
-72.07
-49.43
-30.90
-14.25
-0.36
10.17
18.90
29.10
44.07
66.01
96.19
131.67
168.72
204.42
237.60
268.18
295.52
317.14
329.45
329.70
317.86
296.67
270.92
245.82
224.84
208.55
194.96
181.43
166.48
150.23
133.51
116.50
98.47
78.30
55.49
30.82
6.48
-14.52
-29.64
-37.37
-37.54
-30.74
-18.05
-1.29
16.27
29.70
33.29
22.15
-5.61
-48.02
-99.64
-153.29
-202.16
-241.38
-268.37
-282.39
-283.83
-273.65
-253.36
-224.97
-190.83
-153.27
-114.29
-75.50
-38.35
-4.36
25.01
48.58
65.89
77.37
84.08
87.47
88.91
89.43
89.64
89.73
89.43
88.27
85.95
82.77
79.87
78.83
81.03
86.88
95.40
104.46
111.62
114.99
113.91
109.05
101.91
94.21
87.27
81.73
77.61
74.52
71.82
68.81
64.76
59.00
51.27
42.02
32.71
25.59
23.02
26.32
34.75
45.33
53.78
56.21
50.92
39.14
24.29
10.17
-1.07
-9.94
-19.03
-31.32
-48.32
-69.05
-90.65
-109.77
-124.25
-133.94
-140.37
-145.45
-150.06
-153.29
-152.79
-145.91
-131.28
-109.83
-84.70
-60.31
-40.65
-27.89
-21.81
-20.24
-20.25
-19.38
-16.44
-11.54
-5.73
-0.74
0.84
-4.35
-19.63
-46.42
-82.10
-119.13
-146.59
-154.01
-136.04
-95.43
-42.42
9.16
47.32
66.07
66.46
54.57
37.93
22.60
11.76
6.28
5.91
10.02
17.92
28.56
40.17
50.56
57.94
61.82
63.52
65.55
69.92
76.41
81.68
80.18
66.61
38.72
-0.92
-45.53
-86.58
-117.17
-134.19
-138.71
-134.37
-125.28
-114.35
-102.89
-91.18
-79.23
-67.25
-55.47
-43.82
-31.84
-18.71
-3.94
12.25
28.73
43.75
55.70
63.80
68.51
71.26
73.87
77.46
81.70
84.72
83.83
76.83
63.30
45.13
25.99
9.82
-0.78
-5.54
-6.24
-5.54
-5.59
-7.19
-9.99
-13.16
-16.05
-18.23
-19.00
-17.14
-11.15
-0.38
14.01
28.87
40.15
44.73
41.86
33.59
23.35
14.09
6.71
-0.02
-7.99
-17.55
-26.04
-28.22
-18.67
5.23
41.35
83.11
121.99
150.81
166.27
169.09
162.41
149.42
131.67
109.59
84.08
58.15
36.99
25.72
26.23
35.18
44.72
45.82
32.43
4.09
-34.30
-75.12
-111.73
-140.88
-162.82
-179.61
-193.10
-203.70
-210.66
-212.94
-210.15
-202.63
-191.13
-176.33
-158.71
-138.74
-116.84
-93.56
-69.39
-44.83
-20.58
2.55
23.61
41.75
56.41
67.66
76.19
83.05
89.26
95.10
99.74
101.41
98.08
88.59
73.53
55.27
37.23
22.56
12.92
8.15
6.73
6.69
6.58
5.76
4.22
2.04
-0.79
-4.27
-7.94
-10.76
-11.39
-8.92
-3.60
2.93
8.07
9.26
5.23
-3.46
-14.53
-24.92
-32.00
-34.49
-32.73
-28.35
-23.51
-20.18
-19.74
-22.76
-29.13
-38.08
-48.36
-58.33
-66.19
-70.41
-70.23
-66.12
-59.80
-53.71
-50.06
-49.99
-53.00
-57.12
-59.59
-57.76
-49.69
-34.48
-12.35
15.33
46.02
76.14
101.61
118.85
125.89
123.05
112.86
99.10
85.40
74.14
66.03
60.59
56.84
53.88
50.87
46.69
39.69
28.22
11.84
-7.42
-24.90
-34.67
-31.92
-15.33
12.16
44.47
74.89
98.57
113.73
121.16
122.67
119.58
112.11
99.98
83.26
63.15
41.80
21.65
4.55
-8.89
-19.44
-28.92
-39.49
-52.56
-67.93
-83.54
-96.12
-102.30
-99.90
-88.67
-70.22
-47.38
-23.18
0.01
20.83
38.82
53.91
66.01
74.74
79.61
80.25
76.76
69.80
60.51
50.18
39.93
30.45
21.96
14.45
7.90
2.37
-2.08
-5.53
-8.15
-10.17
-11.80
-13.22
-14.57
-15.93
-17.41
-19.13
-21.23
-23.87
-27.20
-31.23
-35.82
-40.58
-44.94
-48.38
-50.55
-51.47
-51.48
-51.13
-50.98
-51.41
-52.60
-54.41
-56.55
-58.53
-59.87
-60.15
-59.09
-56.57
-52.68
-47.62
-41.73
-35.46
-29.19
-23.25
-17.75
-12.65
-7.82
-3.25
0.89
4.20
6.26
6.81
5.97
4.29
2.56
1.57
1.74
3.08
5.13
7.29
9.12
10.58
12.06
14.21
17.50
22.02
27.33
32.81
38.05
43.20
48.86
55.73
64.04
73.39
82.88
91.60
99.18
105.86
112.33
119.16
126.30
132.97
138.11
140.71
140.11
136.06
128.40
116.88
101.45
83.05
64.13
48.46
39.83
39.98
47.14
55.88
59.08
50.86
29.24
-3.02
-39.90
-74.91
-103.76
-125.55
-142.11
-156.08
-169.13
-181.22
-191.00
-197.01
-198.67
-196.55
-192.05
-186.60
-180.82
-174.43
-166.57
-156.56
-144.48
-131.36
-118.85
-108.42
-100.73
-95.31
-90.85
-85.88
-79.51
-71.88
-64.08
-57.62
-53.74
-52.84
-54.36
-56.97
-59.11
-59.55
-57.87
-54.48
-50.36
-46.58
-43.71
-41.61
-39.52
-36.48
-31.72
-24.98
-16.43
-6.55
4.06
14.69
24.51
32.67
38.70
42.90
46.37
50.63
56.68
64.31
71.88
76.89
77.12
71.69
61.50
48.85
36.24
25.23
15.64
5.73
-6.98
-24.62
-47.89
-75.59
-104.73
-131.11
-150.23
-158.12
-152.11
-131.39
-97.50
-54.25
-7.16
37.65
74.79
100.46
112.69
111.07
96.19
69.41
33.09
-8.97
-51.49
-88.33
-113.94
-124.88
-120.77
-104.16
-79.31
-50.70
-21.88
4.87
28.38
48.07
63.67
75.17
83.08
88.47
92.83
97.48
103.11
109.47
115.58
120.14
122.12
121.28
118.25
114.34
111.07
109.54
109.99
111.73
113.44
113.80
111.98
107.94
102.36
96.29
90.73
86.19
82.61
79.38
75.56
70.23
62.86
53.60
43.40
33.86
26.63
22.89
22.80
25.51
29.54
33.38
35.97
36.95
36.57
35.33
33.75
32.15
30.61
29.05
27.38
25.67
24.31
24.04
25.70
29.99
37.06
46.42
57.07
67.80
77.48
85.11
89.74
90.44
86.42
77.39
63.77
46.67
27.63
8.05
-11.17
-29.76
-47.79
-65.24
-81.76
-96.56
-108.59
-116.85
-120.71
-120.07
-115.40
-107.62
-97.93
-87.50
-77.30
-67.90
-59.55
-52.25
-45.96
-40.67
-36.41
-33.17
-30.82
-29.12
-27.91
-27.17
-27.07
-27.86
-29.63
-32.18
-34.96
-37.18
-38.10
-37.22
-34.51
-30.44
-25.94
-22.08
-19.79
-19.53
-21.08
-23.71
-26.54
-28.98
-31.05
-33.30
-36.39
-40.61
-45.59
-50.40
-53.90
-55.01
-52.75
-46.12
-34.23
-16.90
4.70
27.69
48.17
62.58
69.19
68.79
64.18
58.64
54.38
51.84
50.06
47.87
44.84
41.48
38.74
37.13
36.40
35.77
34.55
32.64
30.67
29.68
30.56
33.59
38.25
43.35
47.53
49.71
49.59
47.75
45.37
43.67
43.32
44.16
45.40
46.15
46.09
45.73
46.25
48.87
54.09
61.41
69.47
76.32
80.20
79.78
74.32
63.75
48.89
31.76
15.42
3.15
-2.94
-2.99
0.24
2.50
-0.16
-9.53
-24.64
-42.53
-60.01
-75.19
-87.95
-99.39
-110.51
-121.29
-130.64
-137.09
-139.76
-139.02
-136.33
-133.50
-131.84
-131.50
-131.19
-128.99
-123.26
-113.44
-100.41
-86.07
-72.39
-60.62
-50.83
-42.21
-33.80
-25.17
-16.77
-9.66
-4.99
-3.40
-4.86
-8.64
-13.71
-18.98
-23.35
-25.75
-25.03
-20.06
-10.20
4.29
21.98
40.42
56.91
69.39
77.12
80.67
81.38
80.55
78.91
76.57
73.39
69.37
64.85
60.26
55.69
50.66
44.30
35.93
25.65
14.51
4.16
-3.91
-8.94
-11.04
-10.84
-8.98
-5.85
-1.73
2.87
7.01
9.54
9.69
7.60
4.47
1.96
1.46
3.35
7.09
11.67
16.29
20.80
25.58
31.24
38.18
46.44
55.59
64.90
73.56
80.84
86.43
90.57
94.17
98.59
105.19
114.71
126.80
139.85
151.33
158.66
160.13
155.44
145.60
132.36
117.28
101.29
85.00
69.20
54.94
43.08
33.47
24.54
13.87
-0.75
-20.09
-43.07
-67.46
-91.03
-112.54
-131.93
-149.68
-165.96
-180.21
-191.40
-198.66
-201.76
-201.22
-198.13
-193.78
-189.24
-185.11
-181.16
-176.28
-169.04
-158.53
-144.87
-129.47
-114.42
-101.74
-92.84
-88.26
-87.98
-91.35
-96.47
-99.49
-95.01
-77.97
-46.45
-3.78
41.70
79.67
102.12
106.60
96.72
79.58
62.12
48.38
39.09
33.30
30.25
30.26
34.10
41.72
51.61
61.24
68.27
71.59
71.55
69.35
66.35
63.40
60.66
57.83
54.47
50.25
45.10
39.31
33.49
28.49
25.10
23.71
24.06
25.29
26.25
26.05
24.50
22.24
20.39
19.94
21.32
24.13
27.46
30.31
32.11
32.92
33.33
34.09
35.80
38.57
41.97
45.22
47.45
47.98
46.53
43.27
38.76
33.78
29.14
25.55
23.48
23.03
23.87
25.33
26.57
26.94
26.22
24.82
23.55
23.35
24.82
28.06
32.73
38.33
44.46
50.98
57.88
65.13
72.52
79.71
86.36
92.39
98.04
103.79
110.03
116.74
123.20
128.20
130.30
128.42
122.27
112.63
101.25
90.50
82.72
79.60
81.50
87.04
93.02
94.82
87.42
66.78
31.26
-17.49
-74.51
-132.65
-184.43
-224.07
-248.85
-259.46
-259.14
-252.23
-242.76
-233.54
-226.01
-220.48
-216.61
-213.71
-210.89
-207.13
-201.50
-193.33
-182.42
-169.04
-153.93
-138.10
-122.59
-108.31
-95.73
-84.80
-74.91
-65.18
-54.91
-43.97
-32.84
-22.33
-13.00
-4.79
2.90
10.85
19.45
28.36
36.53
42.57
45.23
43.90
38.76
30.86
21.87
13.77
8.36
6.74
9.01
14.15
20.46
26.11
29.77
30.96
30.04
27.94
25.69
24.03
23.15
22.39
20.04
13.66
0.55
-21.21
-51.57
-87.79
-124.90
-157.38
-181.12
-194.60
-198.44
-193.78
-180.74
-158.18
-125.14
-82.99
-36.56
6.89
40.37
60.10
66.78
64.62
58.81
53.15
49.29
47.48
47.89
51.18
58.13
68.63
81.24
93.61
103.50
109.86
113.12
114.52
115.24
115.85
116.33
116.71
117.51
119.80
124.50
131.63
139.84
146.79
150.19
148.82
143.10
134.73
125.71
117.37
110.00
103.05
95.82
88.03
79.85
71.62
63.28
54.10
43.10
29.58
13.52
-4.25
-22.30
-38.92
-52.44
-61.59
-66.05
-66.38
-64.04
-61.03
-59.19
-59.61
-62.22
-65.85
-68.80
-69.89
-68.43
-64.41
-58.62
-52.39
-47.36
-44.74
-44.86
-47.04
-50.64
-54.07
-55.29
-52.80
-46.64
