1520269849.00
64.000000
-0.00
-0.00
-0.00
-0.00
-0.00
-0.00
-0.00
-0.00
-0.00
-0.00
0.00
0.01
0.01
-0.00
-0.03
-0.05
-0.05
0.00
0.13
0.36
0.66
1.01
1.37
1.72
2.06
2.40
2.79
3.24
3.80
4.42
5.06
5.66
6.20
6.68
7.15
7.68
8.31
9.14
10.09
11.04
11.88
12.56
13.14
13.76
14.65
15.96
17.91
20.32
22.90
25.38
27.58
29.57
31.68
34.32
37.81
42.54
48.15
54.10
59.83
64.97
69.58
74.14
79.34
85.71
93.76
103.00
112.62
121.73
129.77
136.75
143.30
150.75
157.77
166.64
177.95
191.79
206.97
220.57
228.25
225.36
208.53
176.87
132.76
80.05
23.07
-34.95
-92.44
-149.16
-205.23
-260.35
-313.71
-363.84
-409.81
-450.94
-486.62
-515.96
-537.56
-549.63
-550.40
-538.81
-514.63
-479.09
-434.34
-382.99
-327.66
-270.59
-213.44
-157.47
-103.73
-53.12
-6.67
34.71
70.35
100.02
123.93
142.66
156.96
167.49
174.78
179.08
180.59
179.52
176.25
171.32
165.31
158.73
151.83
144.65
137.03
128.82
120.03
110.92
101.92
93.47
85.80
78.86
72.29
65.60
58.43
50.74
42.87
35.38
28.78
23.32
18.90
15.10
11.39
7.33
2.60
-3.01
-9.48
-16.24
-22.02
-24.92
-23.05
-15.41
-2.62
12.98
28.13
39.82
46.40
48.02
46.18
42.75
39.14
35.94
33.07
30.31
27.65
25.31
23.54
22.34
21.33
19.94
17.64
14.41
10.88
8.17
7.28
8.55
11.30
14.10
15.39
14.34
11.16
7.06
3.45
1.35
0.92
1.57
2.46
2.92
2.72
1.99
1.02
0.01
-0.99
-1.93
-2.83
-3.65
-4.29
-4.66
-4.66
-4.28
-3.62
-2.89
-2.34
-2.17
-2.35
-2.64
-2.69
-2.23
-1.27
-0.10
0.89
1.42
1.44
1.22
1.08
1.26
1.73
2.30
2.73
2.97
3.20
3.71
4.77
6.48
8.73
11.29
13.85
16.13
17.93
19.06
19.45
19.06
17.94
16.23
14.05
11.65
9.06
6.31
3.45
0.51
-2.40
-5.16
-7.60
-9.63
-11.17
-12.25
-12.90
-13.17
-13.13
-12.85
-12.39
-11.81
-11.14
-10.39
-9.58
-8.72
-7.92
-7.33
-7.09
-7.27
-7.79
-8.46
-9.09
-9.54
-9.73
-9.61
-9.09
-8.10
-6.69
-5.05
-3.53
-2.45
-1.98
-2.00
-2.17
-2.10
-1.60
-0.72
0.26
1.03
1.44
1.55
1.53
1.59
1.82
2.17
2.46
2.56
2.42
2.16
1.98
2.00
2.24
2.60
2.83
2.68
2.01
0.82
-0.82
-2.36
-3.55
-4.29
-4.65
-4.85
-5.17
-5.88
-7.16
-8.99
-11.22
-13.54
-15.58
-16.97
-17.44
-16.88
-15.33
-12.96
-10.07
-6.93
-3.94
-1.40
0.52
1.80
2.60
3.11
3.50
3.87
4.25
4.60
4.92
5.23
5.54
5.81
5.97
5.95
5.74
5.43
5.15
5.02
5.07
5.24
5.35
5.24
4.83
4.14
3.27
2.33
1.39
0.48
-0.41
-1.29
-2.14
-2.95
-3.71
-4.46
-5.22
-6.01
-6.77
-7.34
-7.55
-7.21
-6.21
-4.54
-2.36
0.06
2.39
4.36
5.76
6.62
7.04
7.21
7.26
7.27
7.21
7.05
6.81
6.55
6.36
6.29
6.29
6.27
6.12
5.84
5.49
5.21
5.07
5.02
4.89
4.48
3.70
2.57
1.29
0.10
-0.85
-1.54
-2.07
-2.64
-3.38
-4.34
-5.46
-6.60
-7.60
-8.29
-8.56
-8.30
-7.51
-6.19
-4.43
-2.40
-0.32
1.58
3.11
4.18
4.81
5.07
5.07
4.92
4.64
4.29
3.92
3.61
3.39
3.27
3.20
3.09
2.85
2.46
1.98
1.52
1.23
1.21
1.42
1.70
1.80
1.46
0.54
-0.89
-2.57
-4.17
-5.44
-6.33
-7.02
-7.79
-8.90
-10.39
-12.06
-13.53
-14.42
-14.49
-13.69
-12.17
-10.12
-7.71
-5.06
-2.31
0.39
2.79
4.69
5.97
6.68
6.99
7.10
7.16
7.19
7.17
7.06
6.90
6.82
6.90
7.20
7.63
8.00
8.11
7.85
7.23
6.43
5.63
4.95
4.41
3.87
3.20
2.32
1.29
0.24
-0.72
-1.60
-2.47
-3.46
-4.67
-6.12
-7.76
-9.55
-11.40
-13.18
-14.69
-15.66
-15.81
-14.99
-13.23
-10.78
-7.99
-5.19
-2.60
-0.26
1.85
3.76
5.45
6.87
7.93
8.60
8.90
8.88
8.66
8.34
8.07
7.98
8.15
8.56
9.08
9.54
9.81
9.81
9.54
9.02
8.23
7.14
5.72
4.10
2.48
1.09
0.10
-0.50
-0.87
-1.23
-1.77
-2.58
-3.64
-4.92
-6.39
-8.04
-9.84
-11.71
-13.55
-15.21
-16.56
-17.53
-18.05
-18.07
-17.54
-16.41
-14.70
-12.50
-10.01
-7.48
-5.17
-3.27
-1.87
-0.97
-0.49
-0.35
-0.42
-0.64
-0.96
-1.29
-1.57
-1.73
-1.70
-1.44
-1.03
-0.54
-0.04
0.44
0.96
1.61
2.43
3.36
4.25
4.90
5.21
5.16
4.86
4.41
3.92
3.45
3.01
2.63
2.31
1.97
1.52
0.79
-0.35
-1.95
-3.88
-5.94
-7.82
-9.24
-9.97
-9.91
-9.09
-7.62
-5.71
-3.55
-1.32
0.83
2.78
4.43
5.71
6.61
7.19
7.51
7.58
7.40
6.96
6.31
5.62
5.14
5.08
5.47
6.15
6.83
7.26
7.32
7.13
6.83
6.55
6.25
5.79
5.04
3.94
2.58
1.14
-0.22
-1.41
-2.44
-3.39
-4.35
-5.34
-6.35
-7.33
-8.32
-9.39
-10.65
-12.11
-13.63
-14.90
-15.49
-15.07
-13.48
-10.85
-7.55
-4.05
-0.79
1.94
4.01
5.42
6.20
6.42
6.13
5.40
4.34
3.09
1.84
0.76
-0.04
-0.57
-0.92
-1.32
-1.96
-2.91
-4.11
-5.40
-6.59
-7.64
-8.64
-9.73
-11.02
-12.47
-13.85
-14.91
-15.43
-15.27
-14.40
-12.75
-10.29
-7.05
-3.20
0.86
4.66
7.80
10.19
12.03
13.76
15.80
18.33
21.28
24.35
27.23
29.70
31.71
33.31
34.58
35.57
36.32
36.87
37.34
37.90
38.72
39.91
41.45
43.21
44.99
46.59
47.86
48.74
49.13
48.90
47.83
45.70
42.41
38.07
33.09
27.96
23.12
18.76
14.74
10.79
6.67
2.33
-2.03
-6.20
-10.03
-13.60
-17.13
-20.80
-24.67
-28.57
-32.23
-35.39
-37.88
-39.58
-40.39
-40.23
-38.98
-36.69
-33.62
-30.24
-27.10
-24.68
-23.26
-22.89
-23.43
-24.62
-26.16
-27.75
-29.08
-29.82
-29.66
-28.31
-25.60
-21.56
-16.43
-10.69
-4.90
0.43
5.00
8.75
11.87
14.64
17.38
20.28
23.44
26.78
30.12
33.13
35.45
36.70
36.55
34.74
31.10
25.63
18.56
10.43
2.02
-5.73
-12.05
-16.52
-19.20
-20.58
-21.32
-22.01
-22.93
-24.04
-25.03
-25.61
-25.54
-24.79
-23.45
-21.73
-19.85
-18.06
-16.58
-15.61
-15.25
-15.52
-16.25
-17.17
-17.90
-18.12
-17.63
-16.43
-14.64
-12.44
-9.96
-7.23
-4.24
-0.97
2.47
5.91
9.12
11.94
14.40
16.61
18.71
20.70
22.40
23.49
23.65
22.75
20.89
18.37
15.59
12.86
10.32
7.96
5.71
3.52
1.40
-0.63
-2.60
-4.55
-6.51
-8.39
-9.93
-10.79
-10.64
-9.38
-7.16
-4.30
-1.19
1.88
4.78
7.45
9.90
12.09
13.93
15.33
16.24
16.76
17.15
17.74
18.82
20.43
22.16
23.26
22.83
20.22
15.38
8.92
1.95
-4.31
-8.93
-11.44
-11.89
-10.75
-8.79
-6.92
-6.04
-6.83
-9.59
-14.09
-19.73
-25.69
-31.28
-36.05
-39.87
-42.77
-44.90
-46.34
-47.19
-47.45
-47.08
-46.00
-44.08
-41.23
-37.49
-33.01
-28.04
-22.82
-17.60
-12.60
-8.07
-4.23
-1.30
0.67
1.80
2.39
2.78
3.26
3.94
4.76
5.56
6.16
6.43
6.40
6.17
5.94
5.91
6.27
7.14
8.49
10.20
12.04
13.77
15.11
15.89
16.06
15.69
14.98
14.13
13.28
12.46
11.58
10.49
9.08
7.34
5.42
3.54
2.00
1.04
0.81
1.38
2.69
4.60
6.93
9.44
11.89
14.02
15.66
16.69
17.10
16.93
16.27
15.21
13.82
12.21
10.56
9.11
8.10
7.64
7.62
7.65
7.18
5.67
2.75
-1.66
-7.33
-13.88
-20.86
-27.85
-34.52
-40.57
-45.80
-50.06
-53.35
-55.73
-57.39
-58.50
-59.24
-59.69
-59.86
-59.79
-59.55
-59.28
-59.22
-59.53
-60.22
-61.10
-61.73
-61.56
-60.12
-57.12
-52.64
-47.06
-40.97
-34.94
-29.46
-24.78
-20.96
-17.93
-15.49
-13.40
-11.42
-9.35
-7.11
-4.74
-2.37
-0.10
2.07
4.22
6.50
8.98
11.56
14.02
16.10
17.58
18.38
18.47
17.81
16.30
13.82
10.34
6.07
1.48
-2.81
-6.18
-8.20
-8.77
-8.11
-6.70
-5.15
-4.05
-3.78
-4.46
-5.96
-7.92
-9.95
-11.64
-12.69
-12.86
-11.99
-9.99
-6.90
-2.83
1.93
7.06
12.21
17.06
21.37
24.99
27.80
29.76
30.93
31.47
31.58
31.51
31.43
31.47
31.65
31.99
32.45
33.01
33.59
34.11
34.43
34.43
33.97
32.95
31.28
28.95
26.02
22.70
19.26
15.96
12.95
10.18
7.47
4.62
1.50
-1.80
-5.07
-8.06
-10.52
-12.28
-13.15
-13.00
-11.74
-9.42
-6.28
-2.65
1.10
4.73
8.07
11.00
13.36
14.98
15.72
15.63
14.96
14.11
13.45
13.19
13.32
13.67
14.09
14.48
14.90
15.43
16.12
16.90
17.63
18.13
18.28
18.08
17.57
16.84
15.92
14.80
13.46
11.90
10.19
8.41
6.61
4.80
3.04
1.47
0.43
0.28
1.31
3.54
6.69
10.29
13.81
16.85
19.17
20.71
21.45
21.44
20.80
19.67
18.20
16.51
14.65
12.65
10.61
8.75
7.33
6.56
6.44
6.73
7.06
7.06
6.57
5.66
4.52
3.37
2.34
1.41
0.46
-0.68
-2.20
-4.20
-6.67
-9.47
-12.28
-14.73
-16.43
-17.08
-16.53
-14.74
-11.86
-8.11
-3.85
0.52
4.60
8.08
10.84
12.90
14.38
15.39
16.01
16.26
16.19
15.89
15.52
15.18
14.97
14.87
14.84
14.82
14.76
14.63
14.43
14.10
13.56
12.76
11.64
10.21
8.45
6.41
4.13
1.70
-0.80
-3.34
-5.91
-8.60
-11.43
-14.31
-16.94
-18.88
-19.64
-18.89
-16.57
-12.96
-8.55
-3.92
0.47
4.33
7.56
10.14
12.11
13.48
14.29
14.61
14.58
14.36
14.08
13.81
13.60
13.48
13.46
13.54
13.68
13.75
13.67
13.38
12.90
12.33
11.71
10.97
9.96
8.50
6.57
4.28
1.85
-0.54
-2.81
-5.04
-7.36
-9.85
-12.51
-15.32
-18.28
-21.42
-24.70
-27.95
-30.81
-32.82
-33.58
-32.91
-30.94
-28.04
-24.63
-20.96
-17.13
-13.05
-8.62
-3.87
1.03
5.90
10.57
15.01
19.27
23.36
27.18
30.49
33.05
34.72
35.59
35.89
35.91
35.81
35.53
34.92
33.80
32.15
30.07
27.80
25.58
23.53
21.66
19.89
18.13
16.27
14.27
12.11
9.83
7.51
5.24
3.15
1.28
-0.43
-2.11
-3.97
-6.17
-8.73
-11.50
-14.17
-16.30
-17.51
-17.51
-16.22
-13.79
-10.58
-7.04
-3.58
-0.54
1.96
3.93
5.46
6.70
7.75
8.64
9.40
9.99
10.36
10.48
10.35
10.05
9.68
9.39
9.28
9.33
9.47
9.60
9.67
9.67
9.63
9.56
9.38
8.98
8.31
7.35
6.24
5.18
4.36
3.83
3.51
3.21
2.73
1.92
0.78
-0.57
-1.92
-3.13
-4.13
-4.98
-5.86
-6.93
-8.28
-9.91
-11.66
-13.28
-14.52
-15.13
-14.93
-13.84
-11.90
-9.31
-6.37
-3.41
-0.69
1.63
3.53
5.05
6.27
7.22
7.93
8.39
8.63
8.70
8.68
8.65
8.65
8.71
8.82
8.90
8.90
8.79
8.59
8.35
8.10
7.85
7.50
6.96
6.18
5.19
4.15
3.24
2.55
2.08
1.67
1.15
0.44
-0.46
-1.43
-2.39
-3.32
-4.30
-5.38
-6.57
-7.75
-8.80
-9.66
-10.38
-11.12
-11.96
-12.87
-13.65
-14.01
-13.67
-12.56
-10.74
-8.46
-6.01
-3.70
-1.75
-0.32
0.57
0.98
1.04
0.91
0.73
0.59
0.54
0.60
0.78
1.04
1.30
1.44
1.36
1.01
0.46
-0.13
-0.60
-0.85
-0.88
-0.81
-0.80
-0.93
-1.21
-1.56
-1.93
-2.35
-2.88
-3.61
-4.57
-5.67
-6.75
-7.63
-8.22
-8.58
-8.86
-9.28
-9.97
-10.94
-11.99
-12.82
-13.11
-12.64
-11.39
-9.51
-7.30
-5.09
-3.15
-1.61
-0.47
0.32
0.84
1.14
1.27
1.27
1.22
1.19
1.18
1.20
1.21
1.19
1.16
1.16
1.20
1.26
1.26
1.13
0.88
0.54
0.20
-0.10
-0.38
-0.69
-1.12
-1.70
-2.43
-3.22
-3.96
-4.56
-4.98
-5.24
-5.45
-5.77
-6.28
-6.98
-7.78
-8.57
-9.27
-9.94
-10.65
-11.45
-12.21
-12.67
-12.53
-11.61
-9.97
-7.86
-5.64
-3.59
-1.90
-0.61
0.26
0.76
0.90
0.75
0.47
0.16
-0.06
-0.17
-0.22
-0.31
-0.49
-0.76
-1.03
-1.19
-1.13
-0.80
-0.31
0.20
0.56
0.66
0.49
0.14
-0.28
-0.70
-1.16
-1.73
-2.45
-3.24
-3.99
-4.63
-5.19
-5.82
-6.70
-7.88
-9.30
-10.75
-12.04
-13.04
-13.70
-13.97
-13.80
-13.08
-11.74
-9.84
-7.58
-5.30
-3.28
-1.70
-0.60
0.13
0.62
0.98
1.26
1.48
1.65
1.77
1.87
1.98
2.14
2.35
2.62
2.91
3.13
3.22
3.10
2.76
2.26
1.73
1.31
1.06
0.93
0.79
0.49
-0.08
-0.92
-1.91
-2.90
-3.79
-4.55
-5.25
-5.99
-6.83
-7.79
-8.79
-9.74
-10.57
-11.25
-11.73
-11.98
-11.93
-11.47
-10.52
-9.07
-7.22
-5.15
-3.10
-1.25
0.30
1.55
2.54
3.30
3.84
4.10
4.03
3.65
3.04
2.35
1.75
1.38
1.29
1.45
1.73
2.02
2.24
2.38
2.42
2.36
2.19
1.86
1.40
0.83
0.24
-0.33
-0.90
-1.51
-2.17
-2.87
-3.54
-4.12
-4.62
-5.15
-5.88
-6.88
-8.11
-9.38
-10.40
-10.90
-10.73
-9.90
-8.49
-6.66
-4.55
-2.30
-0.07
1.96
3.59
4.69
5.21
5.21
4.83
4.24
3.56
2.86
2.20
1.62
1.24
1.15
1.40
1.94
2.60
3.12
3.29
2.97
2.24
1.29
0.38
-0.27
-0.62
-0.78
-0.98
-1.44
-2.25
-3.35
-4.54
-5.63
-6.52
-7.26
-8.00
-8.86
-9.86
-10.87
-11.70
-12.14
-12.08
-11.46
-10.28
-8.57
-6.38
-3.84
-1.16
1.36
3.46
4.95
5.84
6.25
6.36
6.30
6.13
5.84
5.42
4.95
4.51
4.20
4.07
4.07
4.11
4.11
4.06
4.01
4.05
4.21
4.43
4.59
4.59
4.35
3.88
3.24
2.50
1.68
0.75
-0.31
-1.54
-2.94
-4.44
-6.03
-7.70
-9.42
-11.15
-12.71
-13.85
-14.32
-13.91
-12.59
-10.52
-8.02
-5.43
-3.06
-1.08
0.49
1.70
2.65
3.39
3.92
4.23
4.31
4.24
4.11
4.07
4.19
4.49
4.92
5.39
5.81
6.11
6.27
6.25
6.07
5.72
5.23
4.64
4.00
3.38
2.82
2.33
1.85
1.27
0.46
-0.66
-2.06
-3.57
-4.98
-6.13
-6.95
-7.55
-8.11
-8.82
-9.80
-11.02
-12.30
-13.36
-13.87
-13.55
-12.26
-10.07
-7.23
-4.12
-1.17
1.30
3.15
4.36
5.07
5.47
5.76
6.07
6.46
6.88
7.28
7.55
7.65
7.60
7.45
7.32
7.26
7.30
7.40
7.48
7.48
7.33
7.00
6.46
5.75
4.91
4.00
3.06
2.11
1.11
0.07
-1.00
-2.05
-2.99
-3.81
-4.53
-5.29
-6.23
-7.48
-9.04
-10.79
-12.51
-13.89
-14.65
-14.55
-13.52
-11.61
-9.05
-6.17
-3.31
-0.75
1.39
3.09
4.44
5.51
6.34
6.93
7.24
7.26
7.06
6.74
6.43
6.25
6.23
6.38
6.63
6.94
7.27
7.60
7.91
8.14
8.24
8.11
7.69
6.97
5.95
4.70
3.32
1.93
0.69
-0.27
-0.92
-1.36
-1.76
-2.38
-3.32
-4.61
-6.15
-7.80
-9.47
-11.13
-12.71
-14.10
-15.06
-15.32
-14.62
-12.92
-10.36
-7.30
-4.16
-1.33
0.98
2.71
3.94
4.81
5.42
5.82
6.03
6.06
5.97
5.86
5.81
5.87
6.02
6.24
6.52
6.88
7.34
7.87
8.35
8.65
8.69
8.46
8.03
7.48
6.87
6.20
5.44
4.58
3.64
2.67
1.72
0.79
-0.16
-1.16
-2.25
-3.46
-4.76
-6.09
-7.39
-8.59
-9.69
-10.78
-11.94
-13.22
-14.54
-15.65
-16.20
-15.90
-14.61
-12.45
-9.71
-6.75
-3.89
-1.34
0.83
2.60
3.98
4.99
5.63
5.95
6.05
6.07
6.14
6.35
6.72
7.16
7.59
7.89
8.01
7.99
7.89
7.80
7.75
7.73
7.70
7.58
7.33
6.92
6.35
5.63
4.80
3.92
3.03
2.13
1.19
0.20
-0.88
-2.00
-3.12
-4.19
-5.21
-6.22
-7.28
-8.46
-9.78
-11.24
-12.70
-13.98
-14.85
-15.05
-14.42
-12.93
-10.70
-7.95
-4.96
-1.98
0.80
3.20
5.11
6.43
7.11
7.20
6.85
6.29
5.76
5.46
5.47
5.74
6.14
6.50
6.73
6.81
6.81
6.82
6.90
7.01
7.03
6.85
6.43
5.82
5.15
4.57
4.12
3.73
3.26
2.56
1.57
0.35
-0.97
-2.23
-3.38
-4.42
-5.43
-6.54
-7.84
-9.33
-10.94
-12.50
-13.81
-14.60
-14.64
-13.80
-12.08
-9.68
-6.90
-4.09
-1.55
0.57
2.23
3.49
4.44
5.16
5.69
6.05
6.26
6.33
6.31
6.19
5.98
5.72
5.47
5.28
5.20
5.27
5.41
5.58
5.68
5.66
5.46
5.03
4.34
3.39
2.24
1.02
-0.09
-0.96
-1.59
-2.07
-2.58
-3.28
-4.23
-5.39
-6.69
-8.06
-9.47
-10.89
-12.23
-13.29
-13.79
-13.48
-12.27
-10.23
-7.60
-4.74
-1.98
0.43
2.35
3.80
4.85
5.64
6.26
6.74
7.10
7.29
7.28
7.05
6.64
6.15
5.70
5.41
5.37
5.53
5.79
6.02
6.12
6.09
5.98
5.85
5.67
5.34
4.70
3.67
2.28
0.69
-0.88
-2.34
-3.65
-4.89
-6.11
-7.31
-8.42
-9.39
-10.24
-11.10
-12.06
-13.10
-14.04
-14.58
-14.37
-13.25
-11.24
-8.56
-5.60
-2.72
-0.23
1.70
3.05
3.90
4.36
4.60
4.72
4.80
4.87
4.94
5.05
5.22
5.51
5.90
6.33
6.68
6.84
6.77
6.52
6.22
5.99
5.89
5.83
5.67
5.27
4.58
3.66
2.67
1.73
0.89
0.12
-0.66
-1.51
-2.43
-3.40
-4.40
-5.50
-6.81
-8.44
-10.37
-12.46
-14.37
-15.69
-16.12
-15.44
-13.71
-11.15
-8.11
-4.94
-1.97
0.60
2.68
4.29
5.51
6.43
7.07
7.47
7.63
7.56
7.37
7.18
7.10
7.19
7.41
7.66
7.86
7.97
8.01
8.02
8.00
7.92
7.70
7.33
6.79
6.17
5.52
4.83
4.06
3.12
1.95
0.59
-0.84
-2.16
-3.23
-4.02
-4.60
-5.19
-6.07
-7.47
-9.43
-11.74
-13.97
-15.56
-16.03
-15.17
-13.06
-10.06
-6.69
-3.39
-0.49
1.87
3.64
4.82
5.49
5.75
5.79
5.81
6.00
6.42
6.99
7.53
7.89
7.97
7.82
7.56
7.36
7.32
7.45
7.67
7.82
7.75
7.37
6.66
5.72
4.72
3.80
3.06
2.46
1.90
1.26
0.50
-0.36
-1.18
-1.86
-2.34
-2.70
-3.10
-3.72
-4.73
-6.21
-8.10
-10.24
-12.29
-13.84
-14.53
-14.14
-12.65
-10.29
-7.43
-4.45
-1.62
0.88
2.99
4.70
5.97
6.81
7.24
7.37
7.35
7.32
7.40
7.60
7.85
8.07
8.17
8.14
8.06
8.01
8.04
8.16
8.30
8.41
8.45
8.41
8.24
7.86
7.15
6.06
4.65
3.13
1.75
0.69
-0.03
-0.55
-1.10
-1.80
-2.64
-3.55
-4.43
-5.32
-6.38
-7.76
-9.49
-11.37
-13.03
-14.07
-14.23
-13.43
-11.84
-9.69
-7.20
-4.53
-1.79
0.86
3.24
5.13
6.39
7.04
7.26
7.28
7.29
7.35
7.39
7.36
7.26
7.20
7.31
7.64
8.07
8.41
8.48
8.24
7.79
7.33
6.98
6.72
6.44
5.99
5.30
4.44
3.50
2.58
1.68
0.74
-0.26
-1.28
-2.20
-2.94
-3.51
-4.07
-4.86
-6.09
-7.78
-9.79
-11.80
-13.45
-14.44
-14.58
-13.79
-12.13
-9.75
-6.91
-3.91
-1.08
1.34
3.22
4.59
5.52
6.13
6.50
6.66
6.62
6.40
6.07
5.74
5.53
5.54
5.82
6.31
6.92
7.45
7.74
7.67
7.26
6.61
5.90
5.25
4.75
4.37
4.00
3.50
2.76
1.78
0.62
-0.57
-1.65
-2.53
-3.20
-3.75
-4.35
-5.17
-6.33
-7.83
-9.55
-11.25
-12.67
-13.55
-13.74
-13.14
-11.80
-9.83
-7.41
-4.77
-2.15
0.18
2.02
3.25
3.91
4.16
4.24
4.33
4.53
4.80
5.02
5.13
5.14
5.13
5.18
5.35
5.56
5.76
5.86
5.84
5.71
5.50
5.25
4.96
4.65
4.32
3.97
3.54
2.98
2.23
1.32
0.31
-0.72
-1.69
-2.63
-3.56
-4.52
-5.51
-6.53
-7.62
-8.86
-10.27
-11.77
-13.10
-13.92
-13.90
-12.85
-10.86
-8.17
-5.20
-2.30
0.22
2.21
3.65
4.61
5.20
5.54
5.66
5.57
5.26
4.81
4.36
4.13
4.28
4.83
5.62
6.39
6.93
7.17
7.16
7.03
6.87
6.67
6.39
5.97
5.41
4.75
4.06
3.33
2.56
1.70
0.75
-0.22
-1.16
-2.02
-2.84
-3.68
-4.63
-5.75
-7.03
-8.44
-9.86
-11.17
-12.22
-12.84
-12.89
-12.29
-11.05
-9.30
-7.19
-4.91
-2.64
-0.49
1.43
3.00
4.19
4.94
5.33
5.46
5.49
5.57
5.75
6.03
6.33
6.54
6.62
6.57
6.46
6.36
6.31
6.29
6.25
6.13
5.90
5.54
5.02
4.32
3.49
2.60
1.71
0.91
0.22
-0.43
-1.08
-1.80
-2.58
-3.41
-4.27
-5.23
-6.32
-7.59
-8.98
-10.35
-11.46
-12.06
-11.96
-11.07
-9.47
-7.33
-4.96
-2.65
-0.65
0.94
2.12
2.98
3.63
4.12
4.45
4.60
4.59
4.45
4.29
4.15
4.06
3.98
3.84
3.63
3.41
3.24
3.21
3.30
3.40
3.37
3.10
2.56
1.84
1.05
0.31
-0.37
-1.00
-1.62
-2.25
-2.85
-3.43
-4.02
-4.70
-5.61
-6.79
-8.21
-9.67
-10.89
-11.60
-11.60
-10.85
-9.41
-7.49
-5.28
-3.01
-0.89
0.92
2.34
3.39
4.15
4.74
5.23
5.61
5.78
5.64
5.19
4.56
3.96
3.61
3.58
3.82
4.18
4.55
4.85
5.10
5.29
5.37
5.24
4.80
4.08
3.16
2.23
1.41
0.73
0.13
-0.49
-1.18
-1.93
-2.74
-3.63
-4.69
-5.98
-7.50
-9.14
-10.72
-12.01
-12.79
-12.94
-12.41
-11.21
-9.45
-7.32
-5.07
-2.99
-1.31
-0.13
0.61
1.10
1.59
2.25
3.13
4.11
5.00
5.61
5.86
5.76
5.43
5.02
4.69
4.57
4.70
5.08
5.60
6.11
6.43
6.46
6.15
5.56
4.81
3.98
3.13
2.26
1.39
0.54
-0.25
-0.97
-1.64
-2.33
-3.09
-3.99
-5.07
-6.30
-7.69
-9.13
-10.49
-11.58
-12.18
-12.12
-11.34
-9.90
-7.98
-5.80
-3.59
-1.53
0.26
1.73
2.87
3.67
4.16
4.36
4.35
4.26
4.22
4.34
4.63
5.00
5.29
5.35
5.10
4.62
4.07
3.65
3.46
3.48
3.57
3.53
3.24
2.69
1.96
1.21
0.55
0.03
-0.39
-0.81
-1.34
-2.03
-2.91
-3.98
-5.20
-6.53
-7.87
-9.11
-10.09
-10.68
-10.79
-10.39
-9.49
-8.14
-6.40
-4.36
-2.14
0.07
2.04
3.56
4.46
4.72
4.45
3.86
3.22
2.73
2.47
2.46
2.66
2.99
3.40
3.81
4.17
4.42
4.53
4.47
4.27
3.96
3.59
3.18
2.74
2.28
1.81
1.32
0.76
0.14
-0.57
-1.33
-2.12
-2.93
-3.81
-4.82
-5.97
-7.21
-8.37
-9.28
-9.73
-9.60
-8.81
-7.34
-5.25
-2.70
-0.01
2.45
4.30
5.37
5.68
5.49
5.14
4.88
4.79
4.81
4.81
4.71
4.56
4.44
4.45
4.59
4.76
4.86
4.81
4.63
4.42
4.30
4.29
4.32
4.23
3.79
2.91
1.62
0.12
-1.33
-2.55
-3.53
-4.41
-5.36
-6.48
-7.75
-9.04
-10.24
-11.29
-12.18
-12.88
-13.23
-12.98
-11.90
-9.93
-7.26
-4.27
-1.43
0.89
2.53
3.55
4.14
4.50
4.80
5.11
5.39
5.55
5.55
5.37
5.10
4.84
4.67
4.62
4.64
4.65
4.60
4.46
4.24
4.02
3.83
3.69
3.54
3.28
2.80
2.03
0.98
-0.23
-1.50
-2.71
-3.85
-4.96
-6.07
-7.14
-8.11
-8.95
-9.72
-10.54
-11.51
-12.54
-13.32
-13.42
-12.55
-10.67
-8.08
-5.24
-2.56
-0.27
1.60
3.11
4.33
5.25
5.87
6.19
6.28
6.25
6.23
6.33
6.57
6.96
7.41
7.76
7.88
7.67
7.17
6.54
6.02
5.78
5.82
6.01
6.13
6.01
5.58
4.88
4.00
2.96
1.81
0.56
-0.74
-1.99
-3.07
-3.91
-4.58
-5.19
-5.95
-6.98
-8.32
-9.86
-11.40
-12.66
-13.37
-13.33
-12.46
-10.84
-8.64
-6.14
-3.58
-1.17
0.92
2.61
3.83
4.56
4.87
4.89
4.84
4.95
5.34
5.95
6.59
7.00
7.03
6.70
6.22
5.87
5.81
6.04
6.39
6.61
6.54
6.16
5.60
4.98
4.40
3.81
3.17
2.39
1.50
0.59
-0.23
-0.93
-1.52
-2.09
-2.75
-3.57
-4.55
-5.70
-6.95
-8.27
-9.53
-10.58
-11.16
-11.07
-10.16
-8.50
-6.32
-3.96
-1.73
0.21
1.82
3.20
4.40
5.39
6.06
6.31
6.08
5.48
4.70
3.98
3.52
3.41
3.64
4.11
4.71
5.28
5.71
5.90
5.84
5.53
5.06
4.52
3.98
3.47
2.97
2.41
1.78
1.06
0.25
-0.65
-1.60
-2.63
-3.71
-4.81
-5.92
-7.06
-8.29
-9.64
-11.05
-12.30
-13.08
-13.07
-12.12
-10.30
-7.93
-5.37
-2.97
-0.87
0.90
2.39
3.58
4.42
4.87
4.97
4.89
4.83
4.91
5.11
5.30
5.37
5.30
5.23
5.37
5.82
6.50
7.19
7.59
7.54
7.05
6.32
5.54
4.87
4.28
3.66
2.88
1.89
0.76
-0.34
-1.27
-1.97
-2.52
-3.10
-3.86
-4.91
-6.22
-7.74
-9.36
-11.00
-12.53
-13.77
-14.48
-14.42
-13.47
-11.69
-9.32
-6.74
-4.29
-2.20
-0.53
0.74
1.73
2.52
3.19
3.82
4.46
5.13
5.79
6.35
6.71
6.82
6.72
6.49
6.26
6.10
6.02
6.00
6.02
6.07
6.18
6.34
6.51
6.57
6.38
5.80
4.84
3.59
2.22
0.94
-0.16
-1.07
-1.86
-2.62
-3.43
-4.28
-5.19
-6.18
-7.27
-8.50
-9.86
-11.19
-12.26
-12.75
-12.43
-11.23
-9.24
-6.73
-4.00
-1.35
1.00
2.89
4.28
5.15
5.60
5.74
5.74
5.73
5.80
5.95
6.13
6.27
6.34
6.37
6.39
6.39
6.34
6.16
5.82
5.33
4.80
4.32
3.96
3.75
3.61
3.47
3.21
2.77
2.11
1.24
0.20
-0.93
-2.05
-3.08
-4.02
-4.94
-5.94
-7.14
-8.50
-9.88
-10.98
-11.47
-11.10
-9.83
-7.83
-5.45
-3.04
-0.85
1.02
2.63
3.99
5.11
5.88
6.25
6.25
6.01
5.69
5.42
5.21
5.02
4.85
4.75
4.83
5.08
5.41
5.63
5.58
5.22
4.67
4.08
3.59
3.20
2.84
2.43
1.91
1.28
0.54
-0.34
-1.40
-2.61
-3.89
-5.09
-6.14
-7.08
-8.03
-9.11
-10.33
-11.48
-12.22
-12.21
-11.30
-9.60
-7.42
-5.14
-3.02
-1.19
0.36
1.69
2.82
3.68
4.20
4.36
4.26
4.04
3.86
3.80
3.84
3.96
4.12
4.38
4.76
5.27
5.81
6.21
6.31
6.07
5.51
4.80
4.08
3.44
2.88
2.34
1.73
1.01
0.20
-0.66
-1.52
-2.39
-3.32
-4.36
-5.53
-6.80
-8.14
-9.48
-10.76
-11.89
-12.74
-13.18
-13.02
-12.19
-10.73
-8.77
-6.57
-4.36
-2.30
-0.43
1.28
2.84
4.21
5.33
6.12
6.58
6.78
6.81
6.76
6.68
6.60
6.52
6.50
6.57
6.75
6.96
7.11
7.05
6.76
6.26
5.68
5.09
4.53
3.91
3.15
2.17
1.02
-0.18
-1.29
-2.19
-2.90
-3.47
-4.05
-4.74
-5.59
-6.60
-7.76
-9.05
-10.42
-11.76
-12.88
-13.53
-13.46
-12.54
-10.79
-8.42
-5.75
-3.11
-0.78
1.13
2.60
3.72
4.56
5.19
5.62
5.85
5.89
5.80
5.69
5.73
5.98
6.47
7.06
7.62
8.03
8.27
8.37
8.41
8.38
8.25
7.97
7.49
6.88
6.20
5.53
4.92
4.32
3.67
2.91
2.02
0.99
-0.13
-1.26
-2.34
-3.31
-4.24
-5.21
-6.38
-7.79
-9.37
-10.88
-12.02
-12.56
-12.41
-11.58
-10.21
-8.43
-6.38
-4.18
-2.04
-0.17
1.28
2.29
2.94
3.43
3.86
4.28
4.62
4.80
4.83
4.75
4.69
4.73
4.92
5.19
5.47
5.68
5.77
5.75
5.64
5.44
5.19
4.85
4.42
3.91
3.33
2.70
2.03
1.33
0.56
-0.28
-1.19
-2.15
-3.11
-4.06
-4.99
-5.96
-7.00
-8.11
-9.20
-10.13
-10.72
-10.84
-10.40
-9.42
-7.97
-6.16
-4.15
-2.09
-0.11
1.66
3.09
4.10
4.64
4.75
4.54
4.14
3.67
3.23
2.91
2.77
2.87
3.20
3.69
4.20
4.60
4.80
4.84
4.83
4.87
4.98
5.05
4.89
4.38
3.53
2.45
1.33
0.29
-0.62
-1.41
-2.14
-2.84
-3.52
-4.22
-4.98
-5.79
-6.63
-7.34
-7.71
-7.49
-6.52
-4.84
-2.64
-0.30
1.83
3.49
4.58
5.19
5.42
5.45
5.30
5.03
4.63
4.19
3.81
3.59
3.56
3.64
3.67
3.50
3.05
2.40
1.75
1.35
1.35
1.74
2.28
2.62
2.46
1.70
0.45
-1.00
-2.34
-3.43
-4.25
-4.91
-5.50
-6.08
-6.68
-7.34
-8.17
-9.24
-10.48
-11.69
-12.50
-12.57
-11.73
-10.05
-7.83
-5.39
-3.05
-0.96
0.81
2.27
3.38
4.12
4.48
4.47
4.22
3.87
3.57
3.42
3.45
3.62
3.85
4.08
4.27
4.38
4.44
4.45
4.39
4.23
3.92
3.39
2.63
1.65
0.54
-0.60
-1.69
-2.65
-3.51
-4.33
-5.21
-6.24
-7.44
-8.79
-10.24
-11.67
-12.95
-13.86
-14.18
-13.70
-12.38
-10.34
-7.86
-5.28
-2.87
-0.74
1.12
2.80
4.30
5.60
6.58
7.18
7.45
7.49
7.41
7.31
7.20
7.09
6.97
6.86
6.82
6.85
6.93
6.98
6.92
6.72
6.40
6.03
5.69
5.36
5.01
4.53
3.84
2.93
1.86
0.74
-0.33
-1.31
-2.27
-3.31
-4.50
-5.82
-7.19
-8.53
-9.78
-11.00
-12.26
-13.58
-14.83
-15.70
-15.79
-14.80
-12.65
-9.60
-6.11
-2.74
0.12
2.27
3.76
4.75
5.42
5.89
6.20
6.37
6.41
6.42
6.46
6.60
6.82
7.06
7.24
7.31
7.28
7.20
7.11
7.01
6.89
6.74
6.55
6.36
6.16
5.92
5.57
5.01
4.19
3.11
1.85
0.49
-0.85
-2.10
-3.20
-4.13
-4.93
-5.70
-6.59
-7.75
-9.28
-11.13
-13.06
-14.72
-15.70
-15.70
-14.62
-12.58
-9.92
-7.04
-4.27
-1.80
0.31
2.07
3.49
4.57
5.28
5.66
5.78
5.77
5.72
5.72
5.79
5.96
6.25
6.66
7.14
7.62
7.96
8.07
7.93
7.60
7.20
6.84
6.56
6.32
6.06
5.71
5.20
4.52
3.64
2.56
1.30
-0.05
-1.36
-2.52
-3.42
-4.09
-4.65
-5.25
-6.06
-7.25
-8.89
-10.91
-13.09
-14.95
-16.02
-15.85
-14.31
-11.63
-8.28
-4.84
-1.75
0.73
2.56
3.78
4.51
4.85
4.94
4.95
5.03
5.24
5.56
5.88
6.15
6.35
6.55
6.82
7.20
7.62
8.00
8.21
8.22
8.03
7.69
7.29
6.87
6.45
5.98
5.43
4.72
3.85
2.83
1.68
0.44
-0.89
-2.26
-3.63
-4.92
-6.06
-7.03
-7.92
-8.89
-10.06
-11.49
-13.04
-14.40
-15.22
-15.20
-14.20
-12.28
-9.72
-6.85
-4.01
-1.45
0.68
2.34
3.55
4.39
4.96
5.36
5.68
5.99
6.30
6.61
6.89
7.10
7.24
7.31
7.34
7.39
7.52
7.75
8.08
8.43
8.68
8.72
8.48
7.99
7.33
6.59
5.86
5.14
4.42
3.65
2.86
2.03
1.17
0.22
-0.89
-2.18
-3.60
-5.00
-6.24
-7.25
-8.11
-9.02
-10.16
-11.60
-13.22
-14.77
-15.95
-16.50
-16.26
-15.17
-13.24
-10.60
-7.50
-4.30
-1.34
1.09
2.89
4.13
4.97
5.53
5.88
6.01
5.93
5.76
5.68
5.91
6.48
7.27
8.01
8.42
8.40
8.04
7.59
7.31
7.33
7.58
7.84
7.88
7.58
6.95
6.11
5.20
4.34
3.54
2.80
2.07
1.31
0.47
-0.44
-1.42
-2.41
-3.40
-4.39
-5.45
-6.71
-8.27
-10.15
-12.23
-14.30
-16.08
-17.25
-17.58
-16.92
-15.30
-12.91
-10.07
-7.15
-4.48
-2.21
-0.35
1.20
2.56
3.81
4.93
5.88
6.59
7.03
7.22
7.18
6.99
6.75
6.59
6.58
6.74
7.02
7.33
7.61
7.83
8.04
8.23
8.32
8.17
7.68
6.88
5.95
5.14
4.65
4.53
4.62
4.66
4.42
3.75
2.64
1.19
-0.44
-2.03
-3.41
-4.45
-5.17
-5.73
-6.40
-7.41
-8.88
-10.72
-12.66
-14.32
-15.34
-15.47
-14.63
-12.87
-10.41
-7.51
-4.50
-1.66
0.77
2.66
3.97
4.71
4.99
4.94
4.77
4.65
4.70
4.99
5.50
6.18
6.98
7.80
8.51
8.97
9.10
8.91
8.50
8.06
7.71
7.52
7.43
7.34
7.17
6.88
6.46
5.90
5.19
4.29
3.22
2.01
0.76
-0.49
-1.67
-2.72
-3.59
-4.29
-4.89
-5.58
-6.57
-8.05
-10.00
-12.17
-14.16
-15.51
-15.91
-15.22
-13.57
-11.26
-8.64
-6.01
-3.58
-1.45
0.37
1.89
3.13
4.07
4.69
5.02
5.09
4.97
4.76
4.52
4.34
4.24
4.26
4.39
4.62
4.88
5.14
5.35
5.46
5.42
5.18
4.67
3.90
2.93
1.92
1.06
0.47
0.15
-0.04
-0.31
-0.87
-1.82
-3.13
-4.68
-6.35
-8.03
-9.67
-11.22
-12.62
-13.70
-14.24
-14.08
-13.11
-11.40
-9.12
-6.52
-3.84
-1.28
1.03
2.99
4.57
5.75
6.54
6.94
7.00
6.72
6.20
5.56
4.95
4.58
4.59
4.99
5.69
6.50
7.22
7.71
7.92
7.86
7.55
7.02
6.31
5.48
4.63
3.83
3.11
2.45
1.76
0.96
-0.00
-1.17
-2.53
-4.01
-5.52
-6.95
-8.21
-9.29
-10.28
-11.34
-12.64
-14.24
-15.95
-17.46
-18.37
-18.34
-17.22
-15.03
-12.01
-8.49
-4.91
-1.67
0.96
2.88
4.19
5.12
5.88
6.55
7.12
7.49
7.61
7.56
7.48
7.50
7.67
7.95
8.22
8.40
8.44
8.36
8.17
7.91
7.62
7.30
6.94
6.49
5.85
4.92
3.69
2.17
0.50
-1.16
-2.72
-4.11
-5.32
-6.40
-7.43
-8.50
-9.77
-11.35
-13.23
-15.22
-16.94
-17.95
-17.85
-16.45
-13.85
-10.42
-6.68
-3.14
-0.19
2.04
3.58
4.63
5.40
6.09
6.79
7.49
8.10
8.53
8.72
8.69
8.57
8.49
8.55
8.78
9.11
9.44
9.68
9.81
9.85
9.80
9.61
9.23
8.59
7.71
6.70
5.68
4.75
3.95
3.21
2.41
1.49
0.41
-0.80
-2.05
-3.27
-4.46
-5.68
-7.08
-8.77
-10.84
-13.18
-15.53
-17.50
-18.73
-18.93
-18.06
-16.23
-13.66
-10.62
-7.35
-4.08
-1.01
1.66
3.78
5.30
6.26
6.80
7.09
7.28
7.48
7.76
8.09
8.43
8.74
8.93
9.00
8.96
8.91
8.91
9.05
9.31
9.65
9.95
10.10
10.01
9.60
8.83
7.75
6.44
5.06
3.74
2.57
1.54
0.58
-0.41
-1.49
-2.64
-3.77
-4.77
-5.60
-6.33
-7.11
-8.13
-9.57
-11.46
-13.68
-15.96
-17.90
-19.10
-19.25
-18.25
-16.21
-13.42
-10.29
-7.15
-4.27
-1.76
0.36
2.11
3.52
4.60
5.37
5.87
6.16
6.29
6.36
6.41
6.49
6.66
6.97
7.43
8.00
8.64
9.28
9.87
10.34
10.68
10.83
10.76
10.43
9.83
9.02
8.07
7.08
6.14
5.27
4.42
3.51
2.49
1.37
0.24
-0.80
-1.68
-2.42
-3.16
-4.02
-5.14
-6.59
-8.38
-10.49
-12.80
-15.12
-17.10
-18.35
-18.48
-17.30
-14.91
-11.68
-8.14
-4.77
-1.88
0.44
2.28
3.76
4.95
5.87
6.48
6.81
6.97
7.09
7.30
7.64
8.03
8.36
8.53
8.58
8.65
8.90
9.42
10.14
10.86
11.32
11.31
10.78
9.83
8.63
7.40
6.29
5.36
4.60
3.93
3.30
2.61
1.80
0.83
-0.29
-1.53
-2.81
-4.01
-5.05
-5.96
-6.80
-7.74
-8.93
-10.42
-12.20
-14.11
-15.89
-17.26
-17.93
-17.69
-16.50
-14.47
-11.83
-8.88
-5.88
-3.00
-0.33
2.08
4.19
5.89
7.11
7.85
8.18
8.28
8.30
8.38
8.53
8.72
8.89
9.04
9.23
9.51
9.95
10.51
11.08
11.47
11.51
11.13
10.35
9.34
8.27
7.30
6.50
5.84
5.29
4.79
4.29
3.74
3.04
2.13
0.95
-0.45
-1.94
-3.34
-4.53
-5.49
-6.30
-7.10
-8.00
-9.08
-10.35
-11.78
-13.32
-14.91
-16.37
-17.48
-17.95
-17.51
-16.08
-13.71
-10.66
-7.26
-3.86
-0.71
1.99
4.17
5.80
6.90
7.53
7.75
7.66
7.42
7.19
7.16
7.44
8.01
8.72
9.36
9.76
9.86
9.75
9.60
9.56
9.70
9.94
10.13
10.11
9.80
9.23
8.49
7.71
6.99
6.35
5.75
5.10
4.31
3.32
2.11
0.73
-0.77
-2.33
-3.87
-5.28
-6.49
-7.45
-8.22
-8.98
-9.92
-11.21
-12.89
-14.85
-16.80
-18.38
-19.19
-18.95
-17.54
-15.08
-11.87
-8.33
-4.84
-1.74
0.83
2.84
4.35
5.44
6.20
6.68
6.89
6.89
6.73
6.53
6.43
6.53
6.86
7.37
7.94
8.48
8.95
9.38
9.78
10.13
10.36
10.37
10.12
9.62
8.93
8.12
7.21
6.22
5.17
4.12
3.15
2.30
1.57
0.85
0.04
-0.92
-2.00
-3.13
-4.19
-5.13
-5.98
-6.84
-7.82
-9.06
-10.64
-12.52
-14.53
-16.38
-17.64
-17.95
-17.10
-15.12
-12.29
-9.06
-5.85
-2.96
-0.53
1.44
3.00
4.17
4.94
5.31
5.30
5.04
4.67
4.34
4.14
4.12
4.27
4.54
4.93
5.38
5.86
6.29
6.59
6.74
6.75
6.64
6.43
6.13
5.68
5.05
4.28
3.42
2.55
1.70
0.81
-0.15
-1.18
-2.24
-3.23
-4.10
-4.89
-5.72
-6.72
-7.98
-9.50
-11.17
-12.80
-14.18
-15.09
-15.36
-14.83
-13.47
-11.37
-8.73
-5.82
-2.93
-0.27
2.03
3.92
5.40
6.46
7.11
7.36
7.27
6.94
6.51
6.13
5.92
5.93
6.12
6.47
6.90
7.38
7.86
8.27
8.55
8.64
8.55
8.32
8.03
7.72
7.34
6.79
5.99
4.92
3.69
2.46
1.38
0.48
-0.30
-1.07
-1.94
-2.94
-4.01
-5.09
-6.14
-7.17
-8.21
-9.31
-10.46
-11.69
-13.00
-14.45
-16.02
-17.61
-18.93
-19.59
-19.23
-17.67
-15.04
-11.75
-8.31
-5.17
-2.56
-0.46
1.25
2.68
3.84
4.65
5.05
5.07
4.88
4.70
4.72
4.99
5.42
5.88
6.27
6.61
6.94
7.33
7.72
7.97
7.94
7.56
6.95
6.28
5.72
5.29
4.87
4.23
3.23
1.86
0.23
-1.45
-3.00
-4.37
-5.55
-6.58
-7.53
-8.44
-9.39
-10.51
-11.86
-13.41
-14.91
-15.99
-16.24
-15.37
-13.37
-10.47
-7.11
-3.75
-0.76
1.66
3.47
4.75
5.63
6.22
6.56
6.70
6.65
6.44
6.13
5.83
5.65
5.65
5.81
6.06
6.33
6.56
6.76
6.96
7.17
7.31
7.27
6.95
6.30
5.38
4.29
3.16
2.06
1.03
0.10
-0.74
-1.46
-2.08
-2.63
-3.16
-3.74
-4.39
-5.08
-5.79
-6.51
-7.30
-8.29
-9.63
-11.40
-13.56
-15.91
-18.09
-19.65
-20.26
-19.69
-17.95
-15.22
-11.79
-8.00
-4.14
-0.53
2.59
4.99
6.56
7.28
7.33
6.97
6.53
6.26
6.30
6.66
7.23
7.88
8.47
8.89
9.05
8.94
8.59
8.10
7.64
7.33
7.24
7.32
7.37
7.20
6.67
5.77
4.63
3.43
2.30
1.26
0.24
-0.89
-2.17
-3.62
-5.18
-6.84
-8.63
-10.59
-12.72
-14.89
-16.82
-18.11
-18.43
-17.58
-15.62
-12.78
-9.44
-5.99
-2.72
0.17
2.59
4.48
5.83
6.64
6.97
6.98
6.80
6.59
6.49
6.55
6.79
7.16
7.61
8.05
8.42
8.67
8.79
8.80
8.69
8.46
8.08
7.55
6.87
6.08
5.22
4.31
3.35
2.32
1.21
0.02
-1.22
-2.45
-3.67
-4.87
-6.07
-7.35
-8.76
-10.34
-12.08
-13.89
-15.54
-16.74
-17.19
-16.62
-14.96
-12.32
-9.04
-5.54
-2.25
0.53
2.68
4.27
5.42
6.30
6.99
7.51
7.86
8.04
8.10
8.11
8.14
8.21
8.37
8.60
8.92
9.31
9.77
10.24
10.64
10.89
10.90
10.58
9.94
9.01
7.88
6.66
5.46
4.34
3.29
2.29
1.28
0.20
-0.96
-2.25
-3.70
-5.37
-7.30
-9.46
-11.75
-13.92
-15.66
-16.65
-16.64
-15.53
-13.43
-10.59
-7.36
-4.10
-1.06
1.57
3.72
5.35
6.46
7.08
7.27
7.14
6.84
6.54
6.34
6.30
6.42
6.62
6.81
6.90
6.86
6.71
6.57
6.54
6.74
7.16
7.68
8.07
8.11
7.61
6.52
4.98
3.23
1.55
0.15
-0.92
-1.77
-2.65
-3.82
-5.43
-7.44
-9.62
-11.59
-12.95
-13.39
-12.79
-11.18
-8.81
-5.99
-3.07
-0.33
2.02
3.87
5.19
6.04
6.51
6.71
6.76
6.72
6.61
6.45
6.29
6.19
6.21
6.38
6.62
6.82
6.82
6.58
6.17
5.73
5.40
5.20
4.97
4.53
3.72
2.57
1.23
-0.10
-1.31
-2.46
-3.71
-5.27
-7.21
-9.45
-11.78
-13.93
-15.63
-16.68
-16.92
-16.25
-14.69
-12.36
-9.54
-6.56
-3.75
-1.30
0.77
2.52
4.05
5.39
6.54
7.40
7.90
8.04
7.92
7.70
7.57
7.63
7.90
8.30
8.72
9.03
9.18
9.18
9.07
8.85
8.52
8.02
7.28
6.33
5.22
4.08
2.97
1.94
0.94
-0.07
-1.16
-2.35
-3.66
-5.09
-6.70
-8.51
-10.51
-12.49
-14.11
-14.94
-14.66
-13.15
-10.60
-7.41
-4.04
-0.89
1.77
3.85
5.33
6.29
6.84
7.11
7.25
7.38
7.58
7.87
8.23
8.61
8.95
9.23
9.35
9.26
8.92
8.39
7.78
7.24
6.90
6.77
6.78
6.78
6.67
6.39
5.96
5.46
4.89
4.24
3.45
2.48
1.36
0.16
-1.05
-2.24
-3.46
-4.80
-6.34
-8.07
-9.90
-11.59
-12.84
-13.38
-13.05
-11.84
-9.87
-7.44
-4.88
-2.49
-0.43
1.28
2.73
4.05
5.29
6.41
7.24
7.64
7.56
7.10
6.47
5.92
5.64
5.67
5.94
6.32
6.73
7.09
7.39
7.62
7.72
7.66
7.38
6.90
6.28
5.61
4.99
4.44
3.90
3.29
2.51
1.54
0.41
-0.80
-2.01
-3.18
-4.34
-5.53
-6.78
-8.07
-9.32
-10.32
-10.89
-10.84
-10.10
-8.71
-6.86
-4.82
-2.79
-0.91
0.80
2.33
3.65
4.63
5.14
5.15
4.72
4.04
3.36
2.86
2.61
2.59
2.70
2.85
2.97
3.01
3.00
2.97
2.92
2.86
2.75
2.49
2.02
1.33
0.46
-0.48
-1.38
-2.12
-2.68
-3.06
-3.39
-3.82
-4.54
-5.61
-7.01
-8.54
-9.92
-10.88
-11.21
-10.81
-9.68
-7.90
-5.64
-3.15
-0.73
1.28
2.68
3.39
3.55
3.40
3.21
3.11
3.13
3.17
3.15
3.03
2.89
2.86
3.03
3.41
3.86
4.16
4.14
3.79
3.22
2.64
2.21
1.96
1.77
1.46
0.87
-0.00
-1.02
-1.99
-2.75
-3.24
-3.58
-3.94
-4.49
-5.35
-6.55
-8.04
-9.71
-11.35
-12.69
-13.41
-13.22
-12.01
-9.91
-7.29
-4.64
-2.39
-0.78
0.22
0.79
1.17
1.54
1.95
2.38
2.77
3.11
3.42
3.77
4.14
4.46
4.64
4.58
4.34
4.09
4.06
4.37
5.00
5.70
6.13
6.03
5.31
4.17
2.92
1.88
1.23
0.93
0.77
0.48
-0.15
-1.16
-2.42
-3.71
-4.81
-5.60
-6.15
-6.57
-7.01
-7.55
-8.21
-8.98
-9.83
-10.70
-11.52
-12.10
-12.18
-11.54
-10.10
-7.94
-5.35
-2.73
-0.43
1.34
2.53
3.20
3.47
3.44
3.23
2.99
2.85
2.97
3.38
4.01
4.66
5.09
5.16
4.89
4.46
4.05
3.85
3.85
3.96
4.05
4.00
3.79
3.47
3.08
2.64
2.16
1.63
1.05
0.41
-0.29
-1.06
-1.88
-2.68
-3.36
-3.83
-4.07
-4.18
-4.39
-4.92
-5.90
-7.31
-8.91
-10.37
-11.38
-11.69
-11.23
-10.07
-8.38
-6.40
-4.35
-2.48
-0.91
0.30
1.20
1.94
2.61
3.24
3.78
4.14
4.26
4.17
3.99
3.85
3.84
3.94
4.09
4.19
4.23
4.21
4.17
4.08
3.90
3.56
3.05
2.45
1.86
1.37
1.02
0.78
0.58
0.32
-0.07
-0.66
-1.46
-2.44
-3.50
-4.48
-5.22
-5.64
-5.73
-5.67
-5.72
-6.13
-7.07
-8.44
-9.93
-11.03
-11.31
-10.52
-8.76
-6.38
-3.84
-1.53
0.35
1.73
2.63
3.08
3.12
2.82
2.36
1.97
1.86
2.09
2.55
3.04
3.36
3.45
3.39
3.34
3.45
3.71
4.00
4.14
3.98
3.49
2.79
2.03
1.37
0.89
0.55
0.29
-0.00
-0.38
-0.85
-1.39
-1.96
-2.53
-3.08
-3.62
-4.17
-4.75
-5.43
-6.26
-7.31
-8.59
-9.99
-11.33
-12.31
-12.70
-12.35
-11.25
-9.56
-7.49
-5.27
-3.09
-1.10
0.55
1.76
2.50
2.84
2.90
2.89
2.92
3.05
3.24
3.42
3.54
3.61
3.68
3.77
3.91
4.09
4.28
4.44
4.56
4.65
4.70
4.69
4.59
4.34
3.87
3.17
2.26
1.21
0.11
-0.91
-1.77
-2.41
-2.79
-2.96
-3.04
-3.20
-3.67
-4.58
-5.95
-7.63
-9.33
-10.77
-11.75
-12.19
-12.14
-11.66
-10.80
-9.55
-7.91
-5.94
-3.77
-1.61
0.32
1.87
2.97
3.63
3.91
3.87
3.61
3.23
2.88
2.70
2.76
3.07
3.52
4.00
4.40
4.70
4.93
5.10
5.19
5.15
4.93
4.52
4.00
3.46
2.98
2.55
2.15
1.73
1.22
0.60
-0.19
-1.13
-2.23
-3.41
-4.55
-5.54
-6.36
-7.08
-7.84
-8.76
-9.86
-11.00
-11.91
-12.31
-11.98
-10.84
-8.99
-6.68
-4.23
-1.96
-0.05
1.43
2.48
3.18
3.56
3.61
3.35
2.85
2.25
1.74
1.52
1.65
2.09
2.68
3.22
3.52
3.54
3.32
2.96
2.63
2.42
2.36
2.38
2.38
2.25
1.92
1.35
0.53
-0.52
-1.74
-3.06
-4.39
-5.62
-6.72
-7.71
-8.64
-9.58
-10.49
-11.25
-11.64
-11.48
-10.62
-9.08
-7.03
-4.76
-2.54
-0.62
0.91
2.07
2.91
3.51
3.89
3.99
3.80
3.33
2.71
2.14
1.81
1.83
2.14
2.62
3.08
3.42
3.63
3.78
3.90
4.00
3.94
3.62
2.97
2.04
0.94
-0.21
-1.32
-2.40
-3.47
-4.57
-5.65
-6.71
-7.75
-8.85
-10.11
-11.54
-13.04
-14.35
-15.16
-15.22
-14.44
-12.91
-10.82
-8.43
-5.94
-3.49
-1.17
0.96
2.81
4.29
5.33
5.90
6.05
5.91
5.66
5.47
5.48
5.72
6.12
6.58
7.04
7.41
7.70
7.90
7.98
7.92
7.68
7.32
6.90
6.47
6.06
5.61
4.98
4.06
2.82
1.30
-0.35
-1.94
-3.32
-4.44
-5.36
-6.22
-7.23
-8.56
-10.25
-12.20
-14.15
-15.76
-16.71
-16.77
-15.84
-14.00
-11.46
-8.50
-5.41
-2.43
0.23
2.42
4.09
5.27
6.08
6.64
7.06
7.36
7.54
7.58
7.53
7.53
7.74
8.25
9.05
10.00
10.89
11.58
12.01
12.24
12.34
12.37
12.26
11.92
11.25
10.19
8.76
7.06
5.22
3.41
1.70
0.11
-1.44
-3.04
-4.70
-6.34
-7.83
-9.07
-10.07
-10.99
-12.09
-13.59
-15.47
-17.53
-19.35
-20.52
-20.72
-19.84
-17.96
-15.30
-12.15
-8.79
-5.52
-2.51
0.13
2.38
4.26
5.77
6.89
7.60
7.92
7.98
7.94
7.96
8.16
8.51
8.96
9.42
9.87
10.32
10.80
11.32
11.89
12.43
12.88
13.16
13.16
12.82
12.12
11.16
10.06
9.00
8.08
7.28
6.46
5.43
4.04
2.32
0.42
-1.40
-2.92
-4.05
-4.90
-5.65
-6.54
-7.74
-9.29
-11.11
-13.04
-14.83
-16.15
-16.65
-16.06
-14.24
-11.34
-7.70
-3.83
-0.16
3.01
5.60
7.63
9.14
10.16
10.69
10.76
10.49
10.09
9.74
9.53
9.47
9.51
9.58
9.71
9.94
10.33
10.85
11.39
11.78
11.87
11.62
11.06
10.29
9.38
8.38
7.28
6.07
4.76
3.38
2.01
0.71
-0.51
-1.68
-2.86
-4.12
-5.53
-7.12
-8.80
-10.45
-11.86
-12.85
-13.28
-13.05
-12.16
-10.61
-8.50
-5.94
-3.11
-0.24
2.43
4.70
6.40
7.48
7.99
8.09
7.98
7.90
7.98
8.26
8.68
9.13
9.51
9.80
10.01
10.23
10.48
10.77
11.06
11.32
11.47
11.45
11.20
10.69
9.92
8.91
7.73
6.46
5.13
3.80
2.51
1.32
0.23
-0.77
-1.73
-2.70
-3.67
-4.65
-5.64
-6.68
-7.89
-9.34
-11.00
-12.65
-13.95
-14.52
-14.16
-12.84
-10.76
-8.21
-5.45
-2.68
-0.04
2.35
4.36
5.86
6.79
7.19
7.21
7.05
6.86
6.72
6.59
6.44
6.27
6.15
6.20
6.50
7.02
7.63
8.12
8.36
8.30
7.99
7.51
6.90
6.16
5.32
4.42
3.54
2.75
2.02
1.28
0.38
-0.76
-2.13
-3.64
-5.12
-6.43
-7.56
-8.58
-9.65
-10.93
-12.49
-14.26
-16.02
-17.43
-18.11
-17.79
-16.35
-13.95
-10.90
-7.64
-4.56
-1.87
0.34
2.10
3.50
4.60
5.43
6.00
6.35
6.52
6.59
6.61
6.66
6.78
7.03
7.43
7.95
8.51
9.00
9.31
9.37
9.17
8.78
8.29
7.80
7.39
7.11
6.90
6.68
6.31
5.67
4.74
3.55
2.17
0.73
-0.68
-1.97
-3.09
-4.07
-5.01
-6.02
-7.22
-8.63
-10.12
-11.44
-12.30
-12.44
-11.76
-10.33
-8.34
-6.00
-3.52
-1.04
1.32
3.42
5.14
6.37
7.14
7.52
7.66
7.67
7.57
7.33
6.91
6.35
5.76
5.33
5.20
5.41
5.86
6.41
6.87
7.15
7.19
7.02
6.66
6.19
5.64
5.02
4.33
3.50
2.47
1.23
-0.15
-1.50
-2.61
-3.39
-3.86
-4.21
-4.72
-5.66
-7.11
-8.95
-10.86
-12.38
-13.10
-12.74
-11.25
-8.81
-5.76
-2.50
0.58
3.17
5.05
6.15
6.51
6.26
5.67
5.00
4.48
4.24
4.29
4.57
4.98
5.47
5.96
6.34
6.52
6.41
6.01
5.45
4.89
4.50
4.36
4.42
4.53
4.57
4.45
4.21
3.92
3.66
3.42
3.10
2.57
1.71
0.49
-1.02
-2.68
-4.35
-5.95
-7.44
-8.77
-9.80
-10.31
-10.06
-8.94
-7.06
-4.71
-2.29
-0.16
1.48
2.59
3.25
3.51
3.42
3.04
2.48
1.88
1.44
1.26
1.31
1.47
1.55
1.44
1.14
0.75
0.43
0.32
0.47
0.83
1.24
1.54
1.54
1.14
0.38
-0.66
-1.83
-3.02
-4.14
-5.15
-6.05
-6.85
-7.62
-8.40
-9.24
-10.10
-10.81
-11.10
-10.74
-9.59
-7.72
-5.36
-2.81
-0.35
1.87
3.69
5.03
5.79
5.92
5.46
4.57
3.48
2.44
1.65
1.22
1.21
1.56
2.17
2.86
3.41
3.67
3.52
2.96
2.08
1.04
-0.04
-1.05
-1.94
-2.72
-3.40
-4.03
-4.67
-5.40
-6.31
-7.43
-8.75
-10.09
-11.19
-11.71
-11.42
-10.27
-8.40
-6.14
-3.80
-1.63
0.27
1.90
3.25
4.28
4.92
5.09
4.83
4.28
3.62
3.03
2.60
2.33
2.15
2.01
1.86
1.70
1.57
1.51
1.55
1.65
1.71
1.59
1.20
0.53
-0.35
-1.29
-2.20
-3.07
-3.99
-5.05
-6.29
-7.67
-9.01
-10.11
-10.78
-10.93
-10.50
-9.54
-8.09
-6.26
-4.17
-1.96
0.20
2.12
3.66
4.71
5.27
5.45
5.41
5.27
5.14
5.02
4.93
4.88
4.86
4.91
4.97
4.99
4.90
4.69
4.40
4.10
3.78
3.38
2.75
1.80
0.55
-0.82
-2.11
-3.18
-4.06
-4.94
-6.05
-7.51
-9.29
-11.14
-12.72
-13.66
-13.71
-12.78
-10.98
-8.58
-5.93
-3.34
-1.05
0.84
2.31
3.44
4.28
4.92
5.43
5.86
6.26
6.59
6.82
6.90
6.80
6.59
6.37
6.27
6.35
6.59
6.91
7.17
7.22
6.97
6.42
5.63
4.74
3.89
3.20
2.63
2.12
1.51
0.69
-0.35
-1.51
-2.66
-3.68
-4.55
-5.37
-6.28
-7.43
-8.84
-10.38
-11.82
-12.91
-13.49
-13.49
-12.90
-11.76
-10.11
-8.00
-5.58
-3.03
-0.62
1.45
3.06
4.19
4.93
5.39
5.66
5.83
5.93
6.05
6.24
6.50
6.79
7.05
7.22
7.26
7.23
7.16
7.09
6.98
6.79
6.48
6.03
5.52
4.98
4.50
4.09
3.78
3.51
3.21
2.75
2.02
1.00
-0.24
-1.55
-2.76
-3.75
-4.48
-5.03
-5.52
-6.11
-6.92
-8.06
-9.55
-11.27
-12.93
-14.16
-14.56
-13.91
-12.27
-9.96
-7.43
-5.10
-3.23
-1.81
-0.71
0.31
1.40
2.58
3.75
4.72
5.38
5.70
5.79
5.80
5.87
6.07
6.32
6.53
6.66
6.70
6.71
6.72
6.74
6.71
6.56
6.27
5.87
5.42
4.97
4.54
4.12
3.67
3.16
2.56
1.88
1.14
0.35
-0.43
-1.20
-1.93
-2.65
-3.39
-4.18
-5.05
-6.01
-7.12
-8.38
-9.78
-11.21
-12.48
-13.32
-13.46
-12.76
-11.25
-9.16
-6.81
-4.56
-2.65
-1.13
0.09
1.18
2.26
3.33
4.29
4.98
5.33
5.39
5.33
5.28
5.33
5.46
5.61
5.73
5.84
6.00
6.22
6.46
6.61
6.54
6.18
5.59
4.84
4.07
3.40
2.89
2.55
2.35
2.17
1.90
1.43
0.72
-0.17
-1.07
-1.82
-2.30
-2.55
-2.74
-3.10
-3.76
-4.77
-5.98
-7.25
-8.48
-9.71
-10.98
-12.28
-13.43
-14.11
-14.05
-13.10
-11.41
-9.27
-7.04
-4.90
-2.91
-1.00
0.90
2.67
4.15
5.14
5.57
5.54
5.29
5.06
4.98
5.08
5.26
5.41
5.48
5.51
5.57
5.74
6.06
6.45
6.85
7.10
7.13
6.90
6.41
5.76
5.03
4.31
3.59
2.87
2.13
1.41
0.76
0.26
-0.06
-0.25
-0.41
-0.68
-1.11
-1.74
-2.50
-3.32
-4.18
-5.07
-6.04
-7.09
-8.24
-9.42
-10.53
-11.39
-11.83
-11.67
-10.83
-9.33
-7.34
-5.13
-2.97
-1.10
0.36
1.43
2.21
2.79
3.23
3.55
3.76
3.95
4.22
4.64
5.22
5.85
6.39
6.74
6.87
6.85
6.80
6.79
6.83
6.87
6.85
6.75
6.55
6.23
5.74
5.05
4.17
3.21
2.35
1.75
1.48
1.43
1.45
1.30
0.85
0.09
-0.89
-1.98
-3.06
-4.04
-4.90
-5.61
-6.18
-6.64
-7.08
-7.59
-8.28
-9.19
-10.27
-11.34
-12.10
-12.28
-11.67
-10.28
-8.32
-6.14
-4.05
-2.24
-0.73
0.58
1.78
2.88
3.83
4.50
4.84
4.84
4.58
4.23
3.95
3.88
4.10
4.58
5.22
5.89
6.48
6.94
7.28
7.50
7.54
7.34
6.85
6.07
5.09
4.01
2.95
1.98
1.16
0.49
-0.01
-0.39
-0.72
-1.10
-1.60
-2.24
-2.97
-3.74
-4.50
-5.28
-6.11
-7.05
-8.05
-9.09
-10.12
-11.19
-12.34
-13.60
-14.87
-15.91
-16.41
-16.11
-14.93
-13.00
-10.58
-7.98
-5.44
-3.10
-1.10
0.43
1.40
1.81
1.81
1.71
1.83
2.37
3.28
4.33
5.21
5.72
5.83
5.72
5.60
5.61
5.76
5.98
6.20
6.36
6.51
6.66
6.81
6.86
6.72
6.31
5.67
4.88
4.05
3.24
2.46
1.69
0.91
0.17
-0.50
-1.08
-1.62
-2.24
-2.99
-3.90
-4.89
-5.92
-6.97
-8.14
-9.51
-11.09
-12.67
-13.93
-14.53
-14.25
-13.12
-11.39
-9.34
-7.26
-5.28
-3.45
-1.75
-0.18
1.25
2.49
3.47
4.18
4.62
4.82
4.85
4.78
4.68
4.62
4.65
4.78
5.02
5.33
5.69
6.05
6.40
6.72
6.96
7.07
6.98
6.65
6.08
5.33
4.53
3.77
3.08
2.44
1.80
1.13
0.44
-0.27
-0.99
-1.78
-2.69
-3.72
-4.81
-5.84
-6.74
-7.52
-8.33
-9.36
-10.74
-12.41
-14.13
-15.49
-16.14
-15.85
-14.62
-12.62
-10.12
-7.41
-4.76
-2.38
-0.42
1.03
1.97
2.48
2.72
2.83
2.94
3.08
3.25
3.41
3.54
3.65
3.76
3.94
4.21
4.58
4.97
5.29
5.43
5.37
5.13
4.84
4.58
4.35
4.08
3.65
2.94
1.96
0.82
-0.30
-1.28
-2.06
-2.67
-3.19
-3.73
-4.37
-5.26
-6.48
-8.13
-10.14
-12.28
-14.18
-15.42
-15.68
-14.80
-12.92
-10.30
-7.33
-4.35
-1.64
0.66
2.48
3.85
4.86
5.62
6.19
6.61
6.86
6.89
6.73
6.46
6.20
6.08
6.17
6.44
6.78
7.07
7.22
7.22
7.13
7.02
6.92
6.83
6.67
6.37
5.87
5.17
4.31
3.35
2.32
1.22
0.01
-1.33
-2.80
-4.35
-5.91
-7.42
-8.89
-10.37
-11.87
-13.34
-14.64
-15.54
-15.81
-15.30
-13.98
-11.97
-9.46
-6.68
-3.85
-1.16
1.21
3.11
4.45
5.20
5.43
5.27
4.90
4.48
4.16
4.03
4.10
4.35
4.70
5.10
5.47
5.79
6.07
6.30
6.50
6.64
6.65
6.45
5.99
5.25
4.27
3.13
1.90
0.60
-0.76
-2.18
-3.64
-5.07
-6.42
-7.74
-9.06
-10.48
-11.97
-13.40
-14.46
-14.85
-14.33
-12.85
-10.58
-7.82
-4.92
-2.15
0.32
2.45
4.23
5.67
6.72
7.33
7.51
7.35
6.98
6.57
6.23
6.03
5.97
6.04
6.27
6.65
7.09
7.48
7.68
7.59
7.24
6.72
6.17
5.65
5.14
4.57
3.88
3.04
2.07
0.99
-0.17
-1.40
-2.68
-3.98
-5.23
-6.42
-7.56
-8.76
-10.14
-11.74
-13.51
-15.19
-16.44
-16.87
-16.22
-14.46
-11.79
-8.54
-5.10
-1.75
1.28
3.86
5.89
7.30
8.07
8.30
8.15
7.83
7.53
7.35
7.32
7.45
7.74
8.16
8.64
9.08
9.38
9.46
9.35
9.11
8.85
8.60
8.35
8.00
7.48
6.76
5.85
4.81
3.67
2.42
1.06
-0.42
-1.97
-3.51
-4.99
-6.39
-7.79
-9.27
-10.87
-12.47
-13.82
-14.54
-14.30
-12.94
-10.50
-7.27
-3.69
-0.20
2.84
5.21
6.91
8.01
8.64
8.93
8.95
8.76
8.46
8.17
7.98
7.99
8.18
8.50
8.81
9.02
9.05
8.94
8.75
8.54
8.35
8.18
7.97
7.62
7.07
6.25
5.17
3.86
2.40
0.91
-0.51
-1.80
-3.00
-4.19
-5.53
-7.10
-8.94
-10.89
-12.73
-14.16
-14.91
-14.78
-13.68
-11.65
-8.84
-5.52
-2.07
1.16
3.84
5.81
7.05
7.64
7.73
7.49
7.08
6.69
6.50
6.60
7.03
7.68
8.34
8.84
9.05
8.99
8.75
8.45
8.16
7.89
7.60
7.22
6.70
5.98
5.04
3.86
2.46
0.91
-0.67
-2.17
-3.56
-4.89
-6.30
-7.98
-9.98
-12.19
-14.27
-15.81
-16.41
-15.87
-14.25
-11.81
-8.95
-6.03
-3.30
-0.85
1.33
3.29
5.01
6.39
7.33
7.78
7.85
7.73
7.62
7.68
7.91
8.27
8.65
9.00
9.29
9.52
9.69
9.77
9.74
9.59
9.33
8.98
8.50
7.85
6.97
5.82
4.43
2.85
1.20
-0.44
-1.95
-3.31
-4.57
-5.85
-7.30
-8.99
-10.87
-12.77
-14.44
-15.63
-16.14
-15.85
-14.72
-12.77
-10.08
-6.87
-3.42
-0.08
2.82
5.05
6.57
7.48
8.01
8.43
8.87
9.42
10.01
10.57
10.99
11.26
11.40
11.48
11.59
11.78
12.05
12.35
12.62
12.79
12.80
12.60
12.17
11.51
10.63
9.63
8.60
7.63
6.79
6.02
5.21
4.23
3.00
1.56
0.01
-1.50
-2.88
-4.10
-5.22
-6.35
-7.61
-9.08
-10.82
-12.77
-14.74
-16.42
-17.47
-17.60
-16.72
-14.92
-12.49
-9.74
-6.91
-4.12
-1.44
1.10
3.38
5.28
6.67
7.51
7.91
8.03
8.11
8.34
8.80
9.49
10.32
11.16
11.87
12.39
12.68
12.78
12.76
12.70
12.62
12.53
12.40
12.22
11.96
11.60
11.10
10.44
9.59
8.57
7.47
6.43
5.55
4.88
4.34
3.78
3.00
1.89
0.48
-1.10
-2.66
-4.03
-5.14
-6.05
-6.89
-7.80
-8.89
-10.19
-11.69
-13.35
-15.10
-16.79
-18.19
-19.00
-18.89
-17.66
-15.35
-12.21
-8.72
-5.36
-2.48
-0.23
1.50
2.90
4.12
5.21
6.09
6.64
6.82
6.72
6.53
6.47
6.69
7.16
7.76
8.31
8.72
8.95
9.08
9.17
9.29
9.41
9.48
9.42
9.22
8.87
8.42
7.88
7.24
6.47
5.57
4.62
3.74
3.10
2.78
2.71
2.69
2.42
1.68
0.42
-1.22
-2.97
-4.56
-5.85
-6.81
-7.58
-8.37
-9.37
-10.70
-12.38
-14.26
-16.07
-17.45
-18.06
-17.70
-16.30
-14.02
-11.14
-8.02
-5.00
-2.33
-0.17
1.50
2.76
3.73
4.53
5.17
5.64
5.91
6.02
6.08
6.19
6.39
6.69
7.04
7.38
7.70
8.05
8.43
8.84
9.22
9.46
9.52
9.40
9.15
8.81
8.38
7.84
7.16
6.38
5.57
4.81
4.11
3.40
2.59
1.61
0.50
-0.63
-1.62
-2.41
-3.05
-3.68
-4.44
-5.42
-6.58
-7.79
-8.94
-10.02
-11.07
-12.19
-13.38
-14.56
-15.48
-15.90
-15.62
-14.59
-12.90
-10.78
-8.44
-6.11
-3.92
-1.97
-0.29
1.07
2.11
2.82
3.22
3.36
3.33
3.24
3.22
3.38
3.77
4.34
4.97
5.47
5.75
5.78
5.68
5.60
5.69
5.98
6.37
6.72
6.86
6.66
6.12
5.31
4.38
3.48
2.74
2.20
1.84
1.54
1.18
0.65
-0.06
-0.89
-1.72
-2.50
-3.24
-4.01
-4.87
-5.84
-6.91
-8.06
-9.31
-10.64
-11.98
-13.16
-13.89
-13.92
-13.08
-11.42
-9.21
-6.81
-4.55
-2.65
-1.15
0.00
0.88
1.54
1.99
2.26
2.39
2.46
2.55
2.71
2.97
3.28
3.60
3.90
4.15
4.37
4.58
4.77
4.96
5.17
5.41
5.67
5.88
5.94
5.74
5.26
4.52
3.65
2.78
2.01
1.37
0.83
0.33
-0.21
-0.82
-1.51
-2.27
-3.06
-3.84
-4.59
-5.30
-6.00
-6.76
-7.68
-8.86
-10.32
-12.01
-13.74
-15.28
-16.36
-16.77
-16.42
-15.33
-13.64
-11.51
-9.15
-6.70
-4.30
-2.05
-0.04
1.63
2.83
3.50
3.65
3.35
2.81
2.25
1.89
1.89
2.28
3.00
3.88
4.75
5.41
5.77
5.83
5.63
5.28
4.85
4.38
3.90
3.45
3.06
2.75
2.48
2.15
1.65
0.86
-0.18
-1.37
-2.52
-3.51
-4.27
-4.88
-5.49
-6.26
-7.30
-8.65
-10.26
-12.00
-13.66
-15.00
-15.79
-15.86
-15.15
-13.73
-11.72
-9.29
-6.63
-3.93
-1.36
0.87
2.63
3.84
4.56
4.92
5.07
5.15
5.18
5.11
4.91
4.59
4.25
4.04
4.11
4.49
5.10
5.78
6.32
6.56
6.47
6.14
5.71
5.32
5.03
4.80
4.52
4.09
3.52
2.87
2.24
1.66
1.03
0.21
-0.91
-2.29
-3.75
-5.01
-5.92
-6.46
-6.83
-7.31
-8.18
-9.53
-11.31
-13.27
-15.11
-16.51
-17.21
-17.06
-16.08
-14.38
-12.16
-9.65
-7.06
-4.54
-2.24
-0.23
1.41
2.65
3.49
3.98
4.19
4.23
4.21
4.23
4.32
4.49
4.70
4.94
5.20
5.51
5.88
6.26
6.57
6.73
6.74
6.63
6.46
6.26
5.96
5.51
4.87
4.10
3.29
2.52
1.77
0.94
-0.08
-1.32
-2.69
-4.00
-5.07
-5.85
-6.43
-6.99
-7.79
-8.94
-10.48
-12.27
-14.05
-15.50
-16.33
-16.32
-15.39
-13.57
-11.00
-7.95
-4.76
-1.78
0.66
2.36
3.31
3.68
3.76
3.86
4.12
4.55
5.06
5.56
6.02
6.47
6.94
7.40
7.78
8.01
8.09
8.09
8.07
8.07
8.06
7.96
7.71
7.33
6.82
6.23
5.54
4.73
3.78
2.72
1.59
0.42
-0.81
-2.13
-3.51
-4.85
-5.99
-6.80
-7.26
-7.57
-8.05
-9.03
-10.69
-12.93
-15.36
-17.44
-18.63
-18.60
-17.30
-14.97
-11.96
-8.69
-5.48
-2.60
-0.23
1.51
2.60
3.15
3.39
3.61
4.03
4.74
5.67
6.63
7.45
8.01
8.25
8.22
7.99
7.69
7.45
7.41
7.64
8.09
8.64
9.09
9.29
9.18
8.79
8.20
7.50
6.71
5.87
5.00
4.14
3.34
2.62
1.98
1.37
0.72
-0.01
-0.84
-1.85
-3.13
-4.77
-6.75
-8.89
-10.81
-12.08
-12.37
-11.51
-9.64
-7.07
-4.22
-1.44
1.04
3.10
4.70
5.82
6.52
6.88
6.99
6.96
6.87
6.80
6.78
6.83
6.96
7.16
7.39
7.59
7.72
7.75
7.69
7.60
7.54
7.54
7.56
7.53
7.34
6.92
6.29
5.50
4.68
3.90
3.19
2.55
1.92
1.25
0.49
-0.35
-1.25
-2.15
-2.98
-3.74
-4.49
-5.33
-6.35
-7.56
-8.81
-9.88
-10.46
-10.31
-9.35
-7.70
-5.60
-3.36
-1.22
0.70
2.35
3.73
4.80
5.48
5.75
5.62
5.24
4.81
4.52
4.47
4.63
4.89
5.09
5.18
5.15
5.06
4.98
4.95
4.95
4.96
4.94
4.83
4.64
4.36
4.00
3.57
3.04
2.36
1.56
0.68
-0.18
-0.95
-1.61
-2.24
-2.94
-3.82
-4.94
-6.29
-7.84
-9.55
-11.32
-12.94
-14.12
-14.49
-13.84
-12.13
-9.62
-6.74
-3.97
-1.65
0.06
1.21
1.92
2.35
2.57
2.61
2.51
2.33
2.17
2.15
2.33
2.70
3.17
3.63
4.02
4.36
4.71
5.10
5.45
5.61
5.42
4.81
3.87
2.81
1.82
0.97
0.23
-0.50
-1.26
-2.06
-2.84
-3.61
-4.50
-5.68
-7.23
-9.05
-10.78
-11.97
-12.25
-11.48
-9.82
-7.61
-5.26
-3.08
-1.22
0.31
1.55
2.56
3.40
4.07
4.58
4.90
4.99
4.84
4.49
4.05
3.63
3.37
3.31
3.40
3.53
3.56
3.43
3.13
2.72
2.29
1.91
1.60
1.32
0.99
0.52
-0.14
-0.99
-2.01
-3.14
-4.34
-5.63
-7.03
-8.53
-10.05
-11.44
-12.48
-12.98
-12.83
-11.98
-10.50
-8.56
-6.34
-4.04
-1.84
0.14
1.77
3.01
3.81
4.22
4.31
4.25
4.20
4.28
4.55
4.96
5.39
5.72
5.83
5.71
5.42
5.07
4.76
4.58
4.52
4.48
4.34
3.97
3.35
2.54
1.67
0.86
0.20
-0.33
-0.78
-1.24
-1.80
-2.59
-3.73
-5.28
-7.22
-9.36
-11.38
-12.89
-13.62
-13.43
-12.37
-10.69
-8.64
-6.46
-4.29
-2.23
-0.29
1.46
2.99
4.26
5.27
6.06
6.65
7.07
7.30
7.33
7.20
7.01
6.92
7.06
7.48
8.09
8.74
9.26
9.55
9.58
9.39
9.01
8.49
7.84
7.08
6.25
5.43
4.63
3.87
3.13
2.37
1.56
0.67
-0.33
-1.39
-2.47
-3.47
-4.32
-5.01
-5.61
-6.30
-7.27
-8.61
-10.32
-12.16
-13.78
-14.79
-14.91
-14.06
-12.42
-10.28
-7.98
-5.77
-3.74
-1.88
-0.14
1.44
2.74
3.63
4.09
4.24
4.31
4.54
5.01
5.63
6.22
6.61
6.75
6.76
6.82
7.04
7.38
7.73
7.90
7.79
7.41
6.86
6.28
5.78
5.38
5.09
4.86
4.66
4.50
4.37
4.25
4.10
3.84
3.37
2.63
1.61
0.39
-0.91
-2.13
-3.21
-4.15
-5.02
-5.95
-7.04
-8.39
-9.97
-11.68
-13.30
-14.57
-15.19
-14.93
-13.72
-11.68
-9.12
-6.44
-4.00
-2.04
-0.59
0.47
1.32
2.11
2.92
3.72
4.48
5.17
5.76
6.27
6.67
6.94
7.09
7.16
7.23
7.38
7.68
8.11
8.60
9.04
9.32
9.36
9.13
8.65
7.96
7.15
6.32
5.58
4.99
4.56
4.23
3.88
3.39
2.69
1.78
0.75
-0.26
-1.17
-1.92
-2.57
-3.24
-4.04
-5.06
-6.30
-7.72
-9.22
-10.72
-12.15
-13.43
-14.48
-15.13
-15.17
-14.42
-12.82
-10.52
-7.83
-5.13
-2.77
-0.90
0.51
1.58
2.45
3.18
3.80
4.30
4.69
5.04
5.41
5.82
6.25
6.64
6.97
7.22
7.41
7.53
7.61
7.66
7.71
7.78
7.85
7.90
7.83
7.59
7.11
6.40
5.50
4.48
3.44
2.46
1.63
0.95
0.43
0.01
-0.37
-0.74
-1.15
-1.61
-2.19
-2.93
-3.85
-4.92
-6.01
-7.04
-7.95
-8.86
-9.91
-11.19
-12.65
-14.06
-15.04
-15.29
-14.67
-13.26
-11.30
-9.08
-6.82
-4.65
-2.61
-0.76
0.87
2.17
3.06
3.54
3.67
3.59
3.50
3.52
3.74
4.15
4.69
5.24
5.71
6.05
6.23
6.32
6.40
6.54
6.74
6.92
6.97
6.80
6.46
6.03
5.67
5.43
5.28
5.08
4.69
4.08
3.31
2.52
1.85
1.35
0.95
0.52
-0.09
-0.94
-2.02
-3.17
-4.23
-5.07
-5.69
-6.26
-7.07
-8.34
-10.10
-12.13
-13.96
-15.06
-15.06
-13.89
-11.79
-9.22
-6.66
-4.43
-2.61
-1.12
0.22
1.54
2.84
4.03
4.94
5.48
5.64
5.54
5.33
5.16
5.15
5.34
5.74
6.31
6.97
7.60
8.11
8.38
8.37
8.06
7.47
6.71
5.91
5.19
4.69
4.44
4.36
4.33
4.16
3.78
3.17
2.39
1.54
0.68
-0.18
-1.03
-1.83
-2.52
-3.09
-3.53
-3.95
-4.48
-5.22
-6.22
-7.45
-8.87
-10.38
-11.80
-12.88
-13.30
-12.81
-11.30
-8.92
-6.08
-3.23
-0.79
1.05
2.32
3.14
3.68
4.03
4.23
4.26
4.15
3.91
3.60
3.23
2.85
2.53
2.35
2.37
2.61
2.98
3.40
3.74
3.98
4.11
4.16
4.10
3.91
3.54
3.00
2.30
1.53
0.73
-0.06
-0.84
-1.63
-2.45
-3.28
-4.14
-5.00
-5.85
-6.67
-7.48
-8.31
-9.28
-10.46
-11.83
-13.18
-14.17
-14.43
-13.73
-12.08
-9.74
-7.11
-4.56
-2.28
-0.31
1.43
2.99
4.37
5.45
6.08
6.16
5.70
4.86
3.89
3.12
2.78
2.92
3.42
4.05
4.56
4.86
5.02
5.16
5.37
5.59
5.62
5.32
4.68
3.88
3.21
2.83
2.72
2.64
2.31
1.59
0.56
-0.57
-1.59
-2.43
-3.16
-3.93
-4.80
-5.75
-6.67
-7.47
-8.17
-8.92
-9.97
-11.45
-13.33
-15.33
-16.98
-17.80
-17.47
-15.96
-13.53
-10.60
-7.60
-4.84
-2.47
-0.55
0.94
2.03
2.82
3.47
4.10
4.79
5.47
6.01
6.27
6.23
5.98
5.73
5.63
5.73
5.94
6.13
6.21
6.16
6.00
5.78
5.50
5.13
4.67
4.07
3.34
2.46
1.48
0.47
-0.47
-1.25
-1.88
-2.42
-3.02
-3.80
-4.84
-6.10
-7.55
-9.11
-10.75
-12.44
-14.10
-15.54
-16.51
-16.75
-16.10
-14.58
-12.35
-9.68
-6.86
-4.08
-1.50
0.84
2.88
4.58
5.86
6.69
7.10
7.17
7.08
6.98
6.99
7.13
7.37
7.66
7.95
8.24
8.54
8.84
9.13
9.35
9.47
9.44
9.23
8.85
8.32
7.68
6.99
6.30
5.65
5.05
4.45
3.84
3.19
2.51
1.81
1.03
0.12
-0.98
-2.28
-3.68
-5.05
-6.29
-7.39
-8.48
-9.75
-11.39
-13.41
-15.61
-17.62
-18.98
-19.33
-18.52
-16.63
-13.92
-10.80
-7.61
-4.61
-1.95
0.32
2.20
3.72
4.91
5.82
6.50
6.98
7.26
7.38
7.40
7.45
7.66
8.12
8.79
9.52
10.12
10.40
10.31
9.95
9.49
9.14
8.99
9.00
9.04
8.93
8.58
7.97
7.18
6.34
5.49
4.65
3.72
2.61
1.29
-0.16
-1.62
-2.92
-3.98
-4.78
-5.46
-6.17
-7.06
-8.22
-9.66
-11.35
-13.13
-14.79
-16.07
-16.65
-16.31
-14.97
-12.74
-9.93
-6.91
-4.02
-1.49
0.60
2.28
3.62
4.69
5.53
6.16
6.63
6.97
7.22
7.42
7.61
7.84
8.14
8.55
9.03
9.53
9.99
10.34
10.59
10.75
10.80
10.71
10.41
9.85
9.11
8.32
7.63
7.13
6.77
6.40
5.84
5.01
3.96
2.81
1.68
0.65
-0.28
-1.13
-1.92
-2.64
-3.30
-3.98
-4.79
-5.87
-7.28
-8.99
-10.85
-12.68
-14.30
-15.53
-16.19
-16.08
-15.04
-13.04
-10.23
-6.97
-3.71
-0.83
1.46
3.14
4.32
5.12
5.66
5.97
6.10
6.12
6.11
6.13
6.21
6.36
6.57
6.87
7.32
7.89
8.49
8.98
9.19
9.10
8.80
8.48
8.31
8.36
8.50
8.54
8.28
7.64
6.70
5.64
4.62
3.72
2.96
2.26
1.54
0.72
-0.22
-1.31
-2.51
-3.75
-4.94
-5.99
-6.90
-7.77
-8.77
-10.05
-11.66
-13.46
-15.14
-16.32
-16.66
-16.00
-14.37
-11.99
-9.19
-6.35
-3.78
-1.66
0.00
1.33
2.45
3.50
4.48
5.32
5.95
6.35
6.60
6.82
7.16
7.63
8.18
8.65
8.90
8.89
8.72
8.56
8.58
8.81
9.12
9.31
9.18
8.66
7.84
6.92
6.08
5.42
4.91
4.44
3.90
3.24
2.47
1.62
0.69
-0.30
-1.34
-2.32
-3.14
-3.75
-4.21
-4.72
-5.56
-6.91
-8.77
-10.92
-12.93
-14.41
-15.04
-14.73
-13.56
-11.72
-9.46
-6.99
-4.51
-2.18
-0.15
1.45
2.59
3.30
3.69
3.90
4.06
4.25
4.52
4.84
5.19
5.48
5.67
5.75
5.75
5.75
5.85
6.12
6.54
7.04
7.45
7.61
7.46
7.00
6.35
5.64
4.99
4.45
4.01
3.63
3.21
2.72
2.10
1.37
0.52
-0.42
-1.46
-2.53
-3.59
-4.54
-5.34
-5.97
-6.51
-7.16
-8.07
-9.37
-10.96
-12.60
-13.85
-14.31
-13.72
-12.09
-9.68
-6.92
-4.22
-1.89
-0.02
1.40
2.45
3.21
3.69
3.87
3.79
3.54
3.25
3.08
3.13
3.43
3.87
4.32
4.68
4.94
5.21
5.63
6.30
7.15
7.98
8.52
8.53
7.94
6.85
5.50
4.16
3.04
2.19
1.55
0.99
0.42
-0.18
-0.79
-1.37
-1.94
-2.57
-3.33
-4.28
-5.37
-6.52
-7.66
-8.76
-9.87
-11.07
-12.33
-13.51
-14.34
-14.54
-13.91
-12.42
-10.26
-7.71
-5.07
-2.55
-0.28
1.69
3.29
4.44
5.05
5.09
4.66
3.93
3.17
2.58
2.29
2.32
2.61
3.12
3.76
4.47
5.18
5.78
6.19
6.35
6.29
6.05
5.72
5.37
5.00
4.57
4.03
3.34
2.48
1.49
0.41
-0.68
-1.70
-2.61
-3.40
-4.08
-4.75
-5.52
-6.46
-7.59
-8.83
-10.00
-10.83
-11.09
-10.58
-9.28
-7.33
-5.03
-2.72
-0.68
0.95
2.19
3.14
3.84
4.29
4.46
4.32
3.96
3.53
3.18
3.00
2.94
2.90
2.85
2.80
2.88
3.21
3.83
4.57
5.19
5.42
5.15
4.43
3.51
2.64
1.99
1.58
1.24
0.76
0.00
-1.05
-2.26
-3.47
-4.54
-5.45
-6.29
-7.20
-8.28
-9.58
-11.07
-12.66
-14.21
-15.60
-16.67
-17.23
-17.10
-16.18
-14.44
-12.03
-9.22
-6.33
-3.66
-1.41
0.34
1.61
2.50
3.13
3.62
4.04
4.40
4.70
4.92
5.04
5.09
5.10
5.12
5.19
5.37
5.67
6.12
6.69
7.32
7.87
8.18
8.11
7.60
6.74
5.69
4.65
3.78
3.11
2.51
1.82
0.87
-0.37
-1.78
-3.15
-4.33
-5.26
-6.07
-6.99
-8.24
-9.94
-12.05
-14.32
-16.44
-18.02
-18.76
-18.46
-17.10
-14.81
-11.87
-8.66
-5.53
-2.73
-0.41
1.42
2.83
3.92
4.80
5.53
6.16
6.70
7.15
7.50
7.76
7.93
7.99
7.96
7.83
7.68
7.59
7.63
7.83
8.14
8.45
8.63
8.60
8.34
7.82
7.06
6.10
4.99
3.81
2.68
1.61
0.59
-0.45
-1.56
-2.72
-3.83
-4.86
-5.88
-7.06
-8.61
-10.60
-12.89
-15.17
-17.09
-18.32
-18.70
-18.18
-16.80
-14.68
-11.98
-8.93
-5.79
-2.84
-0.24
1.95
3.74
5.21
6.38
7.30
8.00
8.53
8.95
9.31
9.62
9.87
10.06
10.22
10.44
10.79
11.30
11.91
12.49
12.86
12.86
12.42
11.61
10.51
9.33
8.21
7.23
6.44
5.78
5.17
4.48
3.58
2.41
0.96
-0.70
-2.42
-4.03
-5.38
-6.43
-7.28
-8.12
-9.17
-10.59
-12.45
-14.63
-16.84
-18.67
-19.68
-19.49
-17.93
-15.13
-11.48
-7.52
-3.77
-0.58
1.90
3.74
5.04
5.92
6.47
6.76
6.97
7.25
7.76
8.53
9.45
10.32
10.92
11.13
11.03
10.81
10.71
10.92
11.41
12.05
12.56
12.73
12.42
11.69
10.68
9.58
8.51
7.56
6.70
5.86
4.96
3.91
2.66
1.21
-0.34
-1.85
-3.18
-4.33
-5.37
-6.52
-7.94
-9.72
-11.76
-13.81
-15.52
-16.55
-16.65
-15.70
-13.82
-11.25
-8.34
-5.43
-2.75
-0.41
1.59
3.29
4.72
5.90
6.82
7.48
7.87
8.01
7.97
7.85
7.84
8.07
8.59
9.31
10.09
10.77
11.30
11.73
12.09
12.37
12.42
12.10
11.36
10.29
9.11
8.06
7.27
6.74
6.37
6.02
5.52
4.73
3.53
1.89
-0.04
-1.97
-3.57
-4.64
-5.22
-5.60
-6.20
-7.33
-9.10
-11.29
-13.49
-15.18
-15.91
-15.39
-13.61
-10.80
-7.37
-3.80
-0.48
2.32
4.53
6.15
7.27
8.00
8.43
8.68
8.85
9.00
9.15
9.28
9.37
9.41
9.45
9.47
9.48
9.48
9.49
9.54
9.65
9.78
9.83
9.70
9.32
8.73
7.99
7.14
6.17
5.04
3.72
2.23
0.72
-0.67
-1.83
-2.77
-3.63
-4.56
-5.71
-7.13
-8.77
-10.51
-12.17
-13.52
-14.32
-14.36
-13.49
-11.71
-9.09
-5.92
-2.57
0.53
3.01
4.65
5.47
5.70
5.66
5.64
5.79
6.08
6.39
6.56
6.51
6.23
5.83
5.46
5.27
5.35
5.70
6.22
6.77
7.22
7.51
7.63
7.56
7.24
6.63
5.72
4.55
3.28
2.01
0.79
-0.44
-1.76
-3.18
-4.65
-6.03
-7.27
-8.36
-9.39
-10.43
-11.44
-12.29
-12.77
-12.69
-11.96
-10.56
-8.55
-6.10
-3.45
-0.88
1.34
3.04
4.20
4.90
5.27
5.41
5.35
5.14
4.84
4.52
4.26
4.07
3.91
3.71
3.42
3.09
2.82
2.73
2.86
3.15
3.45
3.57
3.35
2.68
1.54
0.03
-1.63
-3.20
-4.45
-5.32
-5.97
-6.70
-7.82
-9.47
-11.50
-13.53
-15.08
-15.74
-15.30
-13.82
-11.52
-8.74
-5.81
-2.97
-0.45
1.63
3.16
4.12
4.56
4.59
4.41
4.23
4.22
4.44
4.85
5.29
5.64
5.80
5.81
5.74
5.67
5.62
5.53
5.30
4.84
4.12
3.20
2.18
1.16
0.22
-0.59
-1.21
-1.66
-2.00
-2.37
-2.99
-4.05
-5.67
-7.76
-10.11
-12.35
-14.12
-15.13
-15.19
-14.27
-12.46
-10.01
-7.21
-4.39
-1.81
0.39
2.19
3.66
4.88
5.86
6.58
6.98
7.06
6.89
6.60
6.35
6.27
6.38
6.64
6.92
7.13
7.19
7.14
7.03
6.93
6.84
6.72
6.48
6.10
5.54
4.85
4.03
3.11
2.07
0.93
-0.30
-1.56
-2.78
-3.92
-5.01
-6.09
-7.25
-8.53
-9.92
-11.36
-12.72
-13.78
-14.31
-14.09
-12.99
-11.04
-8.46
-5.60
-2.85
-0.50
1.28
2.56
3.46
4.19
4.88
5.54
6.11
6.52
6.74
6.83
6.89
7.03
7.23
7.43
7.51
7.43
7.28
7.22
7.40
7.83
8.32
8.62
8.53
7.98
7.12
6.17
5.32
4.65
4.14
3.67
3.14
2.49
1.67
0.68
-0.43
-1.56
-2.61
-3.49
-4.22
-4.86
-5.56
-6.43
-7.54
-8.87
-10.39
-12.00
-13.56
-14.87
-15.66
-15.71
-14.89
-13.22
-10.96
-8.39
-5.81
-3.40
-1.23
0.67
2.30
3.58
4.43
4.84
4.89
4.76
4.68
4.86
5.34
6.05
6.83
7.50
7.93
8.10
8.07
7.92
7.74
7.59
7.52
7.52
7.57
7.59
7.46
7.12
6.50
5.66
4.69
3.70
2.78
1.90
1.04
0.15
-0.77
-1.67
-2.45
-3.05
-3.48
-3.80
-4.14
-4.64
-5.37
-6.34
-7.51
-8.82
-10.21
-11.59
-12.88
-13.91
-14.50
-14.46
-13.69
-12.22
-10.19
-7.83
-5.39
-3.04
-0.98
0.72
2.02
2.96
3.64
4.18
4.62
4.94
5.07
4.98
4.71
4.43
4.29
4.39
4.68
5.02
5.28
5.43
5.56
5.77
6.09
6.46
6.69
6.59
6.09
5.24
4.20
3.17
2.30
1.65
1.18
0.79
0.38
-0.08
-0.58
-1.06
-1.47
-1.86
-2.32
-2.97
-3.86
-4.93
-6.05
-7.11
-8.10
-9.10
-10.16
-11.25
-12.17
-12.60
-12.29
-11.13
-9.28
-7.06
-4.87
-3.00
-1.60
-0.65
-0.05
0.41
0.90
1.54
2.35
3.18
3.86
4.21
4.22
4.01
3.78
3.73
3.90
4.28
4.74
5.21
5.64
6.03
6.36
6.59
6.68
6.55
6.19
5.62
4.89
4.09
3.34
2.74
2.30
1.97
1.60
1.08
0.35
-0.54
-1.48
-2.37
-3.19
-3.99
-4.82
-5.72
-6.68
-7.65
-8.61
-9.55
-10.49
-11.40
-12.20
-12.74
-12.87
-12.47
-11.49
-10.00
-8.10
-5.97
-3.81
-1.81
-0.10
1.26
2.28
3.02
3.55
3.86
3.95
3.79
3.46
3.10
2.92
3.06
3.51
4.16
4.76
5.15
5.26
5.17
5.03
4.97
4.99
4.98
4.84
4.51
4.05
3.56
3.17
2.90
2.67
2.35
1.80
0.97
-0.07
-1.18
-2.20
-3.00
-3.53
-3.89
-4.19
-4.57
-5.10
-5.76
-6.48
-7.24
-8.00
-8.81
-9.69
-10.56
-11.24
-11.51
-11.14
-10.07
-8.38
-6.27
-4.03
-1.89
-0.05
1.39
2.42
3.01
3.18
2.98
2.50
1.91
1.41
1.15
1.18
1.45
1.84
2.20
2.46
2.62
2.77
2.94
3.16
3.34
3.39
3.27
3.00
2.66
2.35
2.09
1.82
1.44
0.85
0.03
-0.96
-2.01
-3.05
-4.05
-4.98
-5.83
-6.57
-7.17
-7.64
-8.13
-8.81
-9.80
-11.07
-12.38
-13.33
-13.57
-12.87
-11.23
-8.87
-6.12
-3.35
-0.88
1.10
2.50
3.35
3.80
4.00
4.07
4.09
4.07
4.04
4.02
4.07
4.24
4.54
4.92
5.26
5.50
5.63
5.72
5.88
6.14
6.43
6.59
6.44
5.93
5.12
4.23
3.46
2.90
2.51
2.10
1.52
0.71
-0.27
-1.27
-2.20
-3.00
-3.70
-4.34
-4.99
-5.67
-6.43
-7.33
-8.43
-9.79
-11.39
-13.08
-14.62
-15.71
-16.10
-15.65
-14.39
-12.44
-10.02
-7.40
-4.78
-2.40
-0.43
0.99
1.85
2.24
2.35
2.41
2.57
2.86
3.22
3.51
3.64
3.64
3.58
3.60
3.76
4.06
4.42
4.75
5.00
5.17
5.31
5.46
5.58
5.57
5.32
4.76
3.95
2.99
1.99
1.03
0.06
-0.98
-2.15
-3.44
-4.77
-6.04
-7.24
-8.41
-9.63
-10.92
-12.15
-13.10
-13.46
-13.03
-11.76
-9.77
-7.29
-4.62
-1.97
0.46
2.54
4.17
5.30
5.94
6.17
6.15
6.01
5.87
5.77
5.72
5.73
5.83
6.03
6.33
6.70
7.07
7.36
7.55
7.62
7.55
7.35
6.98
6.44
5.78
5.08
4.45
3.96
3.58
3.23
2.80
2.19
1.39
0.40
-0.69
-1.85
-3.03
-4.23
-5.42
-6.61
-7.82
-9.11
-10.53
-12.15
-13.94
-15.72
-17.26
-18.23
-18.35
-17.48
-15.69
-13.20
-10.35
-7.48
-4.84
-2.52
-0.56
1.05
2.30
3.20
3.77
4.11
4.39
4.77
5.34
6.06
6.79
7.37
7.68
7.72
7.56
7.37
7.27
7.35
7.62
8.00
8.36
8.55
8.47
8.07
7.40
6.56
5.62
4.62
3.53
2.36
1.14
-0.04
-1.09
-1.97
-2.73
-3.49
-4.38
-5.50
-6.84
-8.37
-10.04
-11.83
-13.67
-15.41
-16.78
-17.44
-17.16
-15.89
-13.79
-11.18
-8.38
-5.61
-2.99
-0.52
1.75
3.73
5.33
6.47
7.16
7.47
7.54
7.53
7.54
7.67
7.92
8.26
8.59
8.83
8.90
8.78
8.56
8.34
8.25
8.37
8.65
8.95
9.08
8.88
8.28
7.36
6.29
5.27
4.38
3.58
2.74
1.75
0.56
-0.79
-2.20
-3.58
-4.92
-6.22
-7.53
-8.85
-10.17
-11.53
-13.00
-14.58
-16.15
-17.45
-18.06
-17.62
-15.97
-13.23
-9.81
-6.23
-2.93
-0.17
2.01
3.72
5.09
6.18
6.99
7.48
7.66
7.59
7.40
7.23
7.18
7.29
7.57
7.98
8.50
9.12
9.83
10.57
11.25
11.73
11.85
11.51
10.74
9.68
8.57
7.61
6.86
6.25
5.62
4.82
3.77
2.49
1.09
-0.33
-1.70
-2.98
-4.13
-5.13
-5.98
-6.76
-7.63
-8.80
-10.39
-12.38
-14.52
-16.47
-17.82
-18.26
-17.65
-16.05
-13.64
-10.70
-7.50
-4.28
-1.26
1.38
3.50
5.03
6.01
6.57
6.89
7.13
7.39
7.66
7.89
8.05
8.17
8.35
8.67
9.17
9.76
10.31
10.69
10.85
10.80
10.59
10.27
9.83
9.21
8.39
7.43
6.41
5.47
4.71
4.14
3.66
3.13
2.43
1.52
0.42
-0.85
-2.22
-3.66
-5.07
-6.39
-7.57
-8.65
-9.80
-11.18
-12.91
-14.86
-16.69
-17.96
-18.26
-17.40
-15.47
-12.78
-9.76
-6.77
-4.00
-1.49
0.81
2.93
4.79
6.25
7.13
7.41
7.25
6.96
6.84
7.09
7.70
8.52
9.36
10.07
10.60
10.95
11.17
11.28
11.34
11.40
11.48
11.51
11.40
11.05
10.45
9.65
8.79
7.91
7.01
6.00
4.87
3.67
2.52
1.51
0.60
-0.31
-1.38
-2.64
-3.99
-5.27
-6.35
-7.27
-8.23
-9.46
-11.11
-13.15
-15.33
-17.27
-18.57
-18.94
-18.25
-16.55
-14.04
-10.99
-7.67
-4.36
-1.30
1.32
3.37
4.78
5.63
6.08
6.34
6.56
6.81
7.07
7.32
7.58
7.91
8.37
8.90
9.40
9.70
9.71
9.49
9.22
9.05
9.10
9.30
9.48
9.45
9.09
8.36
7.39
6.31
5.29
4.40
3.63
2.90
2.10
1.18
0.17
-0.85
-1.75
-2.49
-3.10
-3.73
-4.57
-5.74
-7.28
-9.14
-11.17
-13.19
-15.00
-16.39
-17.14
-17.06
-16.03
-14.06
-11.31
-8.08
-4.71
-1.55
1.18
3.36
5.01
6.21
7.00
7.40
7.42
7.11
6.59
6.07
5.75
5.76
6.06
6.54
7.02
7.40
7.68
7.96
8.32
8.74
9.10
9.20
8.94
8.27
7.31
6.22
5.22
4.43
3.91
3.59
3.29
2.81
1.97
0.72
-0.84
-2.50
-4.00
-5.16
-5.99
-6.62
-7.26
-8.12
-9.27
-10.72
-12.43
-14.31
-16.21
-17.87
-18.92
-18.94
-17.68
-15.16
-11.76
-8.04
-4.63
-1.86
0.20
1.76
3.06
4.28
5.38
6.25
6.80
7.02
7.02
6.95
6.90
6.92
7.00
7.13
7.32
7.64
8.10
8.69
9.33
9.84
10.10
10.01
9.56
8.79
7.82
6.81
5.87
5.09
4.47
3.93
3.35
2.57
1.51
0.20
-1.25
-2.66
-3.88
-4.83
-5.59
-6.34
-7.31
-8.64
-10.40
-12.46
-14.58
-16.45
-17.76
-18.26
-17.82
-16.46
-14.31
-11.62
-8.66
-5.70
-2.94
-0.54
1.44
2.97
4.05
4.74
5.12
5.27
5.30
5.26
5.24
5.33
5.60
6.10
6.83
7.67
8.44
8.92
9.00
8.71
8.22
7.74
7.40
7.18
6.98
6.65
6.11
5.30
4.27
3.05
1.70
0.31
-1.01
-2.15
-3.01
-3.59
-4.00
-4.43
-5.14
-6.29
-7.97
-10.06
-12.27
-14.20
-15.38
-15.47
-14.37
-12.23
-9.42
-6.35
-3.38
-0.73
1.52
3.32
4.67
5.62
6.24
6.63
6.89
7.05
7.09
6.98
6.74
6.46
6.30
6.39
6.72
7.22
7.73
8.16
8.45
8.59
8.54
8.23
7.60
6.65
5.53
4.46
3.65
3.21
3.04
2.94
2.62
1.85
0.55
-1.18
-3.11
-4.98
-6.52
-7.64
-8.39
-8.92
-9.47
-10.24
-11.34
-12.83
-14.68
-16.72
-18.65
-20.08
-20.54
-19.75
-17.68
-14.59
-10.98
-7.36
-4.08
-1.31
0.93
2.70
4.00
4.83
5.21
5.25
5.16
5.17
5.43
5.97
6.67
7.34
7.83
8.10
8.23
8.36
8.59
8.87
9.07
9.03
8.68
8.09
7.42
6.81
6.29
5.75
5.03
4.04
2.82
1.52
0.31
-0.68
-1.43
-2.01
-2.55
-3.24
-4.27
-5.80
-7.89
-10.39
-13.00
-15.28
-16.81
-17.25
-16.47
-14.52
-11.64
-8.18
-4.59
-1.29
1.45
3.47
4.80
5.57
5.92
6.01
5.94
5.82
5.74
5.73
5.79
5.89
5.99
6.13
6.36
6.75
7.32
8.00
8.65
9.14
9.34
9.22
8.80
8.11
7.20
6.11
4.93
3.73
2.63
1.67
0.82
-0.03
-1.01
-2.23
-3.72
-5.39
-7.12
-8.77
-10.27
-11.57
-12.63
-13.33
-13.49
-12.91
-11.46
-9.21
-6.45
-3.54
-0.85
1.45
3.30
4.75
5.81
6.41
6.48
6.02
5.19
4.30
3.63
3.35
3.45
3.77
4.15
4.45
4.65
4.76
4.80
4.79
4.73
4.61
4.40
4.03
3.42
2.45
1.13
-0.44
-2.06
-3.47
-4.53
-5.22
-5.75
-6.42
-7.54
-9.33
-11.76
-14.58
-17.29
-19.34
-20.25
-19.76
-17.92
-15.00
-11.43
-7.69
-4.15
-1.05
1.53
3.60
5.23
6.45
7.30
7.81
8.08
8.22
8.34
8.47
8.57
8.59
8.53
8.50
8.65
9.12
9.85
10.65
11.21
11.29
10.81
9.82
8.49
6.99
5.46
3.97
2.59
1.33
0.19
-0.94
-2.16
-3.56
-5.16
-6.88
-8.62
-10.28
-11.90
-13.59
-15.49
-17.71
-20.23
-22.81
-25.00
-26.30
-26.26
-24.74
-21.91
-18.22
-14.17
-10.15
-6.35
-2.82
0.41
3.27
5.61
7.34
8.47
9.10
9.44
9.65
9.90
10.26
10.81
11.55
12.42
13.33
14.15
14.79
15.16
15.21
14.91
14.25
13.27
12.07
10.88
9.92
9.35
9.19
9.29
9.35
9.09
8.31
6.97
5.21
3.26
1.35
-0.34
-1.76
-2.97
-4.12
-5.42
-7.05
-9.11
-11.58
-14.25
-16.73
-18.56
-19.31
-18.74
-16.81
-13.78
-10.07
-6.12
-2.38
0.86
3.42
5.29
6.58
7.47
8.13
8.68
9.18
9.66
10.13
10.62
11.14
11.65
12.08
12.28
12.20
11.90
11.54
11.35
11.47
11.88
12.37
12.67
12.53
11.89
10.78
9.37
7.83
6.30
4.90
3.68
2.62
1.65
0.69
-0.39
-1.63
-3.06
-4.65
-6.39
-8.31
-10.45
-12.80
-15.26
-17.58
-19.41
-20.35
-20.12
-18.60
-15.92
-12.46
-8.69
-5.05
-1.80
1.03
3.54
5.82
7.85
9.51
10.63
11.20
11.34
11.28
11.24
11.34
11.54
11.70
11.75
11.64
11.47
11.31
11.23
11.21
11.16
10.93
10.44
9.68
8.74
7.78
6.95
6.29
5.70
5.01
4.00
2.61
0.90
-0.96
-2.79
-4.48
-6.03
-7.54
-9.08
-10.71
-12.42
-14.18
-15.93
-17.60
-19.03
-19.97
-20.12
-19.22
-17.17
-14.10
-10.34
-6.32
-2.42
1.08
4.03
6.38
8.12
9.26
9.80
9.80
9.35
8.61
7.76
7.00
6.49
6.35
6.61
7.22
8.06
8.96
9.76
10.28
10.40
10.06
9.29
8.20
6.97
5.73
4.59
3.55
2.58
1.59
0.50
-0.73
-2.16
-3.79
-5.63
-7.60
-9.63
-11.62
-13.43
-14.87
-15.72
-15.75
-14.79
-12.82
-10.00
-6.69
-3.31
-0.19
2.48
4.66
6.37
7.61
8.33
8.49
8.12
7.41
6.64
6.09
5.94
6.19
6.66
7.18
7.59
7.85
8.02
8.16
8.28
8.30
8.09
7.57
6.76
5.75
4.67
3.62
2.61
1.60
0.53
-0.63
-1.85
-3.08
-4.33
-5.66
-7.19
-9.03
-11.22
-13.62
-15.96
-17.88
-19.00
-19.07
-17.99
-15.87
-12.96
-9.61
-6.17
-2.93
-0.07
2.30
4.16
5.55
6.53
7.17
7.56
7.78
7.91
8.01
8.14
8.35
8.67
9.11
9.66
10.31
10.97
11.54
11.91
12.00
11.80
11.37
10.78
10.14
9.50
8.84
8.14
7.33
6.39
5.29
4.03
2.59
0.99
-0.67
-2.26
-3.66
-4.80
-5.77
-6.77
-8.06
-9.85
-12.15
-14.82
-17.52
-19.84
-21.39
-21.86
-21.08
-19.09
-16.10
-12.45
-8.58
-4.86
-1.58
1.14
3.32
5.03
6.38
7.42
8.20
8.73
9.06
9.24
9.33
9.37
9.38
9.40
9.41
9.45
9.53
9.66
9.85
10.05
10.20
10.18
9.90
9.35
8.59
7.78
7.07
6.56
6.22
5.90
5.37
4.46
3.12
1.47
-0.29
-1.92
-3.30
-4.43
-5.43
-6.47
-7.70
-9.19
-10.93
-12.83
-14.74
-16.48
-17.81
-18.50
-18.34
-17.20
-15.08
-12.15
-8.76
-5.31
-2.16
0.45
2.46
3.92
4.94
5.61
5.99
6.15
6.18
6.20
6.31
6.53
6.80
7.03
7.14
7.15
7.16
7.28
7.54
7.91
8.25
8.39
8.25
7.81
7.14
6.41
5.76
5.23
4.81
4.38
3.82
3.06
2.16
1.23
0.38
-0.36
-1.04
-1.80
-2.75
-3.94
-5.34
-6.89
-8.53
-10.20
-11.81
-13.19
-14.06
-14.16
-13.34
-11.63
-9.22
-6.43
-3.54
-0.79
1.69
3.80
5.46
6.63
7.29
7.49
7.33
6.97
6.51
6.04
5.64
5.35
5.24
5.36
5.68
6.10
6.48
6.66
6.55
6.18
5.68
5.18
4.76
4.40
4.00
3.42
2.61
1.59
0.46
-0.67
-1.71
-2.61
-3.38
-4.01
-4.54
-5.03
-5.62
-6.48
-7.76
-9.42
-11.28
-12.96
-14.05
-14.23
-13.41
-11.72
-9.45
-6.95
-4.49
-2.28
-0.36
1.23
2.50
3.45
4.08
4.35
4.27
3.90
3.36
2.80
2.39
2.24
2.31
2.46
2.55
2.47
2.24
1.99
1.86
1.94
2.16
2.36
2.39
2.12
1.56
0.80
-0.09
-1.03
-2.05
-3.16
-4.33
-5.51
-6.61
-7.58
-8.47
-9.35
-10.33
-11.45
-12.60
-13.58
-14.12
-13.99
-13.10
-11.50
-9.37
-6.97
-4.56
-2.34
-0.51
0.85
1.72
2.23
2.56
2.90
3.34
3.85
4.28
4.45
4.28
3.81
3.19
2.60
2.14
1.84
1.65
1.55
1.56
1.72
2.01
2.29
2.36
2.00
1.17
-0.05
-1.41
-2.65
-3.62
-4.32
-4.92
-5.66
-6.75
-8.30
-10.28
-12.47
-14.51
-16.02
-16.64
-16.17
-14.63
-12.22
-9.25
-6.07
-3.00
-0.28
1.94
3.53
4.46
4.81
4.75
4.47
4.19
4.05
4.10
4.30
4.59
4.89
5.15
5.37
5.55
5.70
5.79
5.80
5.68
5.39
4.92
4.22
3.28
2.13
0.84
-0.45
-1.60
-2.52
-3.26
-3.96
-4.79
-5.90
-7.30
-8.95
-10.75
-12.58
-14.29
-15.66
-16.40
-16.26
-15.10
-13.03
-10.34
-7.42
-4.61
-2.09
0.12
2.02
3.63
4.93
5.87
6.45
6.72
6.79
6.75
6.68
6.65
6.65
6.67
6.69
6.68
6.63
6.55
6.46
6.34
6.20
6.00
5.71
5.31
4.78
4.10
3.21
2.11
0.81
-0.58
-1.94
-3.14
-4.13
-5.01
-5.97
-7.22
-8.89
-10.91
-13.02
-14.79
-15.79
-15.76
-14.65
-12.66
-10.12
-7.33
-4.55
-1.89
0.60
2.90
4.92
6.52
7.59
8.05
7.97
7.50
6.91
6.45
6.26
6.37
6.68
7.03
7.32
7.53
7.70
7.87
8.01
7.99
7.73
7.20
6.50
5.80
5.21
4.70
4.12
3.33
2.27
1.06
-0.10
-1.06
-1.81
-2.55
-3.50
-4.83
-6.53
-8.38
-10.10
-11.45
-12.26
-12.44
-11.96
-10.80
-8.97
-6.56
-3.74
-0.78
2.02
4.41
6.28
7.64
8.58
9.22
9.63
9.84
9.81
9.55
9.11
8.62
8.21
7.99
7.92
7.82
7.38
6.29
4.36
1.59
-1.80
-5.45
-9.00
-12.18
-14.86
-17.06
-18.90
-20.53
-22.08
-23.64
-25.25
-26.92
-28.59
-30.25
-31.86
-33.45
-35.06
-36.77
-38.64
-40.67
-42.79
-44.78
-46.28
-46.78
-45.67
-42.40
-36.64
-28.50
-18.59
-7.89
2.48
11.52
18.61
23.61
26.80
28.69
29.87
30.86
31.99
33.45
35.28
37.41
39.64
41.71
43.27
43.98
43.59
42.02
39.42
36.16
32.61
29.06
25.53
21.80
17.56
12.57
6.79
0.40
-6.24
-12.82
-19.10
-24.93
-30.16
-34.59
-37.98
-40.12
-40.96
-40.68
-39.61
-38.05
-36.17
-33.86
-30.75
-26.36
-20.15
-11.78
-1.22
11.10
24.27
37.00
47.93
55.98
60.70
62.31
61.64
59.72
57.52
55.70
54.56
54.13
54.27
54.74
55.20
55.25
54.44
52.40
48.93
44.10
38.17
31.51
24.50
17.42
10.47
3.82
-2.35
-7.83
-12.44
-16.10
-18.92
-21.13
-23.00
-24.74
-26.43
-28.08
-29.63
-31.08
-32.45
-33.68
-34.67
-35.20
-35.11
-34.36
-33.08
-31.53
-29.95
-28.45
-26.98
-25.37
-23.49
-21.28
-18.86
-16.37
-13.94
-11.66
-9.50
-7.43
-5.46
-3.63
-2.07
-0.96
-0.41
-0.45
-0.93
-1.60
-2.17
-2.49
-2.64
-2.92
-3.75
-5.42
-7.92
-10.91
-13.83
-16.15
-17.48
-17.75
-17.07
-15.72
-13.98
-12.09
-10.22
-8.48
-6.88
-5.38
-3.91
-2.46
-1.10
-0.03
0.54
0.45
-0.28
-1.43
-2.61
-3.40
-3.44
-2.58
-0.89
1.42
4.03
6.65
9.03
10.95
12.23
12.62
11.92
10.09
7.31
4.07
1.03
-1.23
-2.35
-2.35
-1.54
-0.37
0.83
1.93
3.05
4.49
6.55
9.44
13.12
17.39
21.91
26.35
30.44
34.05
37.15
39.75
41.90
43.64
45.01
46.09
46.88
47.32
47.28
46.62
45.28
43.36
41.07
38.63
36.18
33.75
31.28
28.65
25.77
22.51
18.84
14.76
10.41
6.10
2.16
-1.10
-3.56
-5.29
-6.54
-7.51
-8.33
