1520869504.00
64.000000
-0.00
-0.00
-0.00
-0.00
-0.00
-0.00
-0.00
-0.00
-0.00
-0.00
0.00
0.01
0.01
-0.00
-0.03
-0.05
-0.05
0.00
0.13
0.36
0.66
1.01
1.37
1.72
2.06
2.40
2.79
3.24
3.80
4.42
5.06
5.66
6.20
6.68
7.15
7.68
8.31
9.14
10.09
11.04
11.88
12.56
13.14
13.76
14.65
15.96
17.91
20.32
22.90
25.38
27.58
29.57
31.68
34.32
37.81
42.54
48.15
54.10
59.83
64.97
69.58
74.14
79.34
85.71
93.76
103.00
112.62
121.73
129.77
136.75
143.30
150.75
157.77
166.64
177.95
191.79
206.97
220.57
228.25
225.36
208.53
176.87
132.76
80.05
23.07
-34.94
-92.44
-149.16
-205.23
-260.37
-313.74
-363.87
-409.83
-450.91
-486.50
-515.74
-537.23
-549.22
-549.96
-538.37
-514.21
-478.67
-433.88
-382.45
-327.02
-269.84
-212.63
-156.66
-102.95
-52.37
-5.90
35.58
71.43
101.35
125.50
144.38
158.69
169.15
176.37
180.75
182.57
182.07
179.51
175.23
169.65
163.18
156.15
148.81
141.30
133.69
126.02
118.33
110.69
103.16
95.80
88.68
81.83
75.25
68.95
62.95
57.25
51.86
46.78
42.03
37.59
33.45
29.61
26.07
22.81
19.83
17.11
14.67
12.48
10.54
8.83
7.35
6.07
4.97
4.05
3.27
2.62
2.09
1.65
1.30
1.01
0.79
0.61
0.47
0.37
0.29
0.23
0.19
0.16
0.15
0.15
0.15
0.17
0.19
0.22
0.25
0.29
0.33
0.37
0.42
0.47
0.51
0.57
0.62
0.68
0.74
0.80
0.87
0.95
1.03
1.12
1.22
1.33
1.46
1.60
1.76
1.93
2.13
2.35
2.60
2.87
3.17
3.50
3.87
4.27
4.70
5.17
5.67
6.22
6.80
7.43
8.10
8.81
9.57
10.37
11.22
12.12
13.06
14.06
15.12
16.24
17.44
18.70
20.01
21.35
22.66
23.88
24.91
25.65
25.98
25.77
24.95
23.43
21.22
18.34
14.84
10.88
6.61
2.21
-2.12
-6.21
-9.88
-13.05
-15.60
-17.52
-18.78
-19.44
-19.53
-19.14
-18.31
-17.12
-15.62
-13.86
-11.90
-9.74
-7.51
-5.29
-3.19
-1.30
0.30
1.58
2.54
3.29
3.97
4.64
5.39
6.31
7.48
8.97
10.85
13.22
16.24
20.11
24.71
29.97
35.77
41.97
48.39
54.87
61.37
67.98
74.91
81.93
88.88
95.54
101.62
106.80
110.87
113.88
116.16
118.33
120.41
122.37
123.92
124.43
123.00
118.66
110.42
97.13
82.15
66.89
52.12
37.87
23.55
8.21
-8.96
-28.22
-49.11
-70.49
-91.71
-112.23
-132.02
-151.75
-172.69
-196.51
-224.80
-258.43
-296.58
-336.72
-374.05
-402.65
-417.27
-415.02
-396.37
-364.90
-325.90
-284.46
-244.50
-207.82
-174.69
-144.93
-118.73
-96.97
-80.88
-71.61
-69.85
-75.68
-88.24
-105.44
-123.89
-139.25
-146.95
-143.36
-126.91
-98.63
-61.87
-21.02
19.79
57.74
91.71
121.96
149.76
177.16
206.69
240.83
280.90
325.93
372.02
412.94
441.81
453.33
445.43
419.78
380.84
334.19
284.90
236.46
190.57
147.67
107.60
70.21
35.54
3.74
-25.32
-52.36
-78.71
-105.98
-135.27
-166.39
-197.67
-226.38
-249.63
-265.33
-272.68
-271.92
-263.88
-249.48
-229.70
-205.72
-179.11
-151.80
-125.69
-102.23
-82.12
-65.24
-50.86
-37.86
-24.88
-10.48
6.51
26.52
48.72
70.88
89.96
103.21
109.49
109.92
107.65
106.72
110.49
120.32
135.21
152.24
167.85
179.05
184.41
184.11
179.46
172.01
162.96
152.88
141.90
129.98
117.18
103.50
88.51
70.84
48.18
17.97
-21.19
-68.00
-117.68
-162.40
-193.32
-203.31
-189.51
-154.44
-105.12
-50.67
0.66
43.57
76.47
100.49
118.27
132.53
145.46
158.39
171.85
185.77
199.60
212.47
223.31
230.80
233.40
229.45
217.41
196.28
166.00
127.71
83.90
38.13
-5.55
-43.44
-73.03
-93.46
-105.57
-111.24
-112.69
-111.74
-109.85
-108.32
-108.83
-113.21
-122.54
-136.00
-150.41
-161.15
-164.17
-158.24
-145.80
-132.18
-123.16
-122.41
-129.85
-142.03
-153.94
-161.34
-162.34
-157.69
-149.80
-141.28
-133.94
-128.35
-124.05
-120.01
-114.98
-107.72
-97.12
-82.39
-63.47
-41.28
-17.73
4.69
23.46
36.61
43.20
43.42
38.47
30.27
20.90
11.96
3.91
-3.90
-12.60
-22.42
-31.62
-36.32
-31.91
-15.20
13.67
50.84
90.13
125.42
152.75
171.03
181.18
184.63
182.20
174.09
160.66
143.24
124.38
107.08
93.80
85.83
83.40
86.27
94.35
107.73
126.20
148.47
171.77
192.14
205.38
208.26
199.43
179.61
151.03
116.47
78.31
38.10
-3.27
-45.06
-86.11
-124.84
-159.60
-189.33
-214.05
-234.76
-252.72
-268.51
-281.46
-289.67
-290.78
-282.80
-264.84
-237.41
-202.39
-162.81
-122.44
-85.24
-54.51
-32.25
-18.79
-12.98
-12.88
-16.47
-22.09
-28.49
-34.65
-39.56
-42.44
-43.06
-41.84
-39.77
-37.90
-36.91
-36.82
-37.09
-36.80
-34.98
-30.83
-23.91
-14.32
-2.75
9.52
20.91
29.95
35.91
39.14
41.16
44.15
50.26
60.81
75.81
94.04
113.45
131.83
147.34
158.89
166.21
169.81
170.76
170.39
169.83
169.63
169.42
167.86
162.91
152.43
134.87
109.85
78.40
42.75
5.84
-29.35
-60.46
-86.11
-106.05
-120.86
-131.45
-138.53
-142.18
-141.74
-136.20
-124.69
-107.10
-84.35
-58.26
-31.00
-4.53
19.72
40.68
57.23
68.02
71.55
66.81
53.89
34.27
10.45
-14.79
-39.28
-61.72
-81.55
-98.32
-111.24
-119.14
-121.05
-116.85
-107.79
-96.32
-85.35
-77.21
-72.95
-72.25
-73.72
-75.56
-75.94
-73.15
-65.75
-52.71
-33.90
-10.42
15.31
40.02
60.53
74.58
81.51
82.28
78.89
73.61
68.15
63.12
57.92
51.06
40.83
26.06
6.75
-15.72
-38.85
-59.81
-76.27
-87.19
-93.13
-95.87
-97.64
-100.00
-102.99
-104.85
-102.52
-92.70
-73.07
-43.15
-4.65
38.93
83.13
123.58
156.95
181.63
197.95
207.94
214.78
221.74
231.15
243.51
257.15
268.65
273.89
269.48
253.80
227.34
192.16
150.98
106.22
59.87
13.86
-29.24
-66.22
-94.09
-111.51
-120.04
-124.17
-129.87
-142.27
-163.43
-191.63
-222.10
-249.07
-267.96
-276.61
-275.33
-265.95
-250.54
-230.51
-206.44
-178.29
-145.84
-108.99
-68.07
-24.25
20.18
61.87
97.07
122.64
137.13
141.35
138.22
132.13
127.85
129.50
139.61
158.50
183.99
211.80
236.60
253.52
259.63
254.65
240.70
221.12
199.23
177.38
156.72
137.47
119.23
101.35
83.04
63.38
41.52
16.82
-10.67
-39.85
-68.51
-93.74
-112.80
-124.22
-128.48
-128.02
-126.35
-126.64
-130.43
-137.10
-144.37
-149.51
-150.70
-147.77
-142.12
-135.93
-131.09
-128.35
-127.06
-125.63
-122.22
-115.86
-106.94
-97.26
-89.47
-85.97
-88.00
-95.00
-104.55
-112.92
-116.02
-110.58
-95.28
-71.41
-42.81
-14.97
6.60
18.04
18.59
11.11
1.60
-2.57
4.86
26.68
60.66
100.01
135.76
160.03
169.13
164.76
152.88
140.70
133.66
133.45
138.29
144.70
149.52
151.08
149.00
143.39
134.09
120.66
102.81
81.08
57.10
33.17
11.51
-6.61
-21.20
-33.49
-45.17
-57.47
-70.49
-82.98
-92.77
-97.80
-97.02
-90.98
-81.60
-71.35
-62.29
-55.34
-50.23
-45.97
-41.50
-36.18
-30.03
-23.45
-17.01
-11.10
-5.93
-1.55
2.07
5.00
7.41
9.53
11.62
13.79
15.78
17.02
16.69
14.15
9.15
2.15
-5.84
-13.54
-19.85
-24.17
-26.55
-27.53
-27.83
-28.01
-28.22
-28.20
-27.42
-25.40
-21.89
-17.04
-11.30
-5.26
0.48
5.56
9.78
13.13
15.66
17.43
18.44
18.76
18.43
17.56
16.23
14.54
12.49
10.16
7.67
5.21
3.04
1.39
0.39
-0.03
-0.08
-0.02
-0.09
-0.35
-0.76
-1.22
-1.65
-2.08
-2.71
-3.78
-5.51
-7.91
-10.80
-13.82
-16.55
-18.65
-20.05
-20.88
-21.36
-21.65
-21.62
-20.79
-18.30
-13.09
-4.22
8.70
25.13
43.38
60.63
73.39
78.35
73.34
58.13
34.74
6.89
-20.89
-44.46
-60.84
-68.46
-66.91
-56.53
-38.18
-13.34
15.66
45.66
73.08
94.71
108.47
113.78
111.30
102.44
88.63
71.00
50.48
28.09
5.14
-16.72
-35.95
-51.40
-62.71
-70.23
-74.76
-77.22
-78.36
-78.73
-78.63
-78.31
-77.93
-77.52
-76.96
-75.91
-73.90
-70.48
-65.43
-58.84
-51.14
-42.95
-34.85
-27.19
-20.05
-13.28
-6.70
-0.24
5.97
11.64
16.48
20.28
23.01
24.73
25.54
25.57
24.88
23.64
22.06
20.55
19.56
19.52
20.63
22.79
25.62
28.57
31.13
32.95
33.91
34.03
33.44
32.23
30.54
28.49
26.23
23.86
21.40
18.76
15.85
12.63
9.25
6.00
3.23
1.20
-0.04
-0.71
-1.25
-2.20
-4.01
-6.89
-10.64
-14.76
-18.56
-21.32
-22.60
-22.27
-20.52
-17.69
-14.12
-10.11
-5.90
-1.74
2.10
5.33
7.75
9.33
10.21
10.59
10.71
10.67
10.50
10.15
9.65
9.12
8.80
8.95
9.68
10.90
12.30
13.50
14.17
14.16
13.56
12.60
11.55
10.58
9.70
8.88
8.03
7.14
6.21
5.29
4.43
3.67
3.02
2.45
1.83
1.02
-0.10
-1.58
-3.30
-5.04
-6.59
-7.87
-8.95
-10.10
-11.62
-13.73
-16.48
-19.71
-23.15
-26.44
-29.18
-30.97
-31.47
-30.49
-28.06
-24.40
-19.94
-15.16
-10.47
-6.15
-2.29
1.10
4.07
6.65
8.83
10.62
12.05
13.17
14.07
14.83
15.50
16.09
16.61
17.02
17.34
17.59
17.85
18.20
18.67
19.20
19.64
19.82
19.64
19.14
18.49
17.81
17.16
16.43
15.43
14.02
12.21
10.13
7.97
5.85
3.85
1.99
0.32
-1.12
-2.36
-3.53
-4.86
-6.49
-8.44
-10.56
-12.69
-14.78
-16.98
-19.54
-22.57
-25.93
-29.11
-31.45
-32.38
-31.63
-29.29
-25.71
-21.38
-16.74
-12.09
-7.60
-3.33
0.68
4.41
7.78
10.69
13.08
14.98
16.48
17.65
18.53
19.12
19.41
19.40
19.20
18.94
18.79
18.82
19.03
19.34
19.64
19.80
19.76
19.44
18.86
18.09
17.24
16.48
15.89
15.48
15.16
14.76
14.13
13.20
11.99
10.61
9.21
7.83
6.49
5.09
3.52
1.70
-0.36
-2.57
-4.82
-6.99
-9.03
-10.95
-12.80
-14.68
-16.68
-18.87
-21.30
-24.00
-26.95
-30.05
-33.10
-35.76
-37.61
-38.22
-37.36
-35.07
-31.68
-27.69
-23.56
-19.52
-15.60
-11.72
-7.82
-3.99
-0.45
2.58
5.01
6.89
8.37
9.58
10.61
11.47
12.18
12.78
13.32
13.82
14.28
14.68
15.00
15.31
15.66
16.10
16.56
16.89
16.88
16.36
15.31
13.89
12.44
11.30
10.69
10.61
10.81
10.89
10.44
9.14
6.91
3.99
0.83
-2.07
-4.34
-6.00
-7.43
-9.25
-12.04
-16.01
-20.82
-25.72
-29.85
-32.72
-34.43
-35.74
-37.67
-41.11
-46.40
-53.18
-60.59
-67.54
-73.09
-76.52
-77.40
-75.62
-71.54
-66.17
-60.99
-57.22
-54.83
-51.90
-44.90
-30.09
-5.48
27.88
65.96
103.24
134.77
157.76
171.83
178.11
178.12
172.97
163.23
149.53
132.82
114.55
96.41
80.02
66.66
57.21
51.95
50.52
52.07
55.54
60.26
66.15
73.57
82.68
92.78
102.09
108.22
109.13
103.90
93.01
77.92
60.16
40.65
19.64
-2.78
-25.89
-48.13
-67.66
-83.17
-94.56
-102.96
-110.00
-116.92
-124.12
-131.37
-138.36
-145.26
-152.48
-160.14
-167.33
-172.04
-171.79
-164.66
-150.37
-130.50
-107.94
-85.86
-66.66
-51.30
-39.30
-29.28
-19.72
-9.57
1.38
12.68
23.56
33.24
41.10
46.57
49.04
47.89
42.86
34.41
23.94
13.62
5.71
1.86
2.57
7.08
13.79
20.88
26.88
30.90
32.58
32.01
29.71
26.67
24.43
24.62
28.34
35.27
43.28
48.76
47.73
37.22
16.44
-12.89
-47.15
-81.88
-112.90
-136.98
-152.05
-157.21
-152.64
-139.66
-120.57
-98.35
-76.08
-56.26
-40.28
-28.25
-19.15
-11.18
-2.39
8.80
23.06
39.99
58.15
75.43
89.64
99.00
102.45
99.69
91.12
77.72
61.04
43.02
25.87
11.58
1.60
-3.42
-3.70
-0.09
6.18
13.94
22.22
30.43
38.26
45.48
51.74
56.33
58.26
56.50
50.52
40.64
28.16
15.02
3.18
-6.02
-12.15
-15.59
-17.19
-17.76
-17.88
-17.81
-17.72
-17.82
-18.40
-19.74
-21.92
-24.79
-27.95
-31.06
-33.96
-36.79
-39.86
-43.47
-47.63
-51.91
-55.57
-57.77
-57.87
-55.71
-51.59
-46.13
-39.90
-33.34
-26.67
-20.00
-13.49
-7.47
-2.29
1.75
4.55
6.20
6.92
6.93
6.37
5.28
3.70
1.74
-0.39
-2.41
-4.04
-5.07
-5.43
-5.17
-4.43
-3.36
-2.06
-0.60
0.94
2.44
3.63
4.10
3.45
1.43
-1.87
-5.96
-10.04
-13.16
-14.47
-13.47
-10.07
-4.72
1.82
8.59
14.76
19.78
23.45
25.92
27.48
28.39
28.77
28.62
27.95
26.83
25.50
24.27
23.39
22.92
22.66
22.23
21.21
19.36
16.71
13.55
10.33
7.39
4.89
2.73
0.74
-1.16
-2.86
-4.05
-4.42
-3.86
-2.53
-0.83
0.75
1.86
2.40
2.42
2.12
1.58
0.81
-0.25
-1.65
-3.36
-5.28
-7.28
-9.37
-11.60
-14.14
-17.14
-20.60
-24.27
-27.67
-30.18
-31.24
-30.53
-28.09
-24.28
-19.67
-14.79
-10.08
-5.75
-1.80
1.81
5.09
8.02
10.45
12.23
13.24
13.46
13.03
12.25
11.51
11.10
11.16
11.57
12.08
12.45
12.55
12.46
12.36
12.37
12.48
12.53
12.25
11.43
10.02
8.10
5.91
3.66
1.51
-0.50
-2.44
-4.42
-6.50
-8.69
-11.02
-13.50
-16.23
-19.28
-22.66
-26.17
-29.38
-31.70
-32.59
-31.75
-29.25
-25.51
-21.08
-16.49
-12.03
-7.83
-3.91
-0.28
2.98
5.77
8.05
9.86
11.33
12.62
13.90
15.15
16.34
17.38
18.27
19.08
19.99
21.17
22.69
24.47
26.25
27.72
28.65
28.90
28.52
27.63
26.41
24.97
23.46
21.93
20.48
19.15
17.92
16.75
15.54
14.20
12.69
11.05
9.33
7.56
5.72
3.75
1.60
-0.75
-3.27
-5.88
-8.56
-11.28
-14.08
-17.02
-20.16
-23.56
-27.20
-31.03
-34.82
-38.22
-40.73
-41.85
-41.21
-38.80
-34.93
-30.17
-25.13
-20.23
-15.65
-11.34
-7.17
-3.06
0.90
4.45
7.37
9.50
10.94
11.95
12.87
13.97
15.38
17.05
18.86
20.70
22.53
24.32
25.98
27.33
28.14
28.27
27.76
26.85
25.86
25.02
24.35
23.66
22.78
21.64
20.32
19.02
17.87
16.82
15.64
14.00
11.71
8.79
5.49
2.16
-0.93
-3.66
-6.10
-8.40
-10.68
-13.06
-15.63
-18.56
-22.04
-26.15
-30.71
-35.20
-38.86
-40.95
-41.02
-39.05
-35.42
-30.71
-25.45
-20.01
-14.66
-9.58
-4.97
-0.98
2.32
4.99
7.16
9.03
10.70
12.29
13.83
15.32
16.74
18.06
19.27
20.38
21.45
22.55
23.68
24.71
25.50
25.89
25.86
25.45
24.81
24.02
23.13
22.13
21.01
19.83
18.70
17.66
16.73
15.84
14.91
13.90
12.80
11.60
10.31
8.84
7.14
5.18
2.95
0.50
-2.13
-4.90
-7.77
-10.68
-13.55
-16.31
-18.98
-21.68
-24.61
-27.92
-31.64
-35.55
-39.18
-41.92
-43.21
-42.70
-40.36
-36.48
-31.56
-26.15
-20.75
-15.74
-11.34
-7.64
-4.58
-2.09
-0.05
1.61
2.94
3.98
4.79
5.45
6.08
6.75
7.53
8.43
9.51
10.82
12.41
14.25
16.17
17.95
19.36
20.32
20.92
21.27
21.53
21.71
21.74
21.54
21.07
20.39
19.61
18.80
18.02
17.25
16.52
15.82
15.17
14.60
14.07
13.50
12.77
11.76
10.34
8.52
6.36
3.98
1.56
-0.80
-3.07
-5.24
-7.35
-9.41
-11.45
-13.52
-15.68
-18.06
-20.81
-24.03
-27.72
-31.69
-35.58
-38.83
-40.91
-41.42
-40.24
-37.61
-33.99
-29.87
-25.63
-21.45
-17.41
-13.54
-9.97
-6.81
-4.19
-2.07
-0.34
1.16
2.57
3.98
5.45
7.01
8.74
10.69
12.88
15.24
17.70
20.09
22.25
23.98
25.12
25.60
25.43
24.75
23.82
22.84
21.99
21.35
20.91
20.58
20.26
19.81
19.12
18.11
16.76
15.17
13.49
11.93
10.65
9.74
9.13
8.64
8.04
7.05
5.55
3.49
0.99
-1.79
-4.65
-7.39
-9.88
-12.08
-14.11
-16.19
-18.60
-21.60
-25.19
-29.10
-32.78
-35.53
-36.74
-36.08
-33.58
-29.61
-24.81
-19.80
-15.08
-10.90
-7.23
-3.92
-0.78
2.24
5.03
7.36
9.02
10.01
10.49
10.85
11.41
12.30
13.43
14.52
15.36
15.92
16.41
17.13
18.25
19.68
21.10
22.08
22.31
21.69
20.38
18.71
16.98
15.42
14.14
13.12
12.27
11.51
10.73
9.88
8.85
7.58
6.03
4.24
2.36
0.52
-1.18
-2.81
-4.53
-6.48
-8.68
-10.98
-13.19
-15.22
-17.25
-19.56
-22.50
-26.19
-30.46
-34.92
-38.99
-42.12
-43.89
-44.07
-42.65
-39.89
-36.16
-31.89
-27.43
-23.01
-18.75
-14.72
-11.04
-7.79
-5.02
-2.64
-0.48
1.60
3.61
5.41
6.84
7.86
8.65
9.50
10.65
12.20
13.98
15.71
17.12
18.07
18.59
18.78
18.75
18.63
18.53
18.54
18.73
19.07
19.40
19.57
19.41
18.89
18.08
17.10
16.06
15.01
13.96
12.90
11.80
10.63
9.36
7.92
6.22
4.19
1.87
-0.67
-3.25
-5.68
-7.88
-9.86
-11.71
-13.55
-15.46
-17.43
-19.52
-21.87
-24.65
-28.05
-31.94
-35.86
-39.04
-40.67
-40.26
-37.88
-34.14
-29.88
-25.82
-22.35
-19.41
-16.75
-14.10
-11.40
-8.72
-6.20
-3.91
-1.81
0.22
2.25
4.23
6.08
7.70
9.10
10.37
11.67
13.10
14.62
16.13
17.45
18.46
19.15
19.63
20.10
20.68
21.45
22.33
23.20
23.92
24.42
24.66
24.68
24.49
24.08
23.45
22.61
21.65
20.68
19.76
18.92
18.07
17.13
16.00
14.64
13.00
11.04
8.71
6.07
3.21
0.30
-2.51
-5.13
-7.52
-9.69
-11.68
-13.61
-15.69
-18.25
-21.56
-25.66
-30.21
-34.52
-37.75
-39.25
-38.78
-36.54
-32.99
-28.64
-23.87
-18.99
-14.22
-9.79
-5.90
-2.62
0.13
2.50
4.62
6.53
8.15
9.35
10.15
10.69
11.25
12.11
13.48
15.32
17.45
19.58
21.43
22.79
23.57
23.81
23.67
23.31
22.90
22.52
22.17
21.74
21.14
20.32
19.23
17.93
16.49
14.98
13.48
12.07
10.78
9.61
8.53
7.47
6.34
5.04
3.49
1.65
-0.56
-3.19
-6.24
-9.65
-13.29
-17.04
-20.86
-24.84
-29.13
-33.77
-38.55
-42.90
-46.07
-47.39
-46.49
-43.51
-38.99
-33.66
-28.21
-23.10
-18.51
-14.45
-10.79
-7.42
-4.28
-1.41
1.04
2.92
4.15
4.86
5.35
6.03
7.21
9.00
11.29
13.82
16.30
18.51
20.37
21.88
23.06
23.95
24.51
24.75
24.64
24.23
23.61
22.94
22.34
21.90
21.57
21.24
20.76
20.02
18.97
17.70
16.28
14.84
13.40
11.98
10.56
9.13
7.63
5.95
3.91
1.39
-1.65
-5.04
-8.47
-11.60
-14.27
-16.58
-18.88
-21.61
-25.13
-29.46
-34.39
-39.41
-43.94
-47.41
-49.34
-49.42
-47.56
-43.97
-39.08
-33.51
-27.85
-22.56
-17.84
-13.68
-9.93
-6.47
-3.24
-0.27
2.40
4.80
7.01
9.10
11.11
12.93
14.44
15.55
16.32
16.98
17.87
19.25
21.18
23.45
25.62
27.19
27.86
27.60
26.67
25.52
24.57
24.07
24.05
24.32
24.57
24.58
24.23
23.58
22.82
22.16
21.78
21.78
22.14
22.69
23.18
23.31
22.80
21.55
19.56
17.05
14.32
11.64
9.20
7.00
4.92
2.81
0.55
-1.93
-4.64
-7.59
-10.78
-14.22
-17.89
-21.78
-25.85
-30.05
-34.24
-38.16
-41.36
-43.35
-43.68
-42.18
-39.03
-34.69
-29.77
-24.77
-19.98
-15.52
-11.36
-7.53
-4.13
-1.33
0.70
1.90
2.33
2.21
1.81
1.42
1.28
1.52
2.15
3.08
4.22
5.48
6.84
8.33
10.00
11.77
13.54
15.14
16.41
17.25
17.60
17.45
16.78
15.55
13.78
11.54
9.04
6.53
4.24
2.32
0.75
-0.55
-1.73
-2.91
-4.17
-5.56
-7.06
-8.53
-9.86
-10.90
-11.68
-12.37
-13.27
-14.66
-16.65
-19.14
-21.86
-24.55
-27.06
-29.23
-30.94
-31.98
-32.07
-31.05
-28.93
-25.94
-22.45
-18.79
-15.11
-11.38
-7.49
-3.38
0.88
5.06
8.91
12.20
14.76
16.56
17.63
18.04
17.94
17.45
16.72
15.96
15.39
15.21
15.52
16.31
17.47
18.87
20.42
22.05
23.72
25.30
26.56
27.23
27.09
26.07
24.32
22.13
19.78
17.50
15.34
13.30
11.40
9.73
8.41
7.58
7.27
7.34
7.56
7.62
7.26
6.29
4.66
2.42
-0.27
-3.23
-6.25
-9.24
-12.22
-15.32
-18.77
-22.77
-27.37
-32.46
-37.70
-42.60
-46.58
-49.07
-49.65
-48.13
-44.62
-39.49
-33.30
-26.67
-20.11
-13.98
-8.44
-3.53
0.73
4.28
7.08
9.08
10.35
11.08
11.55
12.03
12.73
13.77
15.17
16.91
18.90
21.02
23.09
24.87
26.11
26.65
26.49
25.82
24.92
24.14
23.65
23.50
23.54
23.55
23.40
23.08
22.74
22.62
22.87
23.49
24.28
24.89
24.98
24.31
22.81
20.59
17.85
14.80
11.61
8.39
5.24
2.18
-0.69
-3.33
-5.68
-7.70
-9.44
-11.01
-12.60
-14.48
-16.98
-20.35
-24.72
-30.01
-35.86
-41.65
-46.63
-50.05
-51.36
-50.36
-47.26
-42.65
-37.27
-31.83
-26.83
-22.45
-18.66
-15.31
-12.28
-9.47
-6.83
-4.26
-1.67
1.06
3.91
6.74
9.28
11.38
13.03
14.45
15.96
17.75
19.80
21.82
23.44
24.37
24.61
24.37
23.98
23.71
23.64
23.70
23.66
23.37
22.71
21.66
20.27
18.63
16.87
15.13
13.51
12.05
10.75
9.56
8.49
7.50
6.55
5.55
4.32
2.73
0.69
-1.73
-4.34
-6.92
-9.35
-11.62
-13.91
-16.44
-19.37
-22.69
-26.17
-29.37
-31.79
-32.98
-32.71
-31.02
-28.18
-24.57
-20.56
-16.43
-12.37
-8.47
-4.79
-1.38
1.76
4.58
7.09
9.28
11.13
12.68
13.97
15.13
16.24
17.37
18.50
19.62
20.64
21.55
22.31
22.96
23.49
23.89
24.14
24.23
24.23
24.29
24.56
25.15
26.00
26.83
27.27
26.99
25.86
24.05
21.89
19.73
17.76
16.02
14.35
12.59
10.62
8.37
5.81
2.98
-0.09
-3.28
-6.51
-9.71
-12.88
-16.12
-19.56
-23.29
-27.28
-31.38
-35.25
-38.43
-40.42
-40.77
-39.28
-36.07
-31.62
-26.62
-21.73
-17.39
-13.69
-10.44
-7.42
-4.49
-1.70
0.74
2.67
4.03
4.94
5.60
6.17
6.72
7.27
7.87
8.60
9.59
10.90
12.48
14.10
15.48
16.43
16.89
17.00
16.92
16.77
16.54
16.10
15.30
14.06
12.44
10.63
8.86
7.24
5.77
4.29
2.59
0.54
-1.89
-4.58
-7.34
-10.02
-12.53
-14.85
-17.07
-19.26
-21.56
-24.10
-26.97
-30.23
-33.78
-37.32
-40.36
-42.39
-42.94
-41.84
-39.24
-35.54
-31.23
-26.74
-22.37
-18.23
-14.40
-10.92
-7.81
-5.06
-2.61
-0.37
1.72
3.65
5.37
6.86
8.20
9.52
10.95
12.54
14.21
15.85
17.32
18.56
19.61
20.48
21.15
21.58
21.74
21.64
21.38
21.10
20.90
20.83
20.79
20.66
20.26
19.46
18.22
16.61
14.80
13.01
11.40
10.00
8.76
7.47
5.95
4.11
1.95
-0.43
-2.90
-5.33
-7.69
-9.98
-12.29
-14.72
-17.40
-20.45
-23.90
-27.64
-31.36
-34.58
-36.76
-37.48
-36.58
-34.15
-30.59
-26.40
-22.10
-18.08
-14.55
-11.52
-8.85
-6.37
-3.92
-1.45
0.97
3.24
5.21
6.85
8.17
9.30
10.42
11.70
13.29
15.24
17.47
19.82
22.06
23.95
25.31
26.10
26.40
26.35
26.15
25.96
25.82
25.71
25.51
25.05
24.23
23.04
21.57
20.03
18.68
17.71
17.13
16.80
16.41
15.71
14.53
12.96
11.28
9.78
8.61
7.67
6.66
5.26
3.27
0.73
-2.20
-5.26
-8.27
-11.13
-13.88
-16.59
-19.36
-22.26
-25.38
-28.75
-32.31
-35.85
-39.02
-41.28
-42.14
-41.29
-38.73
-34.81
-30.11
-25.22
-20.63
-16.59
-13.11
-10.11
-7.42
-4.95
-2.67
-0.61
1.17
2.63
3.77
4.70
5.57
6.52
7.67
8.96
10.27
11.47
12.54
13.58
14.73
16.02
17.30
18.32
18.86
18.88
18.52
18.05
17.62
17.26
16.76
15.98
14.83
13.41
11.94
10.56
9.35
8.22
7.03
5.66
4.05
2.16
-0.02
-2.45
-5.07
-7.77
-10.42
-12.94
-15.29
-17.53
-19.72
-22.00
-24.47
-27.23
-30.34
-33.73
-37.16
-40.21
-42.33
-43.06
-42.15
-39.69
-36.12
-32.02
-27.92
-24.19
-20.91
-17.93
-15.04
-12.10
-9.09
-6.21
-3.70
-1.72
-0.28
0.83
1.94
3.29
4.97
6.87
8.74
10.38
11.77
13.02
14.29
15.71
17.19
18.57
19.65
20.31
20.54
20.45
20.17
19.84
19.51
19.19
18.83
18.40
17.82
17.06
16.14
15.08
13.94
12.79
11.62
10.40
9.07
7.54
5.73
3.63
1.22
-1.40
-4.15
-6.90
-9.54
-12.02
-14.37
-16.71
-19.22
-22.10
-25.43
-29.13
-32.85
-36.03
-38.03
-38.37
-36.92
-34.00
-30.25
-26.41
-23.02
-20.27
-18.02
-15.97
-13.84
-11.50
-9.03
-6.59
-4.31
-2.21
-0.20
1.83
3.92
6.00
7.95
9.67
11.17
12.60
14.12
15.86
17.83
19.86
21.73
23.19
24.10
24.45
24.38
24.09
23.79
23.62
23.56
23.48
23.19
22.53
21.47
20.15
18.79
17.58
16.54
15.61
14.61
13.40
11.94
10.21
8.21
5.94
3.37
0.59
-2.25
-4.89
-7.16
-9.00
-10.60
-12.31
-14.54
-17.52
-21.23
-25.34
-29.28
-32.40
-34.20
-34.46
-33.22
-30.82
-27.70
-24.27
-20.86
-17.63
-14.59
-11.67
-8.78
-5.83
-2.84
0.12
2.90
5.34
7.34
8.91
10.12
11.11
12.04
13.02
14.12
15.36
16.72
18.10
19.38
20.34
20.79
20.64
19.89
18.74
17.45
16.27
15.30
14.45
13.56
12.44
11.09
9.59
8.05
6.55
5.06
3.49
1.75
-0.13
-2.05
-3.94
-5.77
-7.64
-9.71
-12.05
-14.64
-17.42
-20.34
-23.45
-26.89
-30.68
-34.60
-38.11
-40.50
-41.12
-39.71
-36.51
-32.23
-27.68
-23.50
-19.93
-16.80
-13.74
-10.45
-6.88
-3.21
0.25
3.23
5.66
7.61
9.25
10.68
11.90
12.87
13.64
14.34
15.24
16.55
18.34
20.42
22.41
23.91
24.63
24.55
23.89
23.04
22.31
21.89
21.76
21.71
21.56
21.18
20.59
19.88
19.14
18.39
17.52
16.38
14.89
13.10
11.20
9.40
7.89
6.68
5.63
4.51
3.06
1.14
-1.21
-3.84
-6.50
-9.01
-11.35
-13.62
-16.02
-18.73
-21.87
-25.49
-29.58
-34.05
-38.70
-43.14
-46.85
-49.18
-49.66
-48.07
-44.62
-39.83
-34.37
-28.80
-23.50
-18.60
-14.09
-9.95
-6.16
-2.73
0.33
3.08
5.58
7.91
10.11
12.18
14.09
15.87
17.54
19.15
20.75
22.36
23.97
25.58
27.13
28.52
29.60
30.23
30.35
30.02
29.39
28.66
27.96
27.29
26.58
25.70
24.57
23.17
21.55
19.85
18.16
16.60
15.18
13.84
12.47
10.88
8.93
6.57
3.85
0.91
-2.08
-4.98
-7.69
-10.15
-12.32
-14.33
-16.43
-19.01
-22.41
-26.73
-31.64
-36.44
-40.23
-42.26
-42.20
-40.18
-36.69
-32.34
-27.64
-22.95
-18.43
-14.20
-10.28
-6.67
-3.34
-0.23
2.71
5.46
8.04
10.42
12.65
14.76
16.81
18.79
20.66
22.43
24.12
25.77
27.42
29.00
30.37
31.34
31.76
31.57
30.81
29.67
28.37
27.11
26.00
25.06
24.21
23.37
22.42
21.28
19.85
18.10
16.05
13.81
11.59
9.59
7.89
6.37
4.73
2.69
0.10
-2.91
-6.01
-8.82
-11.16
-13.14
-15.08
-17.37
-20.28
-23.93
-28.22
-32.92
-37.65
-41.96
-45.25
-46.96
-46.73
-44.53
-40.74
-35.99
-30.97
-26.12
-21.58
-17.28
-13.04
-8.84
-4.82
-1.19
1.89
4.42
6.55
8.47
10.28
11.99
13.51
14.84
16.03
17.23
18.56
20.09
21.76
23.40
24.81
25.82
26.36
26.46
26.21
25.74
25.14
24.43
23.64
22.77
21.82
20.83
19.82
18.80
17.69
16.40
14.88
13.13
11.26
9.42
7.66
5.89
3.90
1.47
-1.52
-4.96
-8.56
-12.01
-15.13
-17.91
-20.55
-23.31
-26.40
-29.92
-33.86
-38.14
-42.57
-46.83
-50.46
-52.89
-53.60
-52.29
-49.00
-44.15
-38.40
-32.43
-26.73
-21.54
-16.82
-12.47
-8.34
-4.42
-0.79
2.47
5.32
7.83
10.11
12.28
14.34
16.25
17.95
19.41
20.71
21.98
23.33
24.77
26.22
27.48
28.43
29.00
29.25
29.30
29.22
29.04
28.75
28.28
27.62
26.81
25.92
25.06
24.32
23.70
23.12
22.43
21.41
19.93
17.93
15.55
13.03
10.57
8.23
5.94
3.54
0.89
-2.01
-5.07
-8.16
-11.21
-14.21
-17.22
-20.26
-23.35
-26.52
-29.84
-33.41
-37.22
-41.04
-44.35
-46.50
-46.93
-45.37
-42.01
-37.39
-32.18
-26.93
-21.99
-17.41
-13.12
-9.00
-4.97
-1.05
2.69
6.14
9.16
11.69
13.71
15.32
16.64
17.86
19.11
20.47
21.97
23.57
25.23
26.89
28.43
29.73
30.62
30.95
30.61
29.65
28.24
26.64
25.13
23.89
22.93
22.10
21.20
20.10
18.76
17.25
15.68
14.11
12.56
10.99
9.37
7.65
5.79
3.71
1.32
-1.41
-4.39
-7.48
-10.46
-13.19
-15.65
-17.95
-20.28
-22.89
-26.01
-29.79
-34.19
-38.90
-43.32
-46.66
-48.21
-47.55
-44.76
-40.37
-35.13
-29.75
-24.64
-19.91
-15.41
-10.98
-6.55
-2.23
1.76
5.20
8.01
10.19
11.91
13.36
14.68
15.91
17.08
18.21
19.33
20.53
21.85
23.27
24.64
25.77
26.51
26.76
26.52
25.87
24.89
23.67
22.28
20.83
19.43
18.18
17.07
16.00
14.79
13.29
11.48
9.51
7.59
5.91
4.51
3.23
1.81
0.04
-2.16
-4.72
-7.39
-9.98
-12.36
-14.58
-16.76
-19.11
-21.83
-25.08
-29.02
-33.67
-38.91
-44.35
-49.34
-53.11
-54.96
-54.51
-51.82
-47.37
-41.86
-36.00
-30.26
-24.84
-19.77
-14.99
-10.51
-6.38
-2.62
0.80
3.98
7.03
9.98
12.77
15.26
17.32
18.95
20.26
21.43
22.65
23.96
25.29
26.44
27.27
27.77
28.05
28.27
28.56
28.88
29.12
29.11
28.75
28.04
27.07
25.95
24.77
23.53
22.22
20.81
19.29
17.67
15.96
14.14
12.25
10.31
8.39
6.51
4.65
2.72
0.61
-1.75
-4.37
-7.16
-9.99
-12.74
-15.41
-18.07
-20.88
-24.06
-27.76
-32.08
-36.94
-42.05
-46.89
-50.83
-53.21
-53.57
-51.77
-48.05
-42.92
-37.02
-30.90
-24.93
-19.29
-14.01
-9.09
-4.58
-0.54
2.97
5.90
8.27
10.20
11.89
13.54
15.33
17.30
19.36
21.39
23.25
24.92
26.48
28.03
29.60
31.06
32.16
32.75
32.81
32.49
32.00
31.52
31.02
30.33
29.26
27.69
25.67
23.32
20.82
18.30
15.84
13.51
11.31
9.21
7.09
4.79
2.16
-0.85
-4.16
-7.55
-10.80
-13.71
-16.32
-18.82
-21.62
-25.17
-29.79
-35.49
-41.86
-48.07
-53.15
-56.26
-56.91
-55.11
-51.23
-45.89
-39.76
-33.40
-27.25
-21.61
-16.65
-12.36
-8.61
-5.25
-2.11
0.85
3.55
5.89
7.77
9.21
10.30
11.18
11.94
12.66
13.37
14.11
14.93
15.81
16.70
17.42
17.71
17.37
16.32
14.64
12.61
10.55
8.71
7.18
5.88
4.65
3.37
1.97
0.46
-1.17
-2.92
-4.84
-6.93
-9.16
-11.50
-13.97
-16.63
-19.55
-22.71
-25.78
-28.27
-29.55
-29.11
-26.82
-22.90
-17.88
-12.32
-6.67
-1.14
4.23
9.48
14.54
19.22
23.25
26.38
28.56
29.90
30.70
31.26
31.79
32.37
32.97
33.50
33.93
34.23
34.33
34.10
33.35
31.97
29.97
27.54
24.98
22.50
20.14
17.76
15.15
12.18
8.97
5.74
2.83
0.41
-1.57
-3.32
-5.14
-7.30
-9.92
-13.07
-16.76
-21.01
-25.77
-30.78
-35.56
-39.34
-41.36
-41.06
-38.30
-33.48
-27.35
-20.75
-14.37
-8.54
-3.28
1.53
5.93
9.79
12.90
15.12
16.52
17.40
18.16
19.09
20.23
21.39
22.29
22.79
22.92
22.89
22.93
23.04
23.07
22.73
21.79
20.22
18.17
15.91
13.63
11.39
9.11
6.67
3.99
1.13
-1.85
-4.86
-7.89
-10.92
-13.93
-16.85
-19.62
-22.22
-24.81
-27.66
-31.04
-35.13
-39.80
-44.60
-48.83
-51.66
-52.43
-50.79
-46.81
-40.98
-34.00
-26.61
-19.36
-12.59
-6.39
-0.71
4.53
9.32
13.61
17.25
20.10
22.07
23.18
23.57
23.50
23.26
23.11
23.20
23.56
24.11
24.75
25.36
25.80
25.95
25.74
25.12
24.07
22.62
20.78
18.57
16.07
13.38
10.68
8.10
5.67
3.27
0.66
-2.41
-6.07
-10.30
-14.96
-19.81
-24.54
-28.75
-31.95
-33.59
-33.26
-30.80
-26.42
-20.69
-14.29
-7.86
-1.85
3.52
8.25
12.37
15.92
18.89
21.20
22.77
23.60
23.79
23.53
23.07
22.62
22.27
22.00
21.77
21.54
21.40
21.41
21.56
21.67
21.41
20.45
18.64
16.06
13.01
9.90
7.04
4.62
2.63
0.96
-0.58
-2.25
-4.31
-7.05
-10.61
-14.90
-19.55
-23.90
-27.22
-28.87
-28.52
-26.16
-22.14
-16.95
-11.19
-5.38
0.04
4.79
8.70
11.74
13.94
15.41
16.28
16.70
16.84
16.89
17.02
17.34
17.88
18.59
19.40
20.24
21.08
21.90
22.57
22.94
22.80
22.03
20.58
18.59
16.23
13.76
11.34
9.02
6.70
4.17
1.20
-2.35
-6.48
-11.03
-15.70
-20.07
-23.66
-26.00
-26.75
-25.72
-22.97
-18.88
-14.06
-9.17
-4.80
-1.27
1.36
3.19
4.38
5.03
5.23
5.07
4.69
4.28
4.02
4.00
4.22
4.59
4.97
5.32
5.63
5.96
6.37
6.88
7.39
7.75
7.78
7.35
6.39
5.00
3.40
1.82
0.45
-0.69
-1.76
-3.06
-4.91
-7.49
-10.67
-14.12
-17.26
-19.52
-20.45
-19.82
-17.64
-14.13
-9.70
-4.85
-0.11
4.08
7.50
10.12
12.09
13.59
14.74
15.56
16.00
16.02
15.65
14.99
14.12
13.15
12.17
11.31
10.73
10.59
10.87
11.43
11.98
12.24
12.08
11.51
10.68
9.75
8.87
8.10
7.51
7.11
6.85
6.61
6.18
5.42
4.32
3.02
1.81
0.92
0.46
0.35
0.34
0.12
-0.50
-1.62
-3.21
-5.10
-7.14
-9.17
-11.10
-12.88
-14.55
-16.22
-18.07
-20.24
-22.77
-25.46
-27.91
-29.58
-29.95
-28.73
-25.93
-21.88
-17.09
-12.14
-7.57
-3.75
-0.95
0.78
1.53
1.52
1.03
0.35
-0.31
-0.78
-0.96
-0.82
-0.41
0.18
0.81
1.40
1.95
2.56
3.34
4.33
5.47
6.62
7.61
8.36
8.84
9.10
9.19
9.11
8.85
8.37
7.69
6.85
5.93
5.00
4.15
3.46
2.93
2.51
2.06
1.44
0.55
-0.61
-1.99
-3.49
-5.01
-6.55
-8.10
-9.70
-11.37
-13.17
-15.16
-17.42
-19.92
-22.49
-24.75
-26.23
-26.52
-25.41
-23.01
-19.67
-15.87
-12.10
-8.70
-5.84
-3.53
-1.78
-0.60
-0.06
-0.25
-1.17
-2.64
-4.29
-5.67
-6.40
-6.34
-5.61
-4.49
-3.31
-2.24
-1.33
-0.52
0.23
0.92
1.45
1.70
1.64
1.34
0.94
0.65
0.62
0.92
1.42
1.89
2.03
1.65
0.75
-0.44
-1.63
-2.52
-3.04
-3.31
-3.56
-4.01
-4.77
-5.78
-6.92
-8.06
-9.12
-10.01
-10.73
-11.37
-12.11
-13.22
-14.96
-17.37
-20.24
-23.07
-25.24
-26.17
-25.51
-23.26
-19.74
-15.50
-11.16
-7.26
-4.14
-1.91
-0.49
0.28
0.59
0.58
0.35
0.01
-0.29
-0.40
-0.22
0.30
1.11
2.10
3.12
4.06
4.89
5.65
6.45
7.40
8.47
9.48
10.16
10.26
9.69
8.60
7.24
5.89
4.72
3.75
2.92
2.21
1.60
1.13
0.85
0.71
0.68
0.63
0.46
0.00
-0.85
-2.13
-3.78
-5.62
-7.40
-8.91
-10.06
-10.90
-11.58
-12.32
-13.38
-14.93
-17.11
-19.87
-23.01
-26.11
-28.63
-30.06
-30.01
-28.42
-25.49
-21.64
-17.43
-13.34
-9.74
-6.80
-4.56
-2.97
-1.93
-1.34
-1.10
-1.09
-1.16
-1.22
-1.17
-0.99
-0.65
-0.15
0.51
1.35
2.35
3.54
4.86
6.23
7.55
8.69
9.51
9.93
9.92
9.55
8.94
8.27
7.69
7.29
7.11
7.08
7.09
6.98
6.63
6.01
5.15
4.16
3.15
2.14
1.10
-0.10
-1.58
-3.39
-5.47
-7.70
-9.90
-11.97
-13.90
-15.78
-17.74
-19.92
-22.43
-25.27
-28.30
-31.19
-33.42
-34.40
-33.69
-31.14
-26.98
-21.75
-16.11
-10.67
-5.79
-1.66
1.70
4.24
5.91
6.64
6.48
5.65
4.57
3.71
3.46
3.98
5.17
6.69
8.18
9.42
10.36
11.18
12.15
13.41
14.98
16.65
18.13
19.13
19.51
19.27
18.60
17.72
16.81
15.98
15.25
14.57
13.89
13.26
12.73
12.38
12.22
12.13
11.92
11.40
10.43
9.02
7.25
5.26
3.14
0.97
-1.18
-3.26
-5.17
-6.90
-8.53
-10.30
-12.50
-15.38
-18.93
-22.86
-26.55
-29.31
-30.54
-29.92
-27.52
-23.68
-18.97
-13.92
-9.01
-4.51
-0.57
2.77
5.52
7.68
9.28
10.30
10.76
10.71
10.28
9.67
9.14
8.92
9.11
9.70
10.56
11.52
12.46
13.35
14.21
15.07
15.89
16.49
16.71
16.46
15.78
14.84
13.80
12.72
11.58
10.29
8.84
7.34
5.98
4.97
4.38
4.13
4.01
3.80
3.34
2.47
1.18
-0.56
-2.69
-5.06
-7.46
-9.68
-11.55
-13.05
-14.30
-15.52
-16.99
-18.98
-21.71
-25.22
-29.36
-33.71
-37.60
-40.28
-41.06
-39.61
-36.02
-30.76
-24.54
-18.08
-11.96
-6.54
-1.93
1.91
5.08
7.70
9.86
11.61
12.99
14.05
14.89
15.59
16.28
17.04
17.94
18.98
20.15
21.44
22.87
24.42
26.07
27.67
29.04
29.94
30.24
29.93
29.17
28.21
27.26
26.43
25.69
24.94
24.10
23.16
22.15
21.10
19.94
18.55
16.84
14.86
12.78
10.85
9.26
8.03
6.91
5.61
3.86
1.58
-1.09
-3.85
-6.47
-8.83
-10.98
-13.12
-15.44
-18.14
-21.36
-25.07
-29.12
-33.16
-36.69
-39.08
-39.73
-38.25
-34.58
-29.02
-22.24
-15.06
-8.31
-2.56
1.93
5.22
7.61
9.37
10.72
11.70
12.31
12.60
12.73
12.96
13.51
14.44
15.58
16.71
17.62
18.30
18.87
19.50
20.28
21.15
21.94
22.46
22.64
22.51
22.17
21.76
21.32
20.83
20.24
19.59
18.89
18.20
17.59
17.04
16.50
15.89
15.10
14.08
12.87
11.56
10.27
9.06
7.94
6.76
5.37
3.61
1.47
-0.99
-3.63
-6.31
-8.94
-11.53
-14.20
-17.06
-20.20
-23.70
-27.55
-31.61
-35.63
-39.23
-41.95
-43.35
-43.06
-40.93
-37.12
-32.05
-26.34
-20.64
-15.46
-11.05
-7.42
-4.41
-1.80
0.53
2.59
4.34
5.72
6.75
7.50
8.13
8.74
9.39
10.05
10.74
11.45
12.23
13.09
13.96
14.70
15.12
15.10
14.66
14.03
13.47
13.21
13.26
13.43
13.40
12.92
11.92
10.50
8.93
7.43
6.12
4.95
3.78
2.45
0.88
-0.93
-2.86
-4.80
-6.61
-8.29
-9.91
-11.67
-13.82
-16.56
-19.93
-23.71
-27.40
-30.34
-31.89
-31.55
-29.21
-25.07
-19.68
-13.71
-7.84
-2.58
1.83
5.38
8.22
10.50
12.32
13.68
14.58
15.00
15.06
14.90
14.72
14.65
14.73
14.99
15.42
16.02
16.81
17.73
18.70
19.58
20.22
20.53
20.48
20.13
19.57
18.86
17.98
16.87
15.53
14.03
12.52
11.21
10.16
9.30
8.42
7.26
5.70
3.77
1.63
-0.54
-2.68
-4.78
-6.88
-9.00
-11.18
-13.47
-16.06
-19.13
-22.78
-26.84
-30.86
-34.21
-36.22
-36.47
-34.80
-31.38
-26.56
-20.79
-14.57
-8.37
-2.62
2.38
6.47
9.66
12.10
13.92
15.30
16.32
17.01
17.43
17.71
18.07
18.71
19.76
21.13
22.59
23.85
24.70
25.15
25.38
25.63
26.05
26.56
26.90
26.80
26.14
24.99
23.59
22.17
20.85
19.60
18.31
16.88
15.32
13.65
11.97
10.28
8.54
6.70
4.68
2.49
0.13
-2.35
-4.94
-7.57
-10.09
-12.37
-14.24
-15.71
-16.93
-18.23
-20.05
-22.76
-26.49
-31.10
-36.05
-40.58
-43.82
-45.06
-43.98
-40.69
-35.72
-29.81
-23.74
-18.01
-12.94
-8.57
-4.85
-1.70
0.91
3.02
4.64
5.82
6.62
7.20
7.74
8.42
9.39
10.64
12.02
13.34
14.40
15.15
15.65
16.05
16.43
16.75
16.87
16.67
16.12
15.34
14.56
13.97
13.66
13.57
13.50
13.27
12.80
12.12
11.35
10.62
9.99
9.46
9.03
8.61
8.17
7.60
6.80
5.70
4.27
2.56
0.70
-1.20
-3.06
-4.91
-6.82
-8.83
-10.88
-12.86
-14.62
-16.12
-17.46
-18.84
-20.50
-22.56
-25.07
-27.94
-31.06
-34.33
-37.61
-40.68
-43.14
-44.50
-44.30
-42.29
-38.52
-33.38
-27.45
-21.39
-15.73
-10.79
-6.68
-3.35
-0.68
1.48
3.26
4.74
5.98
7.00
7.85
8.55
9.18
9.81
10.49
11.24
12.05
12.91
13.79
14.73
15.74
16.77
17.72
18.42
18.72
18.60
18.21
17.76
17.45
17.35
17.35
17.25
16.91
16.31
15.54
14.79
14.10
13.46
12.76
11.90
10.88
9.79
8.74
7.79
6.92
5.98
4.86
3.47
1.78
-0.16
-2.29
-4.50
-6.72
-8.86
-10.90
-12.89
-14.97
-17.37
-20.27
-23.76
-27.70
-31.70
-35.18
-37.52
-38.24
-37.18
-34.48
-30.56
-25.92
-21.05
-16.27
-11.75
-7.54
-3.63
-0.04
3.20
5.99
8.23
9.84
10.85
11.37
11.63
11.93
12.50
13.45
14.77
16.31
17.88
19.28
20.37
21.05
21.28
21.09
20.61
20.00
19.43
19.02
18.76
18.53
18.13
17.42
16.33
14.91
13.29
11.65
10.12
8.81
7.74
6.81
5.87
4.73
3.20
1.24
-1.05
-3.49
-5.85
-7.98
-9.89
-11.70
-13.56
-15.62
-18.02
-20.85
-24.16
-27.97
-32.12
-36.28
-39.97
-42.62
-43.76
-43.08
-40.57
-36.47
-31.26
-25.51
-19.79
-14.50
-9.88
-5.98
-2.75
-0.17
1.82
3.21
4.11
4.68
5.10
5.54
6.10
6.76
7.50
8.34
9.36
10.71
12.38
14.23
15.96
17.27
17.96
18.02
17.63
17.01
16.35
15.74
15.18
14.63
14.05
13.43
12.81
12.18
11.53
10.88
10.23
9.65
9.18
8.79
8.39
7.84
7.08
6.09
4.95
3.74
2.57
1.47
0.36
-0.89
-2.48
-4.60
-7.32
-10.57
-14.07
-17.47
-20.41
-22.77
-24.67
-26.51
-28.78
-31.78
-35.52
-39.63
-43.43
-46.13
-47.09
-45.92
-42.57
-37.40
-30.96
-23.93
-16.98
-10.66
-5.31
-1.04
2.22
4.70
6.64
8.20
9.47
10.46
11.15
11.57
11.80
11.94
12.14
12.55
13.28
14.44
16.03
17.98
20.08
22.02
23.52
24.42
24.66
24.28
23.39
22.14
20.66
19.18
17.90
17.00
16.50
16.23
15.87
15.08
13.74
11.95
10.03
8.34
7.04
6.07
5.16
3.99
2.33
0.17
-2.33
-4.90
-7.34
-9.56
-11.58
-13.56
-15.71
-18.24
-21.29
-24.94
-29.08
-33.48
-37.69
-41.09
-42.97
-42.79
-40.33
-35.83
-29.93
-23.44
-17.07
-11.18
-5.83
-0.89
3.70
7.84
11.28
13.77
15.28
15.96
16.16
16.21
16.34
16.64
17.17
17.93
18.96
20.27
21.81
23.40
24.78
25.69
26.00
25.64
24.76
23.53
22.17
20.93
20.00
19.49
19.43
19.68
20.01
20.15
19.92
19.27
18.36
17.41
16.62
16.04
15.60
15.08
14.32
13.23
11.81
10.14
8.31
6.39
4.37
2.30
0.18
-1.95
-4.08
-6.28
-8.64
-11.25
-14.10
-17.02
-19.78
-22.20
-24.25
-26.12
-28.19
-30.86
-34.35
-38.56
-43.01
-46.93
-49.50
-50.07
-48.38
-44.62
-39.34
-33.26
-27.07
-21.21
-15.84
-10.96
-6.47
-2.38
1.22
4.19
6.47
8.14
9.48
10.81
12.42
14.37
16.52
18.56
20.24
21.43
22.25
22.91
23.64
24.51
25.45
26.26
26.75
26.81
26.48
25.85
25.09
24.30
23.58
22.96
22.44
21.99
21.60
21.23
20.80
20.27
19.64
18.89
18.11
17.34
16.61
15.88
15.03
13.92
12.52
10.87
9.08
7.22
5.26
3.10
0.61
-2.18
-5.12
-7.97
-10.59
-13.03
-15.55
-18.49
-22.16
-26.63
-31.72
-36.95
-41.71
-45.36
-47.32
-47.27
-45.17
-41.24
-35.93
-29.83
-23.48
-17.30
-11.58
-6.47
-2.04
1.68
4.72
7.15
9.11
10.83
12.47
14.08
15.65
17.08
18.34
19.51
20.74
22.17
23.80
25.44
26.76
27.51
27.59
27.11
26.29
25.30
24.18
22.91
21.44
19.79
18.08
16.46
15.03
13.77
12.63
11.47
10.23
8.82
7.26
5.55
3.72
1.82
-0.13
-2.12
-4.22
-6.49
-8.95
-11.53
-14.05
-16.35
-18.36
-20.23
-22.24
-24.76
-28.02
-31.97
-36.26
-40.30
-43.40
-44.97
-44.68
-42.52
-38.77
-33.88
-28.33
-22.58
-16.96
-11.75
-7.12
-3.21
-0.03
2.46
4.42
6.04
7.52
8.97
10.44
11.86
13.19
14.39
15.48
16.58
17.80
19.19
20.71
22.20
23.46
24.30
24.69
24.65
24.31
23.81
23.18
22.47
21.69
20.85
20.06
19.36
18.79
18.32
17.87
17.41
16.91
16.40
15.89
15.32
14.61
13.65
12.41
10.96
9.44
8.02
6.77
5.63
4.39
2.81
0.70
-2.00
-5.15
-8.50
-11.72
-14.59
-16.99
-19.01
-20.89
-22.95
-25.46
-28.57
-32.30
-36.42
-40.56
-44.15
-46.57
-47.27
-45.88
-42.39
-37.21
-31.09
-24.89
-19.31
-14.64
-10.76
-7.29
-3.87
-0.41
2.91
5.73
7.82
9.18
10.07
10.87
11.90
13.23
14.77
16.34
17.85
19.28
20.69
22.07
23.31
24.24
24.74
24.78
24.48
23.98
23.40
22.76
22.02
21.16
20.21
19.25
18.35
17.48
16.56
15.50
14.26
12.93
11.64
10.51
9.54
8.67
7.75
6.64
5.24
3.46
1.25
-1.38
-4.36
-7.51
-10.62
-13.52
-16.17
-18.59
-20.91
-23.30
-25.92
-28.92
-32.45
-36.47
-40.73
-44.66
-47.54
-48.66
-47.64
-44.53
-39.82
-34.24
-28.50
-23.13
-18.42
-14.42
-11.05
-8.20
-5.76
-3.61
-1.66
0.16
1.93
3.72
5.56
7.42
9.25
10.99
12.61
14.14
15.66
17.20
18.81
20.45
22.04
23.44
24.56
25.31
25.65
25.66
25.45
25.16
24.89
24.63
24.28
23.67
22.70
21.37
19.89
18.47
17.33
16.49
15.75
14.85
13.53
11.74
9.63
7.45
5.41
3.59
1.93
0.31
-1.40
-3.20
-5.05
-6.94
-8.90
-11.00
-13.27
-15.64
-17.95
-20.07
-21.99
-23.91
-26.18
-29.15
-32.98
-37.54
-42.35
-46.69
-49.77
-50.96
-49.94
-46.74
-41.75
-35.57
-28.89
-22.33
-16.34
-11.11
-6.68
-3.00
0.03
2.47
4.37
5.81
6.91
7.85
8.75
9.71
10.72
11.76
12.87
14.15
15.70
17.54
19.51
21.32
22.69
23.50
23.84
23.94
24.01
24.16
24.34
24.42
24.31
23.98
23.52
22.99
22.49
22.02
21.58
21.12
20.59
19.92
19.05
17.99
16.79
15.53
14.30
13.13
11.98
10.82
9.57
8.17
6.54
4.60
2.29
-0.40
-3.37
-6.50
-9.62
-12.64
-15.58
-18.58
-21.85
-25.56
-29.76
-34.30
-38.81
-42.77
-45.60
-46.84
-46.25
-43.89
-40.03
-35.12
-29.65
-24.09
-18.81
-14.05
-9.91
-6.33
-3.16
-0.24
2.48
4.99
7.21
9.07
10.64
12.04
13.41
14.83
16.33
17.84
19.31
20.77
22.17
23.47
24.50
25.08
25.11
24.60
23.75
22.77
21.81
20.90
19.95
18.84
17.53
16.06
14.57
13.21
12.05
11.07
10.15
9.17
7.96
6.51
4.84
3.06
1.28
-0.45
-2.16
-3.96
-5.93
-8.14
-10.55
-13.08
-15.64
-18.15
-20.61
-23.02
-25.48
-28.16
-31.23
-34.82
-38.82
-42.84
-46.21
-48.19
-48.22
-46.12
-42.16
-36.91
-31.08
-25.25
-19.80
-14.88
-10.51
-6.62
-3.12
0.01
2.78
5.13
6.99
8.38
9.39
10.20
11.04
12.06
13.30
14.68
16.11
17.56
19.07
20.71
22.44
24.07
25.36
26.11
26.27
25.98
25.51
25.09
24.81
24.60
24.30
23.85
23.28
22.72
22.28
21.94
21.61
21.14
20.45
19.59
18.64
17.65
16.57
15.29
13.69
11.75
9.59
7.37
5.22
3.11
0.88
-1.67
-4.63
-7.98
-11.52
-15.01
-18.27
-21.28
-24.20
-27.27
-30.76
-34.81
-39.32
-43.99
-48.26
-51.44
-52.89
-52.18
-49.20
-44.26
-37.96
-31.08
-24.33
-18.22
-13.01
-8.70
-5.17
-2.22
0.36
2.72
4.98
7.13
9.18
11.05
12.70
14.13
15.37
16.46
17.48
18.48
19.59
20.89
22.47
24.33
26.30
28.14
29.54
30.32
30.40
29.90
29.00
27.87
26.60
25.21
23.72
22.23
20.87
19.76
18.93
18.24
17.52
16.55
15.27
13.70
11.98
10.28
8.69
7.19
5.62
3.80
1.56
-1.09
-4.06
-7.08
-9.94
-12.54
-14.90
-17.23
-19.75
-22.70
-26.24
-30.44
-35.21
-40.25
-44.99
-48.69
-50.59
-50.12
-47.16
-42.04
-35.54
-28.56
-21.96
-16.28
-11.69
-8.01
-4.90
-2.09
0.53
2.89
4.82
6.29
7.38
8.38
9.51
10.86
12.36
13.83
15.18
16.49
17.90
19.56
21.40
23.20
24.64
25.46
25.61
25.25
24.65
24.07
23.70
23.55
23.49
23.35
22.96
22.27
21.27
20.02
18.57
16.93
15.11
13.14
11.10
9.16
7.44
5.97
4.61
3.09
1.17
-1.33
-4.37
-7.74
-11.14
-14.28
-17.00
-19.32
-21.44
-23.66
-26.34
-29.72
-33.83
-38.38
-42.80
-46.32
-48.23
-48.01
-45.57
-41.19
-35.48
-29.14
-22.81
-16.97
-11.82
-7.43
-3.73
-0.61
2.06
4.37
6.43
8.31
10.06
11.71
13.26
14.68
15.94
17.03
17.97
18.87
19.81
20.86
22.02
23.24
24.44
25.55
26.49
27.20
27.59
27.52
26.90
25.76
24.24
22.64
21.26
20.28
19.65
19.16
18.55
17.72
16.75
15.91
15.41
15.27
15.22
14.84
13.79
11.97
9.59
7.03
4.62
2.48
0.49
-1.56
-3.94
-6.75
-9.97
-13.49
-17.15
-20.74
-24.04
-26.89
-29.23
-31.22
-33.17
-35.54
-38.64
-42.52
-46.84
-50.90
-53.87
-54.97
-53.75
-50.22
-44.76
-38.04
-30.81
-23.71
-17.21
-11.59
-6.92
-3.12
0.05
2.89
5.68
8.57
11.56
14.49
17.19
19.54
21.51
23.21
24.77
26.33
27.94
29.65
31.39
33.10
34.62
35.77
36.44
36.57
36.24
35.54
34.57
33.36
31.91
30.17
28.16
25.95
23.66
21.36
19.11
16.89
14.71
12.54
10.40
8.32
6.34
4.44
2.55
0.61
-1.51
-3.87
-6.46
-9.23
-12.08
-14.94
-17.83
-20.86
-24.16
-27.89
-32.06
-36.55
-40.99
-44.80
-47.36
-48.06
-46.57
-42.93
-37.56
-31.14
-24.42
-18.05
-12.39
-7.51
-3.29
0.42
3.74
6.65
9.07
10.95
12.30
13.26
14.00
14.69
15.46
16.37
17.45
18.72
20.17
21.72
23.24
24.51
25.37
25.71
25.52
24.88
23.89
22.65
21.26
19.76
18.18
16.50
14.68
12.65
10.45
8.21
6.09
4.27
2.79
1.57
0.37
-1.05
-2.87
-5.08
-7.58
-10.19
-12.78
-15.29
-17.76
-20.29
-23.00
-26.01
-29.41
-33.30
-37.61
-42.08
-46.17
-49.13
-50.23
-48.95
-45.29
-39.68
-32.95
-26.01
-19.61
-14.15
-9.68
-6.01
-2.83
0.09
2.84
5.38
7.61
9.44
10.87
12.00
12.96
13.87
14.78
15.71
16.64
17.60
18.63
19.75
20.94
22.06
22.96
23.52
23.70
23.55
23.19
22.72
22.16
21.52
20.79
19.95
19.06
18.14
17.19
16.17
15.06
13.85
12.52
11.12
9.69
8.27
6.86
5.38
3.67
1.56
-1.05
-4.09
-7.31
-10.43
-13.23
-15.67
-17.96
-20.41
-23.26
-26.66
-30.64
-35.13
-39.96
-44.76
-48.95
-51.75
-52.46
-50.68
-46.52
-40.59
-33.75
-26.87
-20.50
-14.85
-9.86
-5.41
-1.37
2.28
5.45
8.10
10.19
11.78
13.02
14.11
15.23
16.51
17.98
19.61
21.34
23.04
24.60
25.89
26.83
27.40
27.65
27.68
27.60
27.46
27.22
26.81
26.14
25.23
24.14
22.98
21.85
20.79
19.78
18.74
17.61
16.34
14.95
13.48
12.08
10.84
9.74
8.65
7.29
5.39
2.81
-0.38
-3.96
-7.60
-11.05
-14.19
-17.08
-19.85
-22.67
-25.70
-29.07
-32.89
-37.20
-41.79
-46.18
-49.62
-51.31
-50.65
-47.50
-42.20
-35.48
-28.21
-21.13
-14.74
-9.19
-4.42
-0.26
3.44
6.70
9.50
11.74
13.44
14.69
15.73
16.81
18.08
19.52
20.95
22.18
23.12
23.81
24.43
25.13
25.93
26.68
27.14
27.10
26.46
25.29
23.80
22.24
20.80
19.52
18.35
17.14
15.76
14.16
12.43
10.71
9.18
7.90
6.78
5.61
4.14
2.20
-0.25
-3.07
-6.07
-9.07
-11.95
-14.71
-17.41
-20.19
-23.21
-26.69
-30.83
-35.73
-41.30
-47.10
-52.38
-56.25
-57.90
-56.86
-53.20
-47.46
-40.46
-33.04
-25.87
-19.33
-13.53
-8.42
-3.85
0.26
3.97
7.23
9.97
12.17
13.89
15.29
16.60
18.05
19.74
21.60
23.43
24.97
26.06
26.74
27.19
27.68
28.38
29.33
30.34
31.17
31.56
31.38
30.67
29.59
28.32
27.01
25.70
24.35
22.90
21.29
19.51
17.60
15.61
13.58
11.50
9.31
6.98
4.50
1.92
-0.69
-3.27
-5.82
-8.32
-10.74
-13.07
-15.30
-17.51
-19.92
-22.84
-26.59
-31.34
-36.93
-42.86
-48.26
-52.21
-53.94
-53.11
-49.87
-44.75
-38.47
-31.68
-24.84
-18.28
-12.21
-6.79
-2.12
1.81
5.11
7.92
10.36
12.46
14.18
15.54
16.62
17.60
18.65
19.87
21.28
22.82
24.39
25.87
27.12
28.01
28.44
28.40
27.99
27.34
26.62
25.90
25.25
24.65
24.07
23.43
22.58
21.38
19.74
17.66
15.31
12.92
10.69
8.67
6.73
4.64
2.17
-0.79
-4.12
-7.58
-10.91
-13.89
-16.51
-18.95
-21.49
-24.44
-28.05
-32.42
-37.37
-42.51
-47.18
-50.58
-52.05
-51.19
-48.05
-43.15
-37.16
-30.78
-24.45
-18.38
-12.63
-7.22
-2.24
2.20
6.01
9.21
11.85
14.00
15.70
17.00
18.01
18.89
19.85
20.96
22.20
23.43
24.48
25.29
25.89
26.38
26.82
27.20
27.37
27.19
26.58
25.60
24.40
23.17
22.03
21.00
20.00
18.93
17.68
16.22
14.57
12.81
10.98
9.07
7.03
4.74
2.11
-0.88
-4.17
-7.61
-11.02
-14.26
-17.25
-20.04
-22.70
-25.39
-28.35
-31.80
-35.96
-40.80
-46.00
-50.85
-54.44
-55.90
-54.75
-50.96
-45.03
-37.72
-29.84
-22.11
-15.01
-8.80
-3.54
0.89
4.74
8.22
11.47
14.47
17.09
19.22
20.84
22.05
22.99
23.80
24.54
25.22
25.89
26.58
27.35
28.24
29.23
30.21
31.07
31.71
32.03
31.97
31.52
30.68
29.53
28.19
26.84
25.64
24.66
23.86
23.11
22.21
20.99
19.38
17.39
15.11
12.67
10.17
7.67
5.21
2.83
0.54
-1.71
-4.00
-6.43
-9.02
-11.68
-14.30
-16.75
-19.11
-21.63
-24.70
-28.63
-33.46
-38.82
-43.98
-48.03
-50.15
-49.84
-47.10
-42.31
-36.17
-29.43
-22.74
-16.51
-10.99
-6.17
-2.03
1.55
4.68
7.41
9.75
11.71
13.26
14.42
15.26
15.89
16.47
17.16
18.09
19.31
20.78
22.35
23.85
25.10
26.03
26.61
26.90
26.91
26.63
26.03
25.07
23.78
22.24
20.58
18.91
17.26
15.53
13.63
11.51
9.25
6.98
4.91
3.12
1.59
0.15
-1.47
-3.47
-5.96
-8.92
-12.17
-15.50
-18.68
-21.63
-24.35
-27.02
-29.92
-33.33
-37.41
-42.04
-46.76
-50.86
-53.49
-53.96
-51.93
-47.56
-41.42
-34.34
-27.14
-20.41
-14.43
-9.27
-4.88
-1.16
1.88
4.32
6.24
7.81
9.27
10.83
12.57
14.44
16.28
17.96
19.42
20.71
21.98
23.36
24.89
26.48
27.99
29.21
29.99
30.28
30.07
29.39
28.29
26.84
25.16
23.45
21.94
20.73
19.84
19.03
18.02
16.52
14.46
12.01
9.52
7.36
5.79
4.81
4.15
3.43
2.28
0.48
-1.99
-5.01
-8.35
-11.76
-15.06
-18.14
-20.96
-23.61
-26.28
-29.23
-32.72
-36.84
-41.36
-45.75
-49.19
-50.84
-50.10
-46.81
-41.30
-34.33
-26.84
-19.73
-13.60
-8.68
-4.84
-1.72
1.03
3.67
6.22
8.61
10.71
12.50
14.06
15.52
17.01
18.58
20.19
21.78
23.32
24.80
26.23
27.58
28.80
29.79
30.46
30.72
30.51
29.84
28.77
27.41
25.87
24.26
22.67
21.14
19.67
18.26
16.87
15.45
13.96
12.37
10.70
9.01
7.33
5.63
3.77
1.53
-1.23
-4.48
-8.04
-11.55
-14.72
-17.41
-19.74
-21.99
-24.56
-27.76
-31.70
-36.26
-41.08
-45.61
-49.19
-51.23
-51.27
-49.16
-45.08
-39.56
-33.28
-26.95
-21.07
-15.89
-11.38
-7.38
-3.75
-0.42
2.55
5.13
7.29
9.11
10.70
12.16
13.52
14.75
15.88
16.94
18.05
19.28
20.67
22.12
23.46
24.50
25.11
25.25
24.97
24.38
23.60
22.72
21.82
20.86
19.82
18.68
17.45
16.18
14.96
13.84
12.80
11.79
10.70
9.45
8.02
6.36
4.46
2.23
-0.40
-3.45
-6.77
-10.12
-13.21
-15.85
-18.04
-19.93
-21.81
-23.99
-26.70
-30.13
-34.34
-39.25
-44.49
-49.44
-53.28
-55.21
-54.73
-51.77
-46.75
-40.41
-33.54
-26.79
-20.52
-14.90
-9.88
-5.41
-1.36
2.36
5.80
8.96
11.81
14.28
16.30
17.88
19.15
20.30
21.51
22.89
24.49
26.19
27.83
29.22
30.19
30.67
30.71
30.41
29.91
29.33
28.69
27.99
27.19
26.26
25.23
24.09
22.89
21.63
20.32
18.95
17.54
16.11
14.70
13.33
12.01
10.70
9.33
7.85
6.17
4.23
1.94
-0.75
-3.81
-7.13
-10.55
-13.89
-17.01
-19.92
-22.74
-25.78
-29.35
-33.71
-38.82
-44.27
-49.29
-52.90
-54.27
-52.95
-49.14
-43.52
-37.02
-30.50
-24.44
-18.97
-13.96
-9.27
-4.89
-0.98
2.30
4.83
6.66
8.03
9.19
10.38
11.66
12.99
14.26
15.38
16.42
17.53
18.88
20.51
22.28
23.90
25.09
25.68
25.66
25.15
24.30
23.23
21.99
20.70
19.43
18.25
17.16
16.05
14.76
13.17
11.30
9.30
7.37
5.66
4.17
2.78
1.28
-0.53
-2.79
-5.50
-8.56
-11.79
-14.99
-18.04
-20.92
-23.83
-27.04
-30.86
-35.40
-40.55
-45.86
-50.59
-53.97
-55.30
-54.25
-50.84
-45.52
-38.94
-31.87
-24.91
-18.48
-12.73
-7.62
-3.03
1.15
4.97
8.38
11.31
13.69
15.55
16.99
18.20
19.39
20.71
22.27
24.09
26.13
28.29
30.37
32.14
33.38
33.95
33.87
33.26
32.32
31.23
30.09
28.96
27.86
26.85
25.95
25.15
24.38
23.50
22.45
21.21
19.89
18.62
17.51
16.55
15.61
14.56
13.27
11.72
9.98
8.18
6.40
4.63
2.75
0.58
-2.02
-5.08
-8.48
-11.98
-15.33
-18.36
-21.05
-23.53
-25.99
-28.61
-31.53
-34.86
-38.68
-42.96
-47.49
-51.81
-55.23
-57.03
-56.67
-53.99
-49.26
-43.06
-36.11
-29.01
-22.18
-15.84
-10.08
-4.95
-0.50
3.27
6.38
8.88
10.90
12.60
14.12
15.58
17.00
18.37
19.68
20.94
22.23
23.62
25.11
26.61
27.96
29.02
29.72
30.09
30.20
30.08
29.74
29.18
28.47
27.72
27.05
26.49
25.94
25.14
23.82
21.83
19.21
16.21
13.22
10.58
8.47
6.80
5.29
3.61
1.48
-1.14
-4.16
-7.36
-10.57
-13.70
-16.80
-19.99
-23.38
-27.04
-31.04
-35.40
-40.13
-45.11
-50.02
-54.30
-57.18
-57.93
-56.09
-51.67
-45.20
-37.53
-29.59
-22.11
-15.46
-9.75
-4.91
-0.84
2.58
5.37
7.60
9.36
10.77
11.98
13.19
14.49
15.96
17.59
19.35
21.18
23.04
24.94
26.87
28.77
30.51
31.92
32.87
33.29
33.22
32.79
32.14
31.33
30.34
29.11
27.61
25.87
24.04
22.30
20.78
19.52
18.41
17.25
15.89
14.25
12.40
10.50
8.70
7.05
5.44
3.66
1.47
-1.24
-4.47
-7.98
-11.50
-14.80
-17.79
-20.60
-23.44
-26.59
-30.30
-34.72
-39.88
-45.59
-51.41
-56.65
-60.48
-62.11
-61.05
-57.32
-51.37
-43.99
-36.01
-28.11
-20.73
-14.12
-8.37
-3.45
0.72
4.32
7.47
10.28
12.75
14.86
16.68
18.37
20.15
22.14
24.27
26.34
28.12
29.54
30.73
31.91
33.16
34.32
35.01
34.86
33.70
31.72
29.31
26.94
24.92
23.30
21.99
20.82
19.67
18.46
17.13
15.63
13.92
12.02
9.95
7.84
5.73
3.61
1.39
-1.01
-3.63
-6.42
-9.33
-12.28
-15.21
-18.13
-21.04
-24.00
-27.16
-30.78
-35.08
-40.15
-45.72
-51.07
-55.21
-57.14
-56.22
-52.40
-46.26
-38.76
-30.87
-23.33
-16.45
-10.23
-4.57
0.61
5.25
9.20
12.33
14.62
16.21
17.33
18.26
19.19
20.19
21.25
22.29
23.26
24.19
25.16
26.27
27.51
28.80
29.94
30.72
31.00
30.76
30.04
28.91
27.45
25.74
23.86
21.92
19.99
18.08
16.12
14.03
11.74
9.31
6.85
4.53
2.48
0.64
-1.16
-3.19
-5.65
-8.63
-11.99
-15.48
-18.79
-21.76
-24.38
-26.90
-29.63
-32.94
-37.03
-41.90
-47.25
-52.50
-56.88
-59.55
-59.84
-57.44
-52.54
-45.78
-38.05
-30.18
-22.78
-16.11
-10.14
-4.77
0.10
4.47
8.31
11.61
14.41
16.81
18.92
20.82
22.54
24.13
25.63
27.08
28.54
30.03
31.56
33.09
34.52
35.72
36.48
36.65
36.16
35.03
33.46
31.68
29.93
28.34
26.96
25.73
24.56
23.34
21.99
20.51
18.90
17.23
15.58
14.03
12.65
11.44
10.34
9.18
7.76
5.84
3.27
0.02
-3.79
-7.91
-12.02
-15.86
-19.34
-22.50
-25.56
-28.81
-32.54
-36.93
-41.96
-47.32
-52.40
-56.37
-58.35
-57.70
-54.20
-48.17
-40.42
-31.94
-23.67
-16.20
-9.77
-4.33
0.32
4.33
7.79
10.75
13.25
15.38
17.29
19.13
21.05
23.08
25.11
26.95
28.42
29.42
30.01
30.36
30.67
31.00
31.25
31.22
30.70
29.63
28.14
26.43
24.64
22.84
20.93
18.86
16.60
14.27
12.02
9.98
8.23
6.71
5.29
3.78
2.05
-0.00
-2.42
-5.16
-8.12
-11.16
-14.17
-17.07
-19.88
-22.67
-25.62
-28.93
-32.81
-37.40
-42.57
-47.89
-52.58
-55.68
-56.34
-54.08
-49.04
-41.89
-33.63
-25.28
-17.56
-10.76
-4.84
0.38
5.05
9.20
12.72
15.52
17.62
19.13
20.28
21.31
22.42
23.72
25.17
26.66
28.04
29.23
30.24
31.14
32.00
32.77
33.29
33.34
32.75
31.54
29.95
28.30
26.90
25.85
25.01
24.09
22.86
21.21
19.25
17.21
15.32
13.70
12.36
11.22
10.14
9.01
7.76
6.35
4.75
2.93
0.90
-1.40
-3.98
-6.92
-10.24
-13.91
-17.79
-21.61
-25.11
-28.09
-30.62
-32.99
-35.67
-39.06
-43.35
-48.37
-53.58
-58.22
-61.45
-62.58
-61.14
-57.06
-50.69
-42.74
-34.18
-25.94
-18.66
-12.57
-7.46
-2.97
1.19
5.08
8.59
11.55
13.93
15.89
17.67
19.50
21.44
23.43
25.36
27.18
28.89
30.58
32.28
33.95
35.45
36.55
37.10
36.98
36.27
35.06
33.54
31.85
30.10
28.39
26.81
25.40
24.16
22.98
21.67
20.06
18.11
15.91
13.70
11.68
9.99
8.53
7.11
5.45
3.31
0.54
-2.87
-6.75
-10.82
-14.77
-18.37
-21.61
-24.70
-28.03
-31.99
-36.82
-42.35
-48.03
-53.00
-56.28
-57.11
-55.11
-50.47
-43.80
-36.01
-27.98
-20.41
-13.67
-7.81
-2.79
1.50
5.14
8.20
10.76
12.95
14.88
16.59
18.09
19.31
20.21
20.84
21.38
22.05
23.08
24.57
26.46
28.45
30.15
31.18
31.33
30.62
29.29
27.70
26.15
24.80
23.62
22.41
20.99
19.24
17.15
14.83
12.36
9.82
7.24
4.66
2.11
-0.38
-2.81
-5.26
-7.84
-10.63
-13.59
-16.56
-19.34
-21.83
-24.08
-26.36
-29.08
-32.64
-37.23
-42.73
-48.60
-53.93
-57.70
-59.03
-57.47
-53.22
-46.95
-39.61
-32.12
-25.10
-18.82
-13.31
-8.49
-4.24
-0.46
2.89
5.89
8.57
10.98
13.17
15.23
17.27
19.33
21.35
23.22
24.80
26.03
27.00
27.85
28.70
29.56
30.31
30.79
30.85
30.47
29.70
28.67
27.50
26.24
24.91
23.50
22.00
20.51
19.12
17.90
16.83
15.84
14.76
13.43
11.82
10.01
8.11
6.26
4.46
2.61
0.52
-1.99
-4.98
-8.39
-12.03
-15.67
-19.12
-22.31
-25.33
-28.40
-31.82
-35.83
-40.47
-45.47
-50.30
-54.17
-56.28
-56.04
-53.28
-48.24
-41.54
-33.96
-26.23
-18.89
-12.22
-6.33
-1.21
3.21
6.97
10.15
12.84
15.18
17.24
19.10
20.72
22.08
23.10
23.79
24.18
24.44
24.76
25.31
26.18
27.35
28.63
29.76
30.49
30.65
30.17
29.13
27.75
26.24
24.83
23.62
22.63
21.73
20.73
19.46
17.77
15.69
13.32
10.87
8.49
6.27
4.14
1.92
-0.57
-3.49
-6.85
-10.54
-14.33
-17.94
-21.19
-24.01
-26.58
-29.20
-32.26
-36.10
-40.80
-46.05
-51.19
-55.28
-57.37
-56.76
-53.26
-47.21
-39.43
-30.94
-22.69
-15.36
-9.24
-4.29
-0.30
3.00
5.76
8.07
9.96
11.51
12.79
13.91
15.00
16.07
17.14
18.19
19.24
20.30
21.38
22.41
23.32
24.03
24.53
24.86
25.08
25.24
25.32
25.24
24.95
24.42
23.69
22.84
21.93
20.98
19.92
18.66
17.10
15.21
13.05
10.74
8.44
6.27
4.27
2.39
0.50
-1.51
-3.77
-6.34
-9.21
-12.29
-15.41
-18.38
-21.07
-23.43
-25.62
-27.91
-30.63
-34.05
-38.26
-43.11
-48.17
-52.82
-56.28
-57.84
-57.03
-53.78
-48.43
-41.69
-34.34
-27.10
-20.42
-14.45
-9.13
-4.31
0.12
4.13
7.59
10.35
12.32
13.63
14.52
15.36
16.46
18.00
19.96
22.20
24.54
26.81
28.94
30.81
32.33
33.36
33.80
33.63
32.97
31.97
30.82
29.65
28.46
27.22
25.88
24.47
23.08
21.85
20.90
20.23
19.74
19.16
18.26
16.88
15.04
12.93
10.80
8.82
6.95
4.99
2.63
-0.32
-3.87
-7.82
-11.83
-15.62
-19.03
-22.09
-25.01
-28.08
-31.61
-35.85
-40.86
-46.32
-51.56
-55.63
-57.56
-56.70
-52.98
-46.90
-39.35
-31.32
-23.59
-16.67
-10.76
-5.86
-1.81
1.59
4.60
7.39
10.00
12.32
14.17
15.48
16.35
16.97
17.60
18.33
19.14
19.96
20.72
21.46
22.26
23.15
24.04
24.75
25.07
24.83
24.03
22.72
21.04
19.14
17.17
15.22
13.39
11.72
10.22
8.89
7.73
6.72
5.76
4.74
3.46
1.75
-0.49
-3.21
-6.27
-9.42
-12.49
-15.35
-18.02
-20.59
-23.24
-26.15
-29.53
-33.53
-38.16
-43.19
-48.11
-52.14
-54.43
-54.31
-51.53
-46.35
-39.48
-31.86
-24.32
-17.47
-11.56
-6.57
-2.35
1.26
4.36
7.04
9.34
11.30
12.97
14.43
15.73
16.92
18.10
19.34
20.73
22.32
24.10
26.00
27.85
29.49
30.74
31.50
31.74
31.44
30.69
29.60
28.36
27.14
26.08
25.27
24.67
24.17
23.56
22.72
21.53
19.99
18.14
16.09
14.01
12.06
10.37
8.94
7.62
6.13
4.18
1.61
-1.52
-4.99
-8.51
-11.90
-15.15
-18.36
-21.73
-25.42
-29.55
-34.18
-39.36
-44.93
-50.47
-55.25
-58.37
-59.03
-56.88
-52.10
-45.44
-37.82
-30.12
-22.88
-16.34
-10.51
-5.37
-0.90
2.90
6.04
8.65
10.88
12.90
14.81
16.68
18.44
20.08
21.53
22.80
23.92
25.00
26.11
27.29
28.51
29.68
30.64
31.28
31.46
31.13
30.32
29.17
27.85
26.55
25.38
24.31
23.21
21.95
20.44
18.72
16.86
14.99
13.15
11.33
9.50
7.61
5.61
3.44
1.00
-1.82
-5.05
-8.61
-12.35
-16.08
-19.74
-23.46
-27.51
-32.20
-37.66
-43.67
-49.55
-54.39
-57.21
-57.35
-54.68
-49.63
-43.00
-35.65
-28.28
-21.23
-14.61
-8.45
-2.85
2.06
6.14
9.36
11.76
13.48
14.65
15.44
16.01
16.59
17.36
18.47
19.90
21.55
23.20
24.63
25.73
26.42
26.69
26.57
26.07
25.26
24.22
23.05
21.82
20.60
19.43
18.29
17.13
15.83
14.27
12.36
10.14
7.74
5.30
2.93
0.57
-1.87
-4.53
-7.46
-10.60
-13.84
-17.10
-20.41
-23.91
-27.81
-32.31
-37.52
-43.28
-49.18
-54.48
-58.27
-59.76
-58.48
-54.54
-48.48
-41.12
-33.21
-25.30
-17.69
-10.56
-4.08
1.54
6.16
9.71
12.31
14.19
15.64
16.86
18.01
19.14
20.27
21.42
22.62
23.85
25.11
26.35
27.53
28.61
29.60
30.50
31.27
31.82
32.02
31.76
31.01
29.86
28.47
26.95
25.33
23.57
21.63
19.55
17.43
15.45
13.73
12.28
11.03
9.82
8.49
6.81
4.60
1.76
-1.70
-5.56
-9.55
-13.37
-16.91
-20.22
-23.57
-27.28
-31.63
-36.77
-42.57
-48.63
-54.21
-58.38
-60.27
-59.32
-55.46
-49.22
-41.43
-33.06
-24.82
-17.13
-10.11
-3.73
2.05
7.19
11.60
15.21
18.02
20.13
21.72
23.00
24.12
25.16
26.19
27.22
28.31
29.52
30.85
32.17
33.32
34.06
34.27
33.95
33.24
32.32
31.38
30.50
29.65
28.71
27.54
25.99
23.96
21.44
18.52
15.41
12.39
9.70
7.43
5.47
3.54
1.33
-1.37
-4.61
-8.28
-12.15
-15.94
-19.47
-22.67
-25.68
-28.79
-32.40
-36.79
-41.98
-47.59
-52.88
-56.95
-58.98
-58.51
-55.52
-50.40
-43.77
-36.32
-28.64
-21.19
-14.23
-7.82
-1.97
3.41
8.32
12.68
16.41
19.39
21.65
23.29
24.54
25.60
26.62
27.68
28.76
29.87
30.97
32.08
33.18
34.15
34.82
35.04
34.69
33.77
32.39
30.75
29.00
27.24
25.48
23.64
21.68
19.58
17.38
15.21
13.15
11.25
9.48
7.71
5.73
3.33
0.33
-3.29
-7.33
-11.50
-15.46
-18.99
-22.11
-25.06
-28.20
-31.91
-36.43
-41.75
-47.65
-53.62
-58.90
-62.61
-64.01
-62.62
-58.45
-51.97
-43.97
-35.32
-26.73
-18.65
-11.24
-4.50
1.68
7.31
12.35
16.63
19.98
22.35
23.84
24.75
25.47
26.31
27.42
28.79
30.31
31.86
33.43
34.95
36.33
37.32
37.71
37.38
36.41
35.08
33.73
32.60
31.67
30.74
29.55
27.94
25.98
23.90
21.94
20.24
18.75
17.29
15.65
13.71
11.49
9.07
6.51
3.82
1.01
-1.94
-4.99
-8.03
-10.93
-13.57
-15.97
-18.19
-20.47
-23.09
-26.34
-30.47
-35.57
-41.46
-47.65
-53.34
-57.59
-59.60
-58.88
-55.43
-49.73
-42.51
-34.64
-26.83
-19.52
-12.91
-6.99
-1.64
3.23
7.68
11.67
15.11
17.95
20.17
21.87
23.20
24.37
25.58
26.97
28.58
30.33
32.05
33.58
34.74
35.45
35.67
35.42
34.72
33.56
32.00
30.13
28.16
26.30
24.68
23.27
21.88
20.28
18.28
15.89
13.33
10.89
8.83
7.25
6.05
4.93
3.55
1.63
-0.91
-4.00
-7.40
-10.85
-14.14
-17.19
-20.08
-22.98
-26.12
-29.69
-33.86
-38.70
-44.10
-49.70
-54.86
-58.68
-60.27
-59.02
-54.88
-48.40
-40.55
-32.36
-24.61
-17.68
-11.54
-6.01
-0.95
3.66
7.70
11.05
13.66
15.64
17.17
18.50
19.82
21.22
22.71
24.25
25.77
27.18
28.47
29.58
30.49
31.16
31.60
31.80
31.76
31.45
30.82
29.78
28.30
26.46
24.40
22.35
20.44
18.73
17.17
15.62
14.00
12.22
10.29
8.24
6.12
4.00
1.94
-0.05
-2.01
-4.04
-6.31
-8.94
-11.97
-15.33
-18.87
-22.42
-25.86
-29.18
-32.52
-36.08
-40.11
-44.71
-49.78
-54.87
-59.30
-62.26
-63.02
-61.18
-56.76
-50.16
-42.07
-33.29
-24.55
-16.43
-9.25
-3.14
2.00
6.37
10.15
13.44
16.26
18.59
20.44
21.93
23.23
24.53
25.90
27.34
28.74
30.05
31.22
32.22
33.02
33.53
33.67
33.38
32.72
31.78
30.68
29.47
28.13
26.61
24.92
23.15
21.46
19.96
18.73
17.67
16.62
15.40
13.89
12.08
10.05
7.94
5.87
3.89
1.93
-0.14
-2.49
-5.25
-8.39
-11.79
-15.18
-18.42
-21.44
-24.44
-27.73
-31.66
-36.46
-42.05
-48.03
-53.74
-58.35
-61.08
-61.38
-59.02
-54.17
-47.34
-39.21
-30.56
-22.05
-14.20
-7.37
-1.69
2.85
6.40
9.20
11.52
13.54
15.40
17.12
18.72
20.20
21.57
22.88
24.13
25.31
26.40
27.46
28.57
29.80
31.10
32.28
33.01
32.92
31.93
30.14
27.94
25.77
23.90
22.36
20.97
19.49
17.78
15.86
13.84
11.87
9.98
8.07
5.97
3.57
0.85
-2.09
-5.09
-8.00
-10.79
-13.50
-16.24
-19.05
-21.97
-25.02
-28.35
