1520868052.00
64.000000
-0.00
-0.00
-0.00
-0.00
-0.00
-0.00
-0.00
-0.00
-0.00
-0.00
0.00
0.01
0.01
-0.00
-0.03
-0.05
-0.05
0.00
0.13
0.36
0.66
1.01
1.37
1.72
2.06
2.40
2.79
3.24
3.80
4.42
5.06
5.66
6.20
6.68
7.15
7.68
8.31
9.14
10.09
11.04
11.88
12.56
13.14
13.76
14.65
15.96
17.91
20.32
22.90
25.38
27.58
29.57
31.68
34.32
37.81
42.54
48.15
54.10
59.83
64.97
69.58
74.14
79.34
85.71
93.76
103.00
112.62
121.73
129.77
136.75
143.30
150.75
157.77
166.64
177.95
191.79
206.97
220.57
228.25
225.36
208.53
176.87
132.76
80.05
23.07
-34.94
-92.44
-149.16
-205.23
-260.37
-313.74
-363.87
-409.83
-450.91
-486.50
-515.74
-537.23
-549.22
-549.96
-538.37
-514.21
-478.67
-433.88
-382.45
-327.02
-269.84
-212.63
-156.66
-102.95
-52.37
-5.90
35.58
71.43
101.35
125.50
144.38
158.69
169.15
176.37
180.75
182.57
182.07
179.51
175.23
169.65
163.18
156.15
148.81
141.30
133.69
126.02
118.33
110.69
103.16
95.80
88.68
81.83
75.25
68.95
62.95
57.25
51.86
46.78
42.03
37.59
33.45
29.61
26.07
22.81
19.83
17.11
14.67
12.48
10.54
8.83
7.35
6.07
4.97
4.05
3.27
2.62
2.09
1.65
1.30
1.01
0.79
0.61
0.47
0.37
0.28
0.22
0.18
0.15
0.12
0.11
0.11
0.12
0.13
0.15
0.17
0.20
0.24
0.28
0.32
0.36
0.41
0.45
0.50
0.55
0.60
0.65
0.71
0.77
0.83
0.90
0.98
1.07
1.16
1.27
1.39
1.53
1.68
1.85
2.04
2.24
2.47
2.73
3.02
3.33
3.67
4.05
4.46
4.90
5.39
5.90
6.46
7.06
7.70
8.38
9.11
9.89
10.70
11.56
12.47
13.42
14.44
15.52
16.65
17.85
19.10
20.38
21.64
22.82
23.83
24.54
24.87
24.65
23.82
22.28
20.02
17.06
13.47
9.39
5.00
0.51
-3.88
-7.95
-11.51
-14.44
-16.64
-18.08
-18.77
-18.80
-18.24
-17.23
-15.85
-14.22
-12.47
-10.66
-8.84
-7.05
-5.32
-3.65
-2.03
-0.43
1.18
2.83
4.49
6.23
8.08
9.97
11.90
13.89
15.96
18.16
20.47
22.93
25.56
28.48
31.55
34.72
38.04
41.55
45.25
49.09
52.94
56.82
60.84
64.71
68.45
72.18
76.02
79.97
83.89
87.54
90.76
93.59
95.56
96.61
96.78
96.00
93.89
89.62
81.81
68.45
52.17
33.75
13.91
-6.69
-27.52
-48.32
-69.10
-89.98
-111.25
-133.26
-157.16
-183.65
-212.54
-242.32
-270.07
-292.09
-304.89
-306.29
-295.85
-275.32
-247.19
-214.01
-178.00
-141.06
-105.09
-72.03
-43.59
-20.70
-3.56
8.75
17.75
24.83
30.85
35.97
39.95
42.46
43.49
43.32
42.62
42.23
42.71
44.23
46.44
48.63
50.00
49.98
48.35
45.30
41.35
37.02
32.73
28.56
24.35
19.84
14.84
9.34
3.61
-1.93
-6.88
-11.03
-14.53
-17.89
-21.79
-26.88
-33.47
-41.35
-49.58
-56.60
-60.46
-59.31
-52.02
-38.63
-20.56
-0.26
19.43
36.14
48.50
56.34
60.39
61.76
61.48
60.26
58.46
56.28
53.83
51.24
48.64
46.15
43.86
41.82
40.07
38.57
37.21
35.84
34.27
32.34
29.94
27.02
23.61
19.81
15.75
11.55
7.27
2.84
-1.84
-6.81
-11.99
-17.10
-21.75
-25.65
-28.76
-31.36
-34.00
-37.37
-42.08
-48.33
-55.70
-63.02
-68.44
-69.87
-65.63
-55.14
-39.25
-20.06
-0.34
17.39
31.48
41.38
47.45
50.54
51.47
50.88
49.13
46.55
43.47
40.27
37.36
35.06
33.47
32.46
31.75
30.99
29.88
28.31
26.41
24.38
22.44
20.64
18.82
16.66
13.78
9.97
5.22
-0.15
-5.61
-10.62
-14.80
-18.07
-20.70
-23.16
-25.95
-29.44
-33.79
-38.83
-44.13
-48.88
-51.95
-52.03
-47.98
-39.27
-26.40
-10.87
5.14
19.46
30.53
37.79
41.56
42.61
41.72
39.45
36.17
32.23
28.12
24.44
21.70
20.10
19.45
19.25
18.97
18.25
17.09
15.76
14.65
13.98
13.61
13.07
11.78
9.32
5.68
1.26
-3.23
-7.16
-10.18
-12.39
-14.26
-16.38
-19.34
-23.42
-28.63
-34.57
-40.48
-45.28
-47.66
-46.49
-41.09
-31.66
-19.30
-5.79
6.95
17.46
25.05
29.83
32.34
33.16
32.64
30.97
28.33
25.17
22.10
19.73
18.33
17.68
17.24
16.40
14.82
12.64
10.22
7.96
5.91
3.71
0.76
-3.46
-9.01
-15.45
-21.97
-27.75
-32.32
-35.69
-38.34
-40.98
-44.32
-48.86
-54.72
-61.49
-68.19
-73.28
-75.00
-71.84
-63.14
-49.43
-32.44
-14.58
1.81
15.10
24.68
30.86
34.45
36.32
37.08
36.99
36.10
34.45
32.20
29.69
27.31
25.39
24.03
23.11
22.37
21.52
20.40
18.93
17.10
14.90
12.26
9.10
5.41
1.30
-3.02
-7.28
-11.41
-15.48
-19.90
-25.16
-31.60
-39.11
-46.81
-53.14
-56.18
-54.32
-46.83
-34.34
-18.68
-2.37
12.17
23.39
30.89
35.26
37.56
38.73
39.19
38.86
37.44
34.80
31.16
27.15
23.50
20.73
18.97
17.93
17.10
15.98
14.25
11.81
8.80
5.40
1.82
-1.81
-5.49
-9.33
-13.54
-18.35
-24.02
-30.70
-38.36
-46.64
-54.74
-61.41
-65.12
-64.40
-58.36
-47.08
-31.78
-14.60
2.01
16.05
26.44
33.22
37.19
39.38
40.52
40.91
40.48
39.11
36.85
33.97
30.90
28.00
25.51
23.48
21.81
20.36
18.90
17.15
14.78
11.40
6.76
0.75
-6.47
-14.49
-22.81
-30.93
-38.56
-45.81
-53.14
-61.27
-70.82
-81.89
-93.69
-104.43
-111.65
-112.80
-106.17
-91.51
-70.25
-45.06
-19.04
5.12
25.80
42.40
55.07
64.16
69.91
72.36
71.62
68.05
62.49
56.11
50.18
45.64
42.90
41.69
41.33
40.95
39.96
38.20
35.94
33.63
31.55
29.59
27.28
23.98
19.21
12.85
5.20
-3.16
-11.56
-19.46
-26.50
-32.61
-38.00
-43.15
-48.84
-55.90
-65.02
-76.28
-88.77
-100.49
-108.68
-110.55
-104.26
-89.65
-68.41
-43.60
-18.72
3.35
21.03
34.14
43.55
50.41
55.57
59.33
61.51
61.88
60.45
57.74
54.54
51.71
49.72
48.59
47.90
47.07
45.69
43.60
40.92
37.86
34.59
31.10
27.29
23.00
18.12
12.62
6.51
-0.05
-6.80
-13.36
-19.24
-24.13
-27.93
-30.93
-33.69
-36.98
-41.55
-47.93
-56.24
-65.87
-75.30
-82.21
-83.91
-78.16
-64.17
-43.08
-17.86
7.64
29.96
47.10
58.80
66.08
70.35
72.67
73.42
72.51
69.88
65.80
60.90
56.00
51.83
48.77
46.82
45.71
44.99
44.21
43.08
41.44
39.29
36.62
33.27
28.89
23.04
15.43
6.17
-4.18
-14.78
-24.73
-33.44
-40.71
-46.71
-51.71
-55.87
-59.15
-61.29
-61.98
-60.83
-57.40
-51.02
-40.88
-26.21
-6.81
16.62
42.33
67.83
90.48
108.14
119.49
124.11
122.22
114.50
101.99
86.20
69.02
52.47
38.12
26.70
17.95
10.90
4.49
-1.88
-8.18
-13.88
-18.56
-22.28
-25.64
-29.46
-34.30
-40.10
-46.34
-52.32
-57.54
-61.63
-64.09
-64.24
-61.52
-56.33
-50.62
-47.65
-50.84
-62.02
-80.29
-102.28
-123.65
-141.03
-153.19
-160.79
-164.85
-165.29
-160.52
-148.43
-128.11
-101.17
-71.57
-44.12
-22.44
-7.59
2.03
9.47
17.51
27.43
38.78
50.06
59.83
67.55
73.77
79.56
85.87
92.89
100.01
106.17
110.37
112.16
111.70
109.65
106.72
103.37
99.63
95.22
89.72
82.89
74.72
65.43
55.35
44.83
34.21
23.83
14.01
5.00
-3.09
-10.43
-17.44
-24.67
-32.70
-41.75
-51.59
-61.25
-69.23
-73.77
-73.35
-67.24
-55.76
-40.20
-22.47
-4.59
11.85
25.92
37.35
46.27
53.09
58.20
61.93
64.51
65.99
66.42
65.84
64.44
62.56
60.62
59.01
57.90
57.17
56.51
55.52
53.87
51.42
48.20
44.35
40.00
35.18
29.86
23.95
17.44
10.43
3.17
-3.97
-10.63
-16.55
-21.71
-26.31
-30.79
-35.69
-41.49
-48.45
-56.41
-64.66
-71.91
-76.49
-76.70
-71.45
-60.70
-45.57
-28.11
-10.71
4.66
16.90
25.84
31.89
35.63
37.47
37.63
36.33
33.99
31.26
28.87
27.35
26.84
27.07
27.57
27.89
27.81
27.31
26.51
25.46
24.05
22.02
19.03
14.85
9.43
2.96
-4.07
-11.03
-17.25
-22.31
-26.14
-29.13
-32.04
-35.76
-41.00
-48.04
-56.51
-65.30
-72.81
-77.21
-76.99
-71.38
-60.61
-45.90
-29.07
-12.10
3.36
16.23
26.11
33.01
37.21
39.11
39.10
37.62
35.15
32.26
29.48
27.24
25.77
25.00
24.63
24.26
23.55
22.38
20.83
19.08
17.25
15.25
12.73
9.24
4.44
-1.67
-8.66
-15.76
-22.19
-27.39
-31.30
-34.32
-37.20
-40.79
-45.77
-52.45
-60.49
-68.83
-75.74
-79.20
-77.51
-69.83
-56.62
-39.55
-20.96
-3.18
12.12
24.19
33.07
39.21
43.17
45.34
45.98
45.35
43.81
41.83
39.90
38.37
37.34
36.67
36.04
35.12
33.72
31.88
29.79
27.68
25.65
23.53
20.94
17.48
12.87
7.19
0.88
-5.40
-11.06
-15.80
-19.73
-23.27
-26.96
-31.31
-36.70
-43.26
-50.79
-58.62
-65.51
-69.83
-69.96
-64.89
-54.65
-40.46
-24.32
-8.44
5.46
16.51
24.62
30.18
33.81
36.00
37.08
37.28
36.76
35.71
34.35
32.96
31.78
30.94
30.41
29.96
29.33
28.28
26.75
24.84
22.74
20.55
18.20
15.46
12.02
7.61
2.24
-3.80
-9.96
-15.61
-20.32
-24.00
-26.99
-29.89
-33.39
-37.99
-43.88
-50.81
-58.02
-64.29
-68.14
-68.09
-63.14
-53.15
-39.02
-22.53
-5.82
9.13
21.08
29.60
34.98
37.83
38.78
38.28
36.65
34.14
31.12
28.03
25.32
23.22
21.72
20.50
19.24
17.75
16.17
14.86
14.14
14.00
14.01
13.37
11.28
7.39
1.95
-4.22
-10.10
-14.92
-18.48
-21.20
-23.89
-27.49
-32.67
-39.56
-47.66
-55.82
-62.44
-65.80
-64.50
-57.94
-46.54
-31.72
-15.55
-0.15
12.88
22.73
29.38
33.31
35.15
35.40
34.39
32.40
29.79
27.04
24.73
23.22
22.57
22.41
22.25
21.68
20.61
19.35
18.28
17.58
17.03
16.00
13.80
10.01
4.74
-1.42
-7.59
-13.04
-17.40
-20.78
-23.74
-27.08
-31.58
-37.74
-45.51
-54.17
-62.28
-67.99
-69.51
-65.68
-56.45
-42.89
-26.99
-10.99
3.24
14.63
22.98
28.74
32.60
35.10
36.54
36.98
36.45
35.07
33.15
31.12
29.33
27.95
26.94
26.03
24.92
23.40
21.44
19.22
16.98
14.87
12.79
10.40
7.28
3.09
-2.18
-8.21
-14.39
-20.08
-24.78
-28.37
-31.16
-33.80
-37.04
-41.58
-47.72
-55.21
-63.11
-69.87
-73.67
-72.93
-66.78
-55.50
-40.46
-23.76
-7.57
6.48
17.61
25.90
31.92
36.29
39.44
41.48
42.45
42.44
41.67
40.52
39.28
38.12
37.08
36.08
35.09
34.13
33.24
32.42
31.56
30.50
29.03
27.05
24.53
21.55
18.18
14.43
10.25
5.56
0.33
-5.30
-11.06
-16.67
-21.89
-26.71
-31.30
-36.01
-41.22
-47.26
-54.24
-61.87
-69.35
-75.31
-78.09
-76.22
-68.92
-56.61
-40.85
-23.93
-8.11
5.05
15.04
22.35
27.94
32.80
37.55
42.41
47.26
51.78
55.66
58.61
60.46
61.19
60.97
60.02
58.67
57.16
55.61
54.04
52.30
50.25
47.69
44.51
40.74
36.51
32.09
27.78
23.76
19.97
16.12
11.75
6.52
0.37
-6.33
-12.98
-18.95
-23.90
-27.97
-31.71
-35.88
-41.12
-47.66
-55.03
-62.13
-67.39
-69.21
-66.51
-59.08
-47.68
-33.88
-19.52
-6.27
4.78
13.12
18.85
22.34
24.15
24.82
24.80
24.41
23.76
22.87
21.77
20.59
19.53
18.84
18.63
18.84
19.27
19.61
19.62
19.14
18.13
16.62
14.68
12.41
9.94
7.37
4.72
1.93
-1.16
-4.70
-8.71
-13.00
-17.21
-21.01
-24.23
-27.01
-29.85
-33.39
-38.19
-44.33
-51.24
-57.67
-61.99
-62.64
-58.67
-50.09
-37.89
-23.78
-9.66
2.87
12.89
20.14
24.86
27.51
28.54
28.34
27.28
25.76
24.22
23.04
22.41
22.31
22.45
22.51
22.25
21.54
20.44
19.04
17.51
15.93
14.35
12.71
10.90
8.65
5.70
1.94
-2.52
-7.29
-11.88
-15.87
-19.11
-21.80
-24.35
-27.23
-30.86
-35.48
-41.12
-47.51
-53.88
-59.00
-61.34
-59.55
-52.99
-42.05
-28.12
-13.25
0.65
12.17
20.81
26.75
30.61
33.00
34.32
34.74
34.28
32.97
31.06
28.90
26.94
25.51
24.76
24.57
24.71
24.85
24.74
24.24
23.28
21.86
20.07
17.95
15.59
12.99
10.10
6.84
3.14
-0.97
-5.33
-9.69
-13.83
-17.60
-21.04
-24.40
-28.09
-32.59
-38.25
-45.08
-52.55
-59.50
-64.40
-65.67
-62.22
-53.87
-41.47
-26.71
-11.57
2.08
13.02
20.79
25.63
28.19
29.27
29.56
29.49
29.24
28.81
28.22
27.50
26.77
26.13
25.64
25.31
25.06
24.81
24.53
24.19
23.76
23.17
22.23
20.75
18.58
15.68
12.18
8.30
4.30
0.33
-3.54
-7.37
-11.24
-15.15
-19.00
-22.67
-26.09
-29.42
-33.03
-37.39
-42.90
-49.62
-57.02
-63.96
-68.83
-70.04
-66.48
-57.96
-45.36
-30.43
-15.20
-1.49
9.56
17.63
23.05
26.52
28.79
30.42
31.72
32.76
33.46
33.75
33.63
33.19
32.57
31.92
31.29
30.71
30.16
29.66
29.22
28.78
28.15
27.05
25.23
22.61
19.33
15.78
12.34
9.25
6.48
3.78
0.82
-2.64
-6.60
-10.83
-15.00
-18.85
-22.30
-25.53
-28.98
-33.18
-38.53
-45.04
-52.16
-58.77
-63.41
-64.65
-61.52
-53.86
-42.44
-28.72
-14.46
-1.32
9.57
17.67
23.06
26.23
27.83
28.54
28.84
29.01
29.08
28.97
28.58
27.90
27.04
26.20
25.55
25.17
25.01
24.89
24.63
24.04
23.01
21.46
19.39
16.87
13.98
10.83
7.53
4.06
0.40
-3.49
-7.55
-11.59
-15.37
-18.72
-21.69
-24.60
-27.91
-32.10
-37.39
-43.60
-50.06
-55.69
-59.17
-59.22
-55.02
-46.46
-34.33
-20.23
-6.06
6.43
16.16
22.85
26.90
29.04
29.86
29.78
28.94
27.44
25.47
23.38
21.62
20.54
20.31
20.80
21.63
22.39
22.72
22.50
21.84
20.96
20.01
18.95
17.47
15.20
11.84
7.43
2.33
-2.87
-7.58
-11.43
-14.39
-16.71
-18.85
-21.28
-24.43
-28.60
-33.91
-40.15
-46.70
-52.41
-55.84
-55.58
-50.81
-41.59
-29.01
-14.80
-0.90
11.11
20.38
26.76
30.59
32.43
32.78
32.02
30.41
28.25
25.88
23.73
22.17
21.47
21.62
22.30
23.04
23.38
23.07
22.14
20.82
19.39
17.99
16.50
14.66
12.19
8.92
4.86
0.25
-4.56
-9.25
-13.55
-17.42
-20.95
-24.38
-28.07
-32.34
-37.50
-43.70
-50.72
-57.89
-64.00
-67.49
-66.89
-61.37
-51.15
-37.48
-22.32
-7.72
4.79
14.48
21.42
26.15
29.31
31.39
32.69
33.37
33.55
33.35
32.86
32.20
31.45
30.71
30.12
29.79
29.78
30.01
30.28
30.32
29.86
28.74
26.94
24.56
21.68
18.37
14.61
10.40
5.77
0.89
-4.03
-8.76
-13.17
-17.22
-21.06
-24.87
-28.91
-33.48
-38.81
-45.04
-51.96
-58.84
-64.42
-67.15
-65.63
-59.15
-48.07
-33.75
-18.20
-3.46
8.96
18.41
25.03
29.45
32.38
34.35
35.62
36.22
36.15
35.44
34.23
32.72
31.10
29.53
28.12
26.96
26.14
25.64
25.32
24.98
24.32
23.10
21.26
18.88
16.12
13.14
10.00
6.69
3.14
-0.66
-4.70
-8.87
-13.05
-17.17
-21.18
-25.11
-29.05
-33.20
-37.88
-43.45
-50.08
-57.49
-64.72
-70.23
-72.22
-69.32
-61.12
-48.43
-33.03
-17.13
-2.69
9.13
17.98
24.19
28.32
30.92
32.32
32.69
32.20
31.05
29.58
28.12
26.88
25.94
25.22
24.65
24.20
23.93
23.89
24.01
24.03
23.56
22.28
20.11
17.25
14.08
10.91
7.89
4.91
1.76
-1.73
-5.56
-9.50
-13.25
-16.58
-19.45
-22.11
-24.99
-28.63
-33.44
-39.48
-46.32
-52.99
-58.12
-60.28
-58.35
-51.91
-41.44
-28.20
-13.92
-0.35
11.17
19.89
25.72
28.98
30.21
29.95
28.66
26.72
24.51
22.40
20.76
19.87
19.81
20.48
21.53
22.53
23.11
23.02
22.24
20.91
19.24
17.39
15.41
13.22
10.62
7.45
3.64
-0.68
-5.17
-9.45
-13.21
-16.41
-19.33
-22.44
-26.31
-31.35
-37.67
-44.91
-52.23
-58.38
-61.93
-61.65
-56.90
-47.83
-35.44
-21.33
-7.31
5.13
15.06
22.25
27.00
29.83
31.23
31.52
30.89
29.47
27.58
25.65
24.22
23.68
24.09
25.18
26.39
27.15
27.10
26.20
24.66
22.81
20.92
19.03
16.98
14.45
11.17
6.99
2.08
-3.19
-8.29
-12.85
-16.74
-20.18
-23.64
-27.68
-32.78
-39.15
-46.62
-54.60
-62.01
-67.42
-69.33
-66.61
-58.92
-46.93
-32.22
-16.81
-2.58
9.26
18.28
24.72
29.14
32.08
33.91
34.84
35.00
34.50
33.54
32.31
31.04
29.97
29.26
28.98
29.06
29.26
29.33
29.02
28.19
26.84
25.01
22.76
20.08
16.96
13.36
9.34
5.01
0.58
-3.77
-7.88
-11.66
-15.11
-18.41
-21.83
-25.76
-30.60
-36.59
-43.72
-51.53
-59.07
-65.05
-68.02
-66.83
-60.92
-50.65
-37.19
-22.22
-7.52
5.49
16.00
23.83
29.29
32.93
35.29
36.79
37.70
38.19
38.40
38.44
38.39
38.27
38.04
37.65
37.15
36.66
36.33
36.22
36.21
35.98
35.09
33.23
30.31
26.57
22.44
18.35
14.60
11.19
7.92
4.48
0.68
-3.50
-7.91
-12.28
-16.36
-20.04
-23.43
-26.89
-30.95
-36.14
-42.75
-50.53
-58.51
-65.09
-68.43
-67.03
-60.32
-48.87
-34.26
-18.60
-3.90
8.45
17.87
24.51
28.91
31.75
33.60
34.86
35.75
36.40
36.85
37.10
37.07
36.70
35.98
35.02
34.02
33.19
32.66
32.35
32.01
31.33
30.02
27.96
25.16
21.78
18.05
14.19
10.45
6.96
3.78
0.82
-2.14
-5.29
-8.73
-12.44
-16.23
-19.93
-23.49
-27.03
-30.95
-35.67
-41.48
-48.20
-55.03
-60.59
-63.25
-61.61
-55.10
-44.18
-30.33
-15.53
-1.75
9.68
18.22
24.06
27.80
30.08
31.30
31.63
31.10
29.83
28.13
26.47
25.33
24.98
25.40
26.24
26.99
27.18
26.55
25.10
23.10
20.86
18.61
16.44
14.21
11.69
8.69
5.12
1.08
-3.11
-7.09
-10.58
-13.50
-16.02
-18.51
-21.40
-25.08
-29.78
-35.49
-41.93
-48.39
-53.79
-56.71
-55.82
-50.31
-40.29
-26.97
-12.28
1.69
13.37
22.06
27.90
31.51
33.48
34.19
33.70
32.09
29.55
26.56
23.70
21.48
20.17
19.76
19.96
20.37
20.67
20.64
20.26
19.61
18.77
17.70
16.19
13.97
10.82
6.74
1.99
-2.95
-7.59
-11.58
-14.86
-17.62
-20.29
-23.32
-27.17
-32.15
-38.37
-45.53
-52.88
-59.19
-62.98
-62.95
-58.30
-49.16
-36.61
-22.35
-8.31
3.97
13.56
20.33
24.68
27.27
28.71
29.42
29.57
29.25
28.48
27.40
26.21
25.14
24.33
23.74
23.21
22.53
21.57
20.38
19.13
17.98
16.97
15.86
14.26
11.72
8.07
3.43
-1.71
-6.73
-11.11
-14.66
-17.57
-20.32
-23.52
-27.69
-33.13
-39.83
-47.35
-54.80
-60.91
-64.16
-63.27
-57.55
-47.29
-33.74
-18.79
-4.41
7.90
17.39
24.07
28.40
30.97
32.24
32.50
31.91
30.68
29.04
27.34
25.91
24.96
24.53
24.42
24.34
23.94
22.99
21.49
19.65
17.81
16.24
15.01
13.87
12.31
9.79
6.01
1.06
-4.52
-10.02
-14.83
-18.74
-21.92
-24.89
-28.23
-32.43
-37.73
-44.10
-51.18
-58.25
-64.15
-67.46
-66.77
-61.22
-50.88
-36.94
-21.35
-6.33
6.35
15.76
21.94
25.54
27.41
28.21
28.30
27.83
26.94
25.90
25.09
24.77
24.97
25.39
25.57
25.11
23.94
22.32
20.73
19.63
19.15
19.02
18.70
17.58
15.26
11.68
7.11
2.02
-3.09
-7.82
-11.95
-15.47
-18.54
-21.49
-24.80
-28.97
-34.33
-40.78
-47.59
-53.43
-56.74
-56.08
-50.75
-41.06
-28.26
-14.22
-0.82
10.53
19.14
25.02
28.66
30.63
31.41
31.30
30.44
29.03
27.36
25.81
24.79
24.52
24.97
25.84
26.68
27.08
26.85
26.00
24.69
23.15
21.47
19.55
17.16
14.10
10.27
5.79
0.96
-3.84
-8.31
-12.29
-15.81
-19.08
-22.34
-25.93
-30.16
-35.28
-41.40
-48.26
-55.10
-60.68
-63.46
-62.10
-55.91
-45.22
-31.37
-16.32
-2.08
9.91
19.00
25.37
29.62
32.38
34.09
34.93
34.96
34.32
33.28
32.18
31.28
30.66
30.24
29.91
29.56
29.21
28.91
28.68
28.40
27.82
26.76
25.09
22.82
20.07
16.97
13.59
9.90
5.85
1.43
-3.27
-8.02
-12.56
-16.63
-20.15
-23.28
-26.39
-30.01
-34.64
-40.59
-47.72
-55.34
-62.21
-66.69
-67.22
-62.72
-53.14
-39.50
-23.71
-8.06
5.52
15.94
23.06
27.55
30.33
32.19
33.56
34.58
35.20
35.46
35.47
35.39
35.27
35.03
34.54
33.74
32.74
31.83
31.31
31.27
31.48
31.41
30.47
28.30
24.99
21.01
17.02
13.56
10.76
8.35
5.81
2.59
-1.56
-6.48
-11.71
-16.65
-20.84
-24.10
-26.66
-29.05
-32.04
-36.32
-42.25
-49.58
-57.27
-63.63
-66.75
-65.07
-57.98
-46.16
-31.35
-15.80
-1.60
9.93
18.38
24.15
27.97
30.53
32.26
33.31
33.70
33.49
32.89
32.21
31.72
31.51
31.50
31.42
31.08
30.50
29.89
29.55
29.61
29.88
29.86
28.96
26.74
23.21
18.78
14.16
10.01
6.74
4.26
2.11
-0.30
-3.51
-7.64
-12.43
-17.36
-21.86
-25.57
-28.48
-30.93
-33.47
-36.70
-41.11
-46.91
-53.81
-60.97
-66.97
-70.12
-68.93
-62.62
-51.49
-36.92
-20.99
-5.88
6.74
16.00
21.94
25.17
26.56
26.91
26.74
26.34
25.80
25.15
24.46
23.90
23.59
23.60
23.83
24.05
24.06
23.72
23.04
22.12
21.01
19.70
18.08
16.09
13.77
11.30
8.90
6.65
4.47
2.12
-0.63
-3.86
-7.45
-11.11
-14.57
-17.66
-20.42
-23.05
-25.93
-29.51
-34.15
-39.96
-46.49
-52.66
-56.87
-57.49
-53.44
-44.66
-32.31
-18.35
-4.91
6.37
14.74
20.29
23.57
25.17
25.45
24.53
22.50
19.60
16.39
13.56
11.75
11.33
12.22
14.01
16.08
17.81
18.80
18.94
18.43
17.58
16.69
15.84
14.87
13.44
11.21
8.04
4.06
-0.34
-4.70
-8.64
-12.03
-14.95
-17.74
-20.81
-24.60
-29.42
-35.36
-42.07
-48.68
-53.87
-56.12
-54.18
-47.53
-36.65
-22.95
-8.41
5.04
16.03
23.95
28.99
31.73
32.81
32.73
31.76
30.10
28.00
25.83
23.97
22.72
22.17
22.17
22.43
22.64
22.60
22.22
21.53
20.58
19.41
18.01
16.25
13.99
11.05
7.37
3.06
-1.61
-6.24
-10.49
-14.15
-17.24
-20.04
-22.93
-26.37
-30.81
-36.51
-43.41
-50.92
-57.90
-62.78
-63.96
-60.34
-51.77
-39.14
-24.20
-8.98
4.69
15.72
23.75
29.04
32.19
33.73
34.11
33.63
32.57
31.25
29.99
29.04
28.53
28.40
28.49
28.56
28.53
28.31
27.91
27.33
26.47
25.24
23.52
21.25
18.47
15.27
11.78
8.08
4.23
0.22
-3.99
-8.35
-12.77
-17.09
-21.12
-24.80
-28.25
-31.82
-36.05
-41.41
-48.07
-55.63
-62.97
-68.43
-70.17
-66.83
-58.00
-44.56
-28.39
-11.84
3.02
14.91
23.51
29.23
32.85
35.06
36.34
36.96
37.09
36.90
36.51
36.05
35.52
34.85
34.02
33.04
32.01
31.07
30.34
29.85
29.47
28.96
28.01
26.35
23.87
20.69
17.11
13.49
10.09
6.92
3.79
0.37
-3.58
-8.06
-12.83
-17.50
-21.73
-25.35
-28.49
-31.57
-35.23
-40.07
-46.38
-53.89
-61.51
-67.55
-70.03
-67.35
-58.96
-45.61
-29.26
-12.41
2.70
14.66
23.17
28.74
32.23
34.38
35.62
36.17
36.19
35.92
35.68
35.66
35.86
36.06
35.96
35.44
34.60
33.78
33.33
33.41
33.87
34.27
34.05
32.72
30.05
26.14
21.43
16.47
11.85
7.93
4.71
1.89
-1.02
-4.49
-8.72
-13.59
-18.67
-23.40
-27.41
-30.59
-33.25
-35.96
-39.40
-44.12
-50.18
-57.03
-63.37
-67.42
-67.39
-62.09
-51.49
-36.83
-20.29
-4.31
9.17
19.16
25.69
29.48
31.41
32.23
32.40
32.16
31.66
31.02
30.33
29.68
29.11
28.63
28.22
27.86
27.49
27.04
26.42
25.57
24.41
22.88
20.93
18.54
15.76
12.71
9.55
6.44
3.40
0.36
-2.82
-6.23
-9.81
-13.37
-16.66
-19.58
-22.19
-24.86
-28.10
-32.42
-38.11
-44.97
-52.21
-58.50
-62.15
-61.67
-56.21
-45.96
-32.22
-17.00
-2.52
9.52
18.20
23.49
25.94
26.30
25.23
23.19
20.51
17.56
14.78
12.66
11.62
11.80
12.99
14.71
16.36
17.47
17.86
17.68
17.21
16.69
16.09
15.09
13.19
10.04
5.68
0.55
-4.60
-9.09
-12.56
-15.16
-17.40
-19.99
-23.52
-28.30
-34.28
-40.97
-47.45
-52.48
-54.63
-52.68
-46.12
-35.41
-21.95
-7.73
5.28
15.77
23.29
28.11
30.84
32.04
31.98
30.74
28.52
25.69
22.84
20.53
19.05
18.32
17.96
17.56
16.86
15.89
14.80
13.81
12.94
12.06
10.83
8.89
5.95
1.93
-2.93
-8.17
-13.16
-17.42
-20.75
-23.37
-25.83
-28.85
-33.11
-38.94
-46.11
-53.69
-60.11
-63.48
-62.20
-55.54
-44.04
-29.35
-13.76
0.54
12.11
20.44
25.83
28.98
30.62
31.28
31.26
30.67
29.55
27.95
26.01
23.98
22.15
20.73
19.79
19.19
18.68
18.05
17.23
16.31
15.44
14.64
13.75
12.39
10.15
6.77
2.28
-2.93
-8.32
-13.35
-17.69
-21.32
-24.54
-27.82
-31.75
-36.84
-43.30
-50.92
-58.79
-65.44
-69.09
-68.16
-61.88
-50.61
-35.82
-19.62
-4.14
9.06
19.28
26.56
31.45
34.58
36.51
37.58
38.02
38.00
37.67
37.14
36.51
35.82
35.07
34.30
33.58
32.94
32.35
31.69
30.81
29.57
27.92
25.93
23.64
21.07
18.12
14.68
10.68
6.20
1.41
-3.43
-8.09
-12.43
-16.43
-20.17
-23.88
-27.89
-32.61
-38.38
-45.28
-52.93
-60.34
-66.06
-68.48
-66.30
-59.05
-47.27
-32.45
-16.64
-1.84
10.49
19.74
26.06
30.08
32.57
34.14
35.14
35.73
36.06
36.29
36.55
36.96
37.44
37.80
37.84
37.44
36.72
35.94
35.36
35.04
34.76
34.08
32.47
29.66
25.75
21.18
16.56
12.46
9.08
6.28
3.65
0.73
-2.77
-6.84
-11.25
-15.60
-19.60
-23.12
-26.29
-29.47
-33.12
-37.74
-43.63
-50.71
-58.36
-65.33
-69.99
-70.70
-66.40
-57.02
-43.64
-28.17
-12.78
0.75
11.44
19.21
24.53
28.07
30.35
31.70
32.24
32.13
31.53
30.65
29.69
28.83
28.19
27.87
27.98
28.53
29.35
30.14
30.48
29.94
28.29
25.55
22.02
18.16
14.48
11.33
8.78
6.61
4.47
1.97
-1.10
-4.76
-8.79
-12.90
-16.84
-20.44
-23.71
-26.83
-30.15
-34.09
-39.07
-45.15
-51.83
-57.92
-61.73
-61.58
-56.46
-46.50
-33.02
-18.14
-4.06
7.60
16.12
21.66
24.87
26.43
26.77
26.06
24.37
21.92
19.18
16.76
15.28
15.11
16.26
18.35
20.80
23.00
24.46
24.99
24.62
23.54
21.95
19.98
17.63
14.84
11.54
7.81
3.79
-0.25
-4.14
-7.76
-11.15
-14.40
-17.60
-20.86
-24.32
-28.20
-32.75
-38.11
-44.11
-50.05
-54.68
-56.49
-54.17
-47.19
-36.09
-22.38
-8.14
4.71
14.92
22.12
26.66
29.27
30.60
31.04
30.74
29.78
28.27
26.52
24.89
23.70
23.16
23.27
23.88
24.68
25.38
25.69
25.41
24.46
22.84
20.67
18.12
15.40
12.61
9.78
6.78
3.49
-0.16
-4.08
-8.03
-11.76
-15.06
-17.92
-20.55
-23.27
-26.52
-30.72
-36.11
-42.67
-49.90
-56.70
-61.54
-62.75
-59.09
-50.29
-37.29
-21.98
-6.69
6.55
16.52
23.03
26.64
28.31
28.94
29.21
29.41
29.62
29.82
29.90
29.82
29.53
29.04
28.36
27.61
26.94
26.49
26.35
26.44
26.50
26.18
25.15
23.23
20.55
17.40
14.17
11.10
8.23
5.31
2.04
-1.83
-6.29
-11.11
-15.89
-20.29
-24.10
-27.38
-30.39
-33.56
-37.36
-42.19
-48.09
-54.60
-60.59
-64.44
-64.51
-59.70
-50.01
-36.65
-21.69
-7.36
4.65
13.63
19.74
23.67
26.16
27.69
28.48
28.65
28.38
27.96
27.62
27.49
27.48
27.43
27.22
26.93
26.78
27.00
27.69
28.63
29.35
29.33
28.15
25.78
22.45
18.67
14.90
11.41
8.20
5.10
1.85
-1.72
-5.60
-9.66
-13.66
-17.43
-20.97
-24.46
-28.29
-32.91
-38.63
-45.39
-52.60
-59.10
-63.42
-64.06
-60.03
-51.10
-38.10
-22.66
-6.91
7.15
18.10
25.39
29.32
30.73
30.59
29.73
28.64
27.55
26.48
25.41
24.32
23.28
22.36
21.71
21.38
21.29
21.23
20.92
20.18
19.01
17.58
16.12
14.70
13.17
11.18
8.40
4.74
0.41
-4.14
-8.44
-12.16
-15.26
-17.91
-20.41
-23.11
-26.32
-30.31
-35.27
-41.17
-47.56
-53.53
-57.77
-58.85
-55.73
-48.12
-36.74
-23.19
-9.45
2.70
12.13
18.59
22.52
24.59
25.45
25.42
24.61
23.14
21.26
19.47
18.32
18.19
19.10
20.68
22.36
23.56
23.95
23.47
22.36
20.91
19.34
17.65
15.64
13.04
9.67
5.55
1.00
-3.56
-7.72
-11.25
-14.22
-16.95
-19.86
-23.36
-27.76
-33.14
-39.26
-45.47
-50.70
-53.60
-52.86
-47.75
-38.40
-25.96
-12.26
0.74
11.54
19.42
24.49
27.33
28.63
28.88
28.32
27.09
25.38
23.49
21.85
20.82
20.58
21.06
21.96
22.92
23.61
23.82
23.51
22.70
21.50
19.96
18.08
15.75
12.89
9.36
5.19
0.51
-4.39
-9.13
-13.42
-17.06
-20.13
-22.89
-25.76
-29.28
-33.91
-39.86
-46.85
-53.97
-59.78
-62.62
-61.12
-54.74
-44.05
-30.57
-16.31
-3.13
7.70
15.80
21.46
25.30
27.94
29.77
30.94
31.50
31.52
31.17
30.68
30.29
30.13
30.27
30.68
31.21
31.67
31.79
31.27
29.97
27.87
25.16
22.12
18.99
15.87
12.70
9.34
5.71
1.84
-2.11
-5.97
-9.61
-13.06
-16.44
-20.01
-23.98
-28.62
-34.11
-40.48
-47.44
-54.19
-59.41
-61.58
-59.37
-52.27
-40.84
-26.68
-11.93
1.43
12.12
19.78
24.83
28.04
30.12
31.55
32.56
33.19
33.45
33.34
32.93
32.33
31.68
31.10
30.67
30.40
30.21
29.96
29.54
28.82
27.75
26.29
24.42
22.12
19.37
16.07
12.20
7.79
2.97
-1.99
-6.77
-11.12
-14.92
-18.25
-21.40
-24.76
-28.75
-33.72
-39.79
-46.76
-53.88
-59.93
-63.34
-62.70
-57.22
-47.14
-33.78
-19.14
-5.32
6.07
14.35
19.72
22.92
24.79
25.92
26.50
26.50
25.87
24.77
23.57
22.75
22.59
23.09
23.89
24.50
24.47
23.67
22.27
20.65
19.14
17.91
16.84
15.58
13.75
11.10
7.67
3.77
-0.14
-3.64
-6.52
-8.89
-11.09
-13.54
-16.63
-20.63
-25.63
-31.53
-37.95
-44.13
-48.94
-51.03
-49.28
-43.19
-33.22
-20.72
-7.52
4.58
14.37
21.39
25.83
28.32
29.48
29.75
29.36
28.41
27.07
25.58
24.31
23.61
23.64
24.32
25.32
26.19
26.51
26.09
24.94
23.26
21.32
19.31
17.27
15.12
12.70
9.84
6.43
2.55
-1.61
-5.81
-9.80
-13.46
-16.86
-20.18
-23.68
-27.59
-32.09
-37.32
-43.17
-49.25
-54.68
-58.19
-58.36
-54.16
-45.43
-33.10
-18.95
-5.09
6.71
15.45
21.05
24.09
25.41
25.77
25.74
25.63
25.59
25.70
25.97
26.39
26.89
27.37
27.69
27.79
27.63
27.23
26.63
25.87
24.89
23.63
22.04
20.13
17.95
15.56
12.94
10.00
6.63
2.77
-1.46
-5.82
-10.05
-13.93
-17.41
-20.62
-23.81
-27.38
-31.72
-37.13
-43.58
-50.54
-56.89
-61.09
-61.63
-57.49
-48.62
-36.06
-21.64
-7.48
4.65
13.79
19.85
23.42
25.42
26.63
27.57
28.38
29.03
29.42
29.49
29.26
28.82
28.26
27.67
27.13
26.72
26.47
26.38
26.32
26.08
25.40
24.09
22.07
19.50
16.65
13.85
11.32
9.03
6.74
4.06
0.72
-3.28
-7.63
-11.87
-15.57
-18.58
-21.05
-23.38
-26.09
-29.63
-34.28
-39.98
-46.23
-51.98
-55.80
-56.20
-52.22
-43.82
-32.04
-18.73
-5.92
4.80
12.69
17.86
20.92
22.64
23.61
24.19
24.56
24.81
25.01
25.17
25.24
25.13
24.79
24.27
23.71
23.27
23.08
23.08
23.10
22.86
22.13
20.77
18.83
16.47
13.96
11.49
9.15
6.88
4.49
1.73
-1.54
-5.33
-9.43
-13.55
-17.40
-20.81
-23.86
-26.85
-30.26
-34.53
-39.85
-45.92
-51.84
-56.24
-57.62
-54.89
-47.79
-37.07
-24.33
-11.49
-0.21
8.55
14.60
18.35
20.41
21.33
21.39
20.72
19.37
17.55
15.62
14.06
13.31
13.53
14.60
16.09
17.45
18.22
18.19
17.40
16.15
14.69
13.18
11.55
9.60
7.11
4.01
0.43
-3.34
-6.88
-9.88
-12.27
-14.16
-15.87
-17.73
-20.05
-23.03
-26.84
-31.52
-36.93
-42.51
-47.27
-49.88
-48.99
-43.84
-34.57
-22.34
-8.97
3.57
13.82
21.12
25.63
28.01
29.00
29.10
28.56
27.39
25.66
23.61
21.66
20.29
19.79
20.13
20.94
21.74
22.05
21.70
20.72
19.36
17.82
16.16
14.23
11.86
8.90
5.36
1.46
-2.51
-6.31
-9.82
-13.06
-16.16
-19.26
-22.47
-25.87
-29.59
-33.84
-38.88
-44.78
-51.21
-57.27
-61.58
-62.68
-59.50
-51.89
-40.70
-27.56
-14.38
-2.75
6.43
13.07
17.65
20.82
23.19
25.05
26.45
27.34
27.70
27.63
27.35
27.12
27.01
27.00
26.92
26.56
25.84
24.77
23.47
22.10
20.73
19.32
17.69
15.59
12.84
9.37
5.33
1.01
-3.26
-7.17
-10.59
-13.59
-16.35
-19.14
-22.25
-25.96
-30.52
-36.01
-42.21
-48.49
-53.77
-56.66
-55.95
-50.96
-41.88
-29.86
-16.66
-4.13
6.28
13.94
19.00
22.15
24.22
25.82
27.12
28.06
28.47
28.33
27.85
27.32
27.00
26.94
27.01
26.97
26.67
26.03
25.10
23.92
22.52
20.90
19.06
16.97
14.58
11.81
8.56
4.77
0.53
-3.93
-8.33
-12.43
-16.21
-19.80
-23.45
-27.43
-31.96
-37.19
-43.06
-49.19
-54.76
-58.56
-59.28
-55.95
-48.43
-37.51
-24.71
-11.80
-0.23
9.13
16.06
20.73
23.44
24.51
24.22
22.92
21.06
19.16
17.66
16.86
16.82
17.35
18.11
18.77
19.08
18.96
18.49
17.80
16.99
15.98
14.54
12.34
9.14
4.96
0.15
-4.69
-8.97
-12.37
-14.98
-17.33
-20.13
-24.03
-29.32
-35.81
-42.72
-48.85
-52.77
-53.24
-49.52
-41.69
-30.66
-17.95
-5.26
6.01
15.04
21.64
26.06
28.69
29.93
30.08
29.42
28.24
26.87
25.63
24.70
24.16
23.89
23.69
23.38
22.84
22.10
21.26
20.40
19.48
18.33
16.62
14.03
10.41
5.88
0.81
-4.22
-8.72
-12.42
-15.43
-18.26
-21.63
-26.19
-32.26
-39.51
-46.94
-53.04
-56.22
-55.24
-49.72
-40.24
-28.17
-15.28
-3.20
6.97
14.85
20.63
24.81
27.92
30.22
31.76
32.47
32.38
31.72
30.90
30.36
30.35
30.80
31.33
31.44
30.78
29.29
27.21
24.93
22.67
20.40
17.83
14.56
10.33
5.21
-0.39
-5.89
-10.78
-14.80
-18.08
-21.05
-24.28
-28.33
-33.54
-39.91
-47.01
-53.95
-59.46
-62.16
-60.94
-55.34
-45.76
-33.43
-20.03
-7.20
3.91
12.80
19.56
24.62
28.42
31.24
33.16
34.19
34.41
34.03
33.36
32.73
32.33
32.15
31.97
31.49
30.50
28.99
27.14
25.29
23.69
22.41
21.26
19.87
17.87
14.99
11.26
6.89
2.25
-2.34
-6.65
-10.64
-14.40
-18.14
-22.19
-26.95
-32.71
-39.52
-46.91
-53.84
-58.83
-60.40
-57.58
-50.34
-39.70
-27.31
-14.97
-3.95
5.17
12.48
18.39
23.29
27.33
30.49
32.70
34.00
34.56
34.60
34.34
33.92
33.44
32.97
32.50
32.02
31.39
30.52
29.35
27.89
26.22
24.35
22.24
19.68
16.46
12.45
7.72
2.56
-2.55
-7.16
-11.03
-14.23
-17.18
-20.51
-24.85
-30.61
-37.77
-45.87
-53.97
-60.90
-65.28
-65.97
-62.21
-54.00
-42.19
-28.29
-14.18
-1.47
8.79
16.40
21.76
25.49
28.15
29.99
31.08
31.41
31.10
30.46
29.85
29.51
29.52
29.69
29.75
29.43
28.64
27.49
26.17
24.89
23.67
22.33
20.51
17.80
13.96
9.05
3.43
-2.32
-7.65
-12.22
-16.04
-19.46
-23.02
-27.28
-32.61
-39.02
-46.10
-52.94
-58.23
-60.58
-58.86
-52.61
-42.28
-29.21
-15.21
-2.04
9.10
17.74
24.06
28.55
31.68
33.72
34.77
34.91
34.33
33.34
32.33
31.60
31.34
31.52
32.00
32.56
32.99
33.10
32.72
31.70
29.97
27.55
24.54
21.10
17.41
13.57
9.61
5.49
1.19
-3.26
-7.76
-12.14
-16.22
-19.92
-23.28
-26.55
-30.11
-34.43
-39.84
-46.28
-53.17
-59.35
-63.30
-63.66
-59.61
-51.23
-39.55
-26.17
-12.90
-1.16
8.28
15.34
20.42
24.13
26.93
29.04
30.50
31.27
31.33
30.76
29.76
28.49
27.13
25.84
24.75
23.97
23.51
23.28
23.11
22.83
22.29
21.46
20.38
19.05
17.49
15.61
13.32
10.55
7.29
3.57
-0.45
-4.56
-8.51
-12.12
-15.35
-18.39
-21.60
-25.41
-30.20
-36.06
-42.71
-49.41
-55.04
-58.28
-57.99
-53.60
-45.32
-34.15
-21.67
-9.52
1.02
9.25
15.18
19.24
22.05
24.13
25.78
26.99
27.68
27.75
27.24
26.36
25.44
24.74
24.41
24.37
24.42
24.28
23.75
22.70
21.16
19.23
17.02
14.60
12.00
9.17
6.06
2.65
-1.00
-4.71
-8.24
-11.42
-14.18
-16.60
-18.92
-21.47
-24.61
-28.67
-33.86
-40.08
-46.74
-52.78
-56.77
-57.33
-53.59
-45.55
-34.24
-21.34
-8.71
2.16
10.52
16.36
20.10
22.33
23.43
23.61
22.96
21.64
20.01
18.55
17.69
17.63
18.24
19.06
19.58
19.38
18.41
16.91
15.34
14.05
13.06
12.04
10.43
7.77
3.95
-0.65
-5.34
-9.44
-12.59
-14.89
-16.84
-19.11
-22.27
-26.66
-32.29
-38.72
-45.09
-50.13
-52.48
-51.04
-45.42
-36.09
-24.35
-11.87
-0.27
9.37
16.61
21.53
24.50
25.96
26.29
25.81
24.79
23.52
22.29
21.31
20.74
20.55
20.56
20.48
19.98
18.92
17.37
15.64
14.04
12.74
11.57
10.12
7.92
4.68
0.47
-4.33
-9.20
-13.71
-17.60
-20.88
-23.74
-26.56
-29.83
-34.07
-39.62
-46.35
-53.48
-59.63
-63.16
-62.71
-57.74
-48.75
-37.11
-24.58
-12.74
-2.58
5.63
12.08
17.21
21.35
24.63
27.04
28.52
29.13
29.03
28.53
27.93
27.45
27.21
27.14
27.08
26.79
26.13
25.06
23.69
22.22
20.82
19.55
18.31
16.81
14.74
11.89
8.20
3.88
-0.73
-5.25
-9.38
-13.10
-16.58
-20.28
-24.72
-30.41
-37.55
-45.82
-54.25
-61.36
-65.44
-65.14
-59.88
-50.13
-37.33
-23.37
-10.08
1.29
10.31
17.17
22.45
26.72
30.31
33.26
35.48
36.86
37.45
37.43
37.07
36.60
36.14
35.70
35.25
34.64
33.79
32.57
30.89
28.73
26.09
23.08
19.77
16.20
12.34
8.09
3.39
-1.72
-7.15
-12.73
-18.28
-23.66
-28.82
-33.84
-38.93
-44.43
-50.73
-58.01
-66.04
-73.92
-80.25
-83.35
-81.89
-75.28
-63.97
-49.34
-33.20
-17.38
-3.25
8.45
17.58
24.32
29.05
32.07
33.66
34.00
33.29
31.84
30.05
28.38
27.25
26.86
27.16
27.81
28.36
28.44
27.90
26.85
25.50
24.00
22.30
20.09
17.02
12.88
7.76
2.08
-3.51
-8.44
-12.39
-15.46
-18.11
-21.04
-24.97
-30.43
-37.54
-45.88
-54.42
-61.71
-66.06
-65.99
-60.62
-50.04
-35.34
-18.40
-1.37
13.90
26.27
35.42
41.60
45.29
46.89
46.66
44.87
41.98
38.71
35.92
34.27
33.98
34.74
35.85
36.54
36.28
34.96
32.84
30.34
27.76
25.12
22.07
18.13
13.02
6.82
0.13
-6.18
-11.40
-15.27
-18.20
-21.09
-25.01
-30.78
-38.62
-48.00
-57.63
-65.71
-70.25
-69.60
-62.97
-50.74
-34.51
-16.64
0.44
14.91
25.98
33.80
39.03
42.38
44.24
44.76
44.00
42.23
39.93
37.76
36.23
35.53
35.41
35.32
34.75
33.40
31.41
29.19
27.18
25.57
24.03
21.89
18.37
13.09
6.23
-1.41
-8.75
-14.90
-19.50
-22.85
-25.69
-28.98
-33.50
-39.71
-47.50
-56.18
-64.39
-70.36
-72.24
-68.66
-59.30
-45.12
-28.15
-10.88
4.53
16.78
25.72
31.97
36.44
39.81
42.33
43.93
44.47
44.05
43.00
41.82
40.87
40.25
39.75
39.02
37.77
35.99
33.89
31.80
29.97
28.38
26.71
24.45
21.10
16.37
10.39
3.66
-3.11
-9.24
-14.36
-18.50
-22.12
-25.90
-30.55
-36.56
-44.04
-52.51
-60.92
-67.73
-71.30
-70.28
-64.08
-53.13
-38.79
-22.93
-7.43
6.27
17.45
26.04
32.41
37.10
40.60
43.15
44.85
45.67
45.63
44.93
43.89
42.88
42.18
41.79
41.51
41.00
40.00
38.44
36.48
34.36
32.26
30.12
27.68
24.61
20.68
15.91
10.51
4.86
-0.77
-6.22
-11.44
-16.45
-21.29
-25.99
-30.66
-35.54
-41.01
-47.36
-54.57
-62.07
-68.68
-72.86
-73.13
-68.57
-59.25
-46.18
-31.14
-16.07
-2.63
8.26
16.45
22.35
26.63
29.86
32.38
34.28
35.57
36.28
36.50
36.43
36.15
35.77
35.33
34.88
34.47
34.16
33.89
33.52
32.88
31.77
30.11
27.91
25.23
22.15
18.72
14.96
10.88
6.48
1.77
-3.20
-8.31
-13.42
-18.35
-22.98
-27.34
-31.57
-35.94
-40.81
-46.46
-52.97
-60.06
-66.83
-71.91
-73.66
-70.71
-62.51
-49.68
-33.88
-17.34
-2.10
10.57
20.33
27.54
32.76
36.36
38.39
38.73
37.38
34.67
31.33
28.18
25.96
25.08
25.50
26.86
28.56
29.99
30.67
30.33
28.97
26.73
23.84
20.47
16.70
12.57
8.13
3.51
-1.07
-5.36
-9.16
-12.34
-14.87
-16.76
-18.11
-19.11
-20.16
-21.82
-24.71
-29.26
-35.34
-42.11
-48.06
-51.46
-50.93
-45.92
-36.92
-25.23
-12.56
-0.55
9.61
17.33
22.61
25.84
27.60
28.44
28.79
28.82
28.53
27.88
26.89
25.75
24.68
23.89
23.49
23.44
23.58
23.70
23.59
23.01
21.81
19.90
17.33
14.30
11.06
7.85
4.77
1.78
-1.29
-4.64
-8.33
-12.36
-16.58
-20.84
-24.98
-28.96
-32.80
-36.70
-40.93
-45.83
-51.54
-57.78
-63.73
-68.06
-69.26
-66.16
-58.45
-46.79
-32.76
-18.23
-4.89
6.19
14.67
20.76
24.98
27.90
30.00
31.63
32.98
34.13
35.03
35.56
35.64
35.21
34.32
33.15
31.91
30.81
29.92
29.18
28.37
27.21
25.43
22.95
19.86
16.43
12.94
9.62
6.43
3.16
-0.49
-4.76
-9.65
-14.91
-20.15
-25.02
-29.35
-33.23
-37.04
-41.29
-46.41
-52.51
-59.21
-65.52
-70.05
-71.34
-68.33
-60.78
-49.41
-35.66
-21.36
-8.16
2.83
11.12
16.82
20.37
22.38
23.38
23.76
23.74
23.43
22.96
22.47
22.18
22.22
22.57
23.02
23.26
23.03
22.28
21.18
19.99
18.89
17.82
16.42
14.22
10.87
6.33
1.04
-4.30
-9.01
-12.67
-15.42
-17.72
-20.20
-23.34
-27.33
-32.13
-37.51
-43.14
-48.44
-52.53
-54.25
-52.44
-46.48
-36.66
-24.21
-10.96
1.26
11.22
18.52
23.41
26.41
27.99
28.39
27.74
26.27
24.39
22.67
21.61
21.48
22.09
22.99
23.59
23.46
22.53
21.06
19.46
18.04
16.84
15.56
13.71
10.89
7.00
2.27
-2.77
-7.53
-11.62
-14.96
-17.78
-20.57
-23.87
-28.10
-33.50
-40.02
-47.18
-54.14
-59.68
-62.40
-61.18
-55.54
-45.93
-33.67
-20.58
-8.38
1.76
9.48
15.06
19.08
22.07
24.27
25.74
26.43
26.39
25.83
25.08
24.50
24.34
24.65
25.32
26.06
26.56
26.58
26.05
25.05
23.73
22.17
20.29
17.90
14.77
10.84
6.25
1.35
-3.45
-7.82
-11.68
-15.19
-18.70
-22.63
-27.37
-33.18
-40.08
-47.69
-55.17
-61.26
-64.52
-63.73
-58.34
-48.73
-36.13
-22.30
-9.01
2.48
11.61
18.51
23.69
27.72
30.92
33.39
35.05
35.79
35.66
34.85
33.72
32.56
31.60
30.90
30.36
29.84
29.19
28.34
27.26
26.00
24.54
22.84
20.78
18.24
15.10
11.33
6.96
2.20
-2.72
-7.53
-12.01
-16.10
-19.93
-23.78
-28.01
-32.91
-38.64
-45.07
-51.72
-57.73
-61.97
-63.26
-60.71
-54.02
-43.73
-31.11
-17.85
-5.58
4.63
12.43
18.10
22.27
25.54
28.27
30.55
32.28
33.34
33.72
33.51
32.93
32.17
31.41
30.73
30.13
29.57
28.96
28.25
27.39
26.31
24.97
23.33
21.35
19.02
16.30
13.14
9.46
5.22
0.45
-4.65
-9.81
-14.74
-19.34
-23.69
-28.12
-33.06
-38.83
-45.44
-52.48
-59.05
-63.91
-65.80
-63.68
-57.23
-46.91
-33.98
-20.11
-6.92
4.40
13.33
19.93
24.55
27.58
29.30
29.91
29.59
28.65
27.52
26.65
26.37
26.75
27.52
28.23
28.45
27.90
26.66
25.04
23.45
22.15
21.10
19.93
18.11
15.25
11.24
6.39
1.29
-3.45
-7.42
-10.62
-13.44
-16.46
-20.33
-25.46
-31.89
-39.23
-46.63
-52.84
-56.42
-56.13
-51.29
-42.08
-29.61
-15.60
-1.96
9.81
18.93
25.35
29.56
32.17
33.69
34.36
34.25
33.46
32.17
30.72
29.54
28.95
29.01
29.55
30.19
30.57
30.43
29.69
28.43
26.74
24.65
22.10
18.95
15.12
10.66
5.77
0.79
-3.94
-8.18
-11.87
-15.12
-18.22
-21.47
-25.23
-29.74
-35.17
-41.52
-48.53
-55.53
-61.46
-65.01
-64.93
-60.50
-51.83
-39.97
-26.56
-13.39
-1.82
7.48
14.52
19.73
23.67
26.76
29.21
31.08
32.37
33.08
33.22
32.88
32.21
31.42
30.71
30.23
29.98
29.79
29.43
28.69
27.47
25.85
23.97
21.97
19.88
17.63
15.07
12.07
8.57
4.67
0.52
-3.61
-7.54
-11.17
-14.56
-17.93
-21.60
-25.96
-31.28
-37.64
-44.71
-51.76
-57.59
-60.83
-60.25
-55.26
-46.11
-33.93
-20.47
-7.51
3.61
12.28
18.62
23.18
26.63
29.39
31.63
33.35
34.49
35.07
35.19
34.97
34.53
33.96
33.34
32.77
32.33
32.05
31.82
31.46
30.71
29.38
27.40
24.82
21.80
18.56
15.21
11.83
8.35
4.70
0.76
-3.51
-8.04
-12.64
-17.07
-21.12
-24.72
-28.01
-31.35
-35.27
-40.22
-46.36
-53.27
-59.81
-64.42
-65.46
-61.87
-53.60
-41.69
-27.94
-14.31
-2.32
7.27
14.44
19.59
23.20
25.60
26.95
27.32
26.91
26.03
25.11
24.48
24.31
24.50
24.81
24.91
24.59
23.78
22.58
21.18
19.73
18.29
16.80
15.08
12.91
10.15
6.77
2.94
-1.04
-4.86
-8.31
-11.36
-14.15
-16.86
-19.69
-22.86
-26.59
-31.10
-36.46
-42.38
-48.02
-52.09
-53.17
-50.24
-43.15
-32.69
-20.35
-7.87
3.35
12.45
19.22
23.87
26.78
28.30
28.72
28.29
27.27
25.97
24.72
23.80
23.31
23.23
23.37
23.55
23.55
23.24
22.55
21.44
19.85
17.80
15.34
12.49
9.27
5.64
1.55
-3.01
-7.89
-12.85
-17.62
-22.05
-26.10
-29.90
-33.61
-37.43
-41.49
-45.91
-50.71
-55.68
-60.28
-63.64
-64.67
-62.42
-56.40
-46.74
-34.25
-20.16
-5.82
7.69
19.75
30.20
39.24
47.28
54.77
62.04
69.26
76.35
83.01
88.76
93.08
95.56
96.05
94.79
92.23
88.87
85.06
80.82
75.91
69.99
62.91
54.82
46.17
37.58
29.50
22.17
15.51
9.25
3.13
-2.98
-9.06
-14.93
-20.44
-25.59
-30.48
-35.38
-40.69
-46.83
-54.13
-62.59
-71.70
-80.27
-86.65
-89.06
-86.12
-77.46
-63.89
-47.25
-29.88
-13.97
-0.94
8.75
15.47
19.99
23.07
25.21
26.56
27.18
27.19
26.86
26.57
26.57
26.94
27.49
27.95
28.07
27.74
27.03
26.04
24.80
23.33
21.50
19.24
16.42
12.98
8.81
3.88
-1.80
-8.07
-14.68
-21.26
-27.44
-32.91
-37.58
-41.63
-45.55
-50.07
-55.93
-63.56
-72.73
-82.22
-89.97
-93.50
-90.71
-80.68
-64.12
-43.24
-21.13
-0.76
15.76
27.64
35.21
39.43
41.34
41.65
40.72
38.73
35.94
32.82
29.98
27.97
26.99
26.83
26.84
26.32
24.79
22.19
18.92
15.56
12.55
9.90
7.20
3.80
-0.86
-7.02
-14.41
-22.42
-30.27
-37.31
-43.17
-47.87
-51.75
-55.44
-59.67
-65.11
-72.13
-80.48
-89.15
-96.24
-99.40
-96.47
-86.26
-69.20
-47.34
-23.81
-1.85
16.24
29.56
38.56
44.42
48.32
50.95
52.51
52.98
52.44
51.27
49.97
48.97
48.35
47.84
46.93
45.15
42.26
38.38
33.92
29.40
25.23
21.51
17.90
13.79
8.53
1.71
-6.52
-15.51
-24.30
-31.95
-37.93
-42.28
-45.56
-48.73
-52.85
-58.77
-66.90
-76.88
-87.42
-96.40
-101.27
-99.75
-90.67
-74.51
-53.35
-30.30
-8.52
9.71
23.41
32.80
38.79
42.31
43.96
44.04
42.74
40.44
37.76
35.39
33.82
33.20
33.27
33.52
33.41
32.57
30.93
28.69
26.21
23.83
21.77
19.97
18.15
15.89
12.85
8.91
4.24
-0.71
-5.43
-9.51
-12.83
-15.61
-18.37
-21.83
-26.79
-33.88
-43.36
-54.80
-66.82
-77.18
-83.15
-82.28
-73.27
-56.59
-34.49
-10.39
12.20
30.71
44.04
52.50
57.21
59.36
59.79
58.91
56.93
54.13
51.01
48.11
45.87
44.39
43.42
42.53
41.30
39.48
37.14
34.49
31.85
29.38
27.05
24.54
21.40
17.14
11.48
4.55
-3.15
-10.83
-17.70
-23.27
-27.57
-31.15
-34.90
-39.74
-46.37
-54.95
-65.03
-75.41
-84.20
-89.17
-88.21
-80.04
-64.70
-43.80
-20.09
3.24
23.54
39.21
49.94
56.24
58.95
58.76
56.14
51.62
45.94
40.16
35.41
32.50
31.58
32.11
33.20
34.02
34.18
33.75
33.02
32.14
30.88
28.68
24.87
19.15
11.77
3.48
-4.72
-12.02
-18.02
-22.91
-27.34
-32.28
-38.67
-47.18
-57.82
-69.68
-80.73
-88.23
-89.38
-82.31
-66.92
-45.10
-20.20
4.05
24.67
40.16
50.50
56.59
59.54
60.11
58.67
55.48
50.98
45.92
41.23
37.63
35.37
34.13
33.24
32.03
30.13
27.65
25.02
22.71
20.85
19.06
16.57
12.51
6.35
-1.76
-11.01
-20.18
-28.16
-34.44
-39.28
-43.63
-48.85
-56.19
-66.33
-78.99
-92.70
-104.93
-112.54
-112.67
-103.72
-86.02
-61.91
-35.06
-9.26
12.64
29.37
41.15
49.05
54.22
57.41
58.87
58.63
56.84
53.92
50.52
47.20
44.29
41.69
39.10
36.20
32.95
29.61
26.68
24.52
23.07
21.78
19.74
16.07
10.32
2.70
-5.93
-14.44
-21.82
-27.60
-31.95
-35.74
-40.21
-46.61
-55.77
-67.56
-80.62
-92.39
-99.65
-99.41
-89.97
-71.74
-47.17
-20.15
5.34
26.41
41.89
52.23
58.78
62.87
65.28
66.13
65.33
62.93
59.42
55.56
52.06
49.22
46.88
44.56
41.84
38.58
35.04
31.73
29.10
27.16
25.47
23.13
19.19
13.03
4.72
-4.99
-14.87
-23.69
-30.75
-36.06
-40.39
-44.88
-50.71
-58.70
-69.04
-81.12
-93.39
-103.55
-108.81
-106.69
-95.82
-76.59
-51.26
-23.37
3.31
25.85
42.86
54.38
61.37
64.92
65.77
64.22
60.52
55.14
48.94
42.89
37.81
34.00
31.17
28.77
26.33
23.76
21.34
19.52
18.48
17.95
17.19
15.25
11.42
5.55
-1.86
-9.76
-16.98
-22.69
-26.73
-29.69
-32.74
-37.20
-44.09
-53.71
-65.30
-77.04
-86.29
-90.22
-86.58
-74.58
-55.26
-31.26
-6.12
16.90
35.65
49.46
58.85
64.85
68.29
69.59
68.84
66.20
62.22
57.82
53.99
51.41
50.20
49.85
49.58
48.63
46.71
43.96
40.81
37.69
34.66
31.35
27.09
21.23
13.53
4.33
-5.46
-14.73
-22.57
-28.62
-33.22
-37.26
-41.96
-48.41
-57.30
-68.54
-81.03
-92.62
-100.45
-101.67
-94.36
-78.36
-55.50
-29.11
-2.99
19.75
37.48
50.10
58.53
63.97
67.27
68.83
68.71
67.02
64.15
60.73
57.43
54.81
53.02
51.91
51.03
49.96
48.35
46.14
43.46
40.55
37.61
34.63
31.34
27.30
22.04
15.27
7.05
-2.15
-11.55
-20.31
-27.76
-33.65
-38.25
-42.22
-46.50
-52.05
-59.63
-69.53
-81.31
-93.57
-103.92
-109.41
-107.30
-96.05
-76.11
-50.01
-21.65
4.88
26.59
42.27
52.46
58.69
62.58
65.19
66.87
67.57
67.18
65.84
63.83
61.53
59.20
56.92
54.68
52.44
50.23
48.06
45.90
43.62
41.06
38.07
34.54
30.43
25.74
20.44
14.49
7.85
0.60
-7.05
-14.75
-22.07
-28.68
-34.49
-39.70
-44.81
-50.50
-57.49
-66.26
-76.78
-88.18
-98.66
-105.69
-106.60
-99.42
-83.78
-61.21
-34.89
-8.68
14.11
31.52
43.27
50.30
53.98
55.40
55.08
53.21
49.94
45.76
41.50
38.01
35.85
34.98
34.85
34.65
33.68
31.73
29.04
26.16
23.57
21.40
19.21
16.25
11.68
5.08
-3.32
-12.63
-21.61
-29.16
-34.70
-38.42
-41.11
-43.86
-47.69
-53.31
-60.92
-70.11
-79.66
-87.60
-91.45
-88.93
-78.72
-61.24
-38.69
-14.48
7.87
25.79
38.32
45.87
49.62
50.66
49.62
46.70
42.08
36.33
30.43
25.53
22.41
21.22
21.36
21.81
21.62
20.33
18.05
15.33
12.76
10.58
8.54
5.96
2.13
-3.38
-10.44
-18.29
-25.85
-32.01
-36.11
-38.16
-38.86
-39.41
-41.21
-45.38
-52.40
-61.74
-71.83
-80.14
-83.87
-80.73
-69.73
-51.72
-29.13
-5.32
16.46
34.04
46.62
54.65
59.23
61.45
62.05
61.38
59.59
56.84
53.49
50.00
46.81
44.20
42.18
40.51
38.81
36.76
34.28
31.55
28.91
26.64
24.69
22.65
19.84
15.63
9.75
2.53
-5.24
-12.57
-18.71
-23.44
-27.17
-30.75
-35.15
-41.18
-49.24
-59.17
-70.15
-80.60
-88.32
-90.88
-86.32
-73.90
-54.57
-30.83
-6.07
16.49
34.64
47.55
55.63
59.94
61.55
61.30
59.66
56.94
53.51
49.87
46.55
43.97
42.21
40.97
39.66
37.71
34.81
31.14
27.25
23.75
20.94
18.60
15.97
12.16
6.56
-0.77
-9.11
-17.34
-24.42
-29.84
-33.74
-36.90
-40.41
-45.30
-52.26
-61.33
-71.75
-81.88
-89.36
-91.62
-86.68
-73.89
-54.39
-30.86
-6.76
14.71
31.50
42.94
49.50
52.17
51.93
49.53
45.48
40.30
34.62
29.13
24.40
20.75
18.20
16.52
15.43
14.70
14.22
13.88
13.44
12.47
10.41
6.73
1.28
-5.60
-13.12
-20.25
-26.23
-30.78
-34.27
-37.57
-41.79
-47.86
-56.27
-66.63
-77.50
-86.44
-90.46
-86.95
-74.72
-54.64
-29.61
-3.68
19.25
36.66
47.89
53.86
56.20
56.38
55.23
52.94
49.52
45.11
40.13
35.18
30.80
27.28
24.65
22.76
21.41
20.43
19.57
18.46
16.65
13.64
9.08
2.90
-4.55
-12.57
-20.35
-27.26
-33.05
-38.10
-43.29
-49.74
-58.33
-69.08
-80.76
-90.95
-96.53
-94.67
-83.92
-64.89
-40.23
-13.82
10.46
29.83
43.25
51.20
55.07
56.31
55.95
54.51
52.21
49.25
45.96
42.68
39.69
37.00
34.48
31.94
29.35
26.86
24.67
22.87
21.17
18.94
15.34
9.69
1.85
-7.65
-17.71
-27.05
-34.67
-40.30
-44.49
-48.49
-53.79
-61.62
-72.28
-84.84
-97.00
-105.60
-107.40
-100.21
-83.76
-60.00
-32.56
-5.57
17.60
35.25
47.42
55.35
60.49
63.87
65.78
66.13
64.85
62.27
59.06
55.99
53.53
51.69
50.01
47.94
45.09
41.54
37.78
34.40
31.82
29.91
28.01
25.08
20.22
13.05
3.98
-5.97
-15.51
-23.65
-30.09
-35.30
-40.26
-46.12
-53.86
-63.95
-76.16
-89.29
-101.19
-108.95
-109.67
-101.42
-84.06
-59.65
-31.87
-4.85
18.11
35.46
47.38
55.15
60.22
63.50
65.23
65.33
63.79
60.98
57.61
54.40
51.86
50.10
48.83
47.58
45.98
43.87
41.41
38.93
36.71
34.78
32.77
30.03
25.85
19.77
11.89
2.92
-6.10
-14.14
-20.60
-25.55
-29.66
-33.95
-39.44
-46.87
-56.43
-67.65
-79.25
-89.13
-94.69
-93.43
-83.87
-66.26
-42.73
-16.81
7.73
28.03
42.81
52.36
57.87
60.60
61.32
60.28
57.54
53.40
48.62
44.29
41.33
40.10
40.25
40.81
40.72
39.25
36.37
32.71
29.16
26.35
24.25
22.15
18.96
13.82
6.57
-2.12
-10.99
-18.79
-24.74
-28.89
-32.07
-35.49
-40.36
-47.45
-56.91
-68.08
-79.44
-88.77
-93.45
-91.24
-80.97
-63.18
-40.13
-15.21
8.11
27.29
41.25
50.28
55.49
58.05
58.73
57.85
55.53
52.05
47.98
44.15
41.31
39.85
39.64
40.10
40.48
40.12
38.78
36.56
33.85
31.03
28.28
25.48
22.26
18.17
12.86
6.26
-1.39
-9.54
-17.51
-24.70
-30.77
-35.81
-40.30
-44.98
-50.67
-58.03
-67.41
-78.51
-90.26
-100.61
-106.91
-106.45
-97.50
-80.02
-55.99
-28.87
-2.55
19.85
36.74
48.15
55.16
59.20
61.39
62.36
62.43
61.73
60.46
58.78
56.86
54.80
52.68
50.61
48.71
47.06
45.69
44.45
43.12
41.34
38.83
35.36
30.84
25.39
19.27
12.86
6.47
0.29
-5.75
-11.86
-18.19
-24.73
-31.22
-37.21
-42.37
-46.68
-50.56
-54.84
-60.47
-68.23
-78.18
-89.37
-99.68
-106.20
-106.01
-97.17
-79.64
-55.43
-28.15
-1.80
20.40
36.84
47.59
53.85
57.15
58.70
59.20
58.96
58.12
56.87
55.39
53.80
52.11
50.25
48.17
45.97
43.91
42.26
41.19
40.56
39.94
38.71
36.25
32.24
26.79
20.47
14.09
8.38
3.63
-0.42
-4.46
-9.26
-15.24
-22.22
-29.53
-36.33
-42.03
-46.60
-50.53
-54.72
-60.13
-67.50
-76.99
-87.91
-98.50
-106.15
-107.93
-101.56
-86.36
-63.69
-36.72
-9.46
14.46
32.79
44.99
51.85
54.81
55.18
53.81
51.15
47.46
43.16
38.82
35.13
32.66
31.69
32.03
33.19
34.48
35.28
35.20
34.15
32.20
29.51
26.25
22.51
18.31
13.68
8.65
3.26
-2.46
-8.47
-14.62
-20.70
-26.41
-31.48
-35.82
-39.65
-43.46
-48.00
-54.08
-62.21
-72.27
-83.23
-93.07
-99.09
-98.64
-89.95
-72.89
-49.21
-22.14
4.52
27.50
44.78
55.91
61.64
63.37
62.45
59.92
56.42
52.40
48.33
44.71
42.00
40.38
39.72
39.62
39.62
39.35
38.65
37.54
36.03
34.03
31.36
27.79
23.23
17.81
11.85
5.75
-0.16
-5.69
-10.93
-16.17
-21.71
-27.73
-34.09
-40.38
-46.14
-51.11
-55.50
-60.05
-65.80
-73.74
-84.21
-96.49
-108.53
-117.26
-119.39
-112.42
-95.67
-70.75
-41.16
-11.23
15.17
35.70
49.88
58.60
63.35
65.49
65.89
65.03
63.22
60.87
58.45
56.35
54.76
53.60
52.67
51.76
50.86
50.07
49.58
49.40
49.29
48.70
46.98
43.56
38.22
31.29
23.54
15.99
9.44
4.20
-0.10
-4.34
-9.50
-16.14
-24.12
-32.64
-40.61
-47.19
-52.17
-56.17
-60.37
-66.07
-74.23
-85.05
-97.58
-109.76
-118.60
-120.93
-114.34
-98.06
-73.52
-44.05
-13.92
12.86
33.66
47.70
55.74
59.36
60.20
59.45
57.75
55.39
52.59
49.62
46.79
44.34
42.45
41.14
40.35
39.96
39.84
39.76
39.41
38.48
36.63
33.72
29.76
24.94
19.55
13.83
7.93
1.86
-4.38
-10.82
-17.35
-23.82
-30.04
-35.87
-41.34
-46.58
-51.91
-57.80
-64.80
-73.34
-83.28
-93.53
-101.91
-105.56
-101.81
-89.24
-68.51
-42.31
-14.58
10.79
31.03
45.10
53.44
57.29
57.97
56.40
53.13
48.58
43.31
38.16
34.09
31.89
31.87
33.67
36.43
39.04
40.54
40.42
38.71
35.86
32.42
28.80
25.07
20.97
16.10
10.14
3.03
-4.90
-13.05
-20.73
-27.40
-32.87
-37.40
-41.56
-46.14
-51.92
-59.52
-69.19
-80.46
-91.95
-101.36
-105.80
-102.71
-90.75
-70.43
-44.26
-15.94
10.65
32.59
48.46
58.39
63.51
65.27
64.93
63.39
61.15
58.56
55.92
53.51
51.60
50.35
49.74
49.60
49.67
49.66
49.30
48.41
46.77
44.22
40.64
36.08
30.74
24.91
18.91
12.86
6.71
0.27
-6.65
-14.02
-21.57
-28.86
-35.48
-41.30
-46.51
-51.70
-57.71
-65.38
-75.27
-87.23
-100.06
-111.41
-118.15
-117.24
-106.80
-86.96
-60.10
-30.14
-1.31
23.08
41.42
53.79
61.34
65.46
67.25
67.39
66.31
64.45
62.31
60.41
59.00
58.07
57.39
56.71
55.90
55.06
54.36
53.91
53.60
53.03
51.67
48.95
44.62
38.77
31.95
24.95
18.45
12.79
7.80
2.89
-2.69
-9.36
-17.10
-25.34
-33.24
-40.12
-45.77
-50.57
-55.48
-61.68
-70.17
-81.29
-94.30
-107.13
-116.73
-119.73
-113.55
-97.40
-72.79
-43.17
-12.92
14.02
35.23
50.12
59.53
64.90
67.48
67.98
66.74
64.05
60.46
56.78
53.75
51.73
50.53
49.59
48.23
46.09
43.21
39.99
36.86
34.01
31.25
28.04
23.72
17.83
10.34
1.69
-7.41
-16.14
-23.99
-30.81
-36.89
-42.70
-48.65
-54.86
-61.10
-66.98
-72.08
-76.19
-79.44
-82.20
-85.11
-88.90
-94.28
-101.63
-110.62
-119.94
-127.19
-129.42
-123.93
-109.38
-86.45
-57.85
-27.53
0.56
23.59
40.43
51.48
58.03
61.45
62.80
62.72
61.69
60.22
58.91
58.34
58.82
60.36
62.56
64.97
67.15
68.86
69.99
70.47
70.17
68.84
66.19
62.07
56.59
50.14
43.29
36.61
30.40
24.67
19.09
13.26
6.85
-0.12
-7.26
-14.03
-19.95
-24.89
-29.25
-33.89
-39.92
-48.23
-58.98
-71.17
-82.60
-90.19
-90.94
-82.92
-66.07
-42.35
-15.22
11.47
34.54
52.19
64.04
70.79
73.54
73.41
71.31
67.98
64.06
60.12
56.59
53.77
51.70
50.26
49.28
48.62
48.21
48.02
47.93
47.66
46.71
44.53
40.75
35.35
28.69
21.44
14.28
7.66
1.64
-4.06
-9.85
-16.08
-22.82
-29.86
-36.79
-43.24
-49.02
-54.31
-59.67
-65.95
-74.02
-84.40
-96.73
-109.44
-119.87
-124.71
-121.12
-107.73
-85.39
-57.04
-26.85
1.06
23.79
40.25
50.93
57.24
60.71
62.48
63.21
63.26
62.88
62.30
61.69
61.09
60.45
59.67
58.75
57.77
56.87
56.09
55.25
53.99
51.90
48.61
43.99
38.23
31.75
25.06
18.61
12.58
6.81
0.89
-5.61
-12.90
-20.82
-28.88
-36.55
-43.47
-49.72
-55.82
-62.56
-70.79
-81.03
-93.07
-105.67
-116.52
-122.57
-120.94
-109.96
-89.93
-63.32
-34.02
-6.18
17.05
34.24
45.62
52.56
56.69
59.28
60.91
61.68
61.44
60.22
58.28
56.13
54.31
53.18
52.76
52.81
52.94
52.79
52.07
50.62
48.30
45.04
40.84
35.89
30.49
24.92
19.37
13.75
7.83
1.35
-5.79
-13.43
-21.17
-28.59
-35.39
-41.61
-47.60
-54.06
-61.72
-71.12
-82.17
-93.80
-103.91
-109.70
-108.48
-98.63
-80.32
-55.72
-28.33
-2.01
20.31
37.19
48.73
55.95
59.99
61.61
61.11
58.70
54.82
50.33
46.31
43.63
42.63
42.94
43.73
44.14
43.62
42.16
40.19
38.25
36.62
35.14
33.17
29.88
24.65
17.37
8.56
-0.75
-9.41
-16.56
-21.98
-26.13
-29.96
-34.66
-41.27
-50.33
-61.63
-73.92
-85.00
-92.10
-92.58
-84.87
-69.13
-47.37
-22.89
0.78
20.91
36.17
46.55
52.74
55.58
55.59
53.08
48.44
42.49
36.38
31.36
28.29
27.31
27.84
28.87
29.43
29.02
27.68
25.79
23.76
21.62
18.96
15.07
9.32
1.50
-7.91
-17.91
-27.28
-35.08
-41.03
-45.63
-50.00
-55.52
-63.35
-74.01
-86.97
-100.60
-112.29
-119.02
-118.27
-108.79
-91.26
-68.13
-42.98
-19.32
0.35
15.06
25.27
32.15
36.96
40.50
43.13
44.92
46.06
46.98
48.32
50.68
54.28
58.79
63.34
66.89
68.62
68.29
66.30
63.44
60.43
57.51
54.29
49.99
43.88
35.77
26.16
16.11
6.77
-1.20
-7.88
-14.11
-21.14
-30.16
-41.84
-56.09
-71.83
-87.19
-99.58
-106.27
-105.03
-94.86
-76.53
-52.57
-26.57
-2.12
18.16
33.22
43.47
50.12
54.49
57.41
59.19
59.81
59.29
57.87
56.00
54.11
52.50
51.09
49.60
47.69
45.18
42.16
38.97
36.07
33.73
31.92
30.15
27.66
23.69
17.77
10.03
1.20
-7.63
-15.39
-21.50
-26.03
-29.70
-33.61
-38.84
-46.18
-55.84
-67.27
-79.02
-88.77
-93.82
-91.76
-81.39
-63.30
-39.90
-14.74
8.60
27.59
41.29
50.20
55.64
58.91
60.82
61.53
60.86
58.71
55.31
51.26
47.32
44.10
41.78
40.14
38.68
36.92
34.64
31.91
29.01
26.18
23.47
20.58
17.04
12.33
6.14
-1.45
-9.96
-18.63
-26.62
-33.32
-38.58
-42.76
-46.64
-51.20
-57.39
-65.77
-76.30
-88.04
-99.14
-106.97
-108.79
-102.56
-87.85
-66.11
-40.41
-14.49
8.42
26.40
39.08
47.22
51.93
54.11
54.22
52.49
49.27
45.23
41.26
38.17
36.33
35.56
35.19
34.47
32.95
30.62
27.96
25.52
23.62
22.10
20.30
17.41
12.79
6.30
-1.55
-9.81
-17.45
-23.68
-28.35
-31.95
-35.52
-40.29
-47.30
-56.97
-68.80
-81.13
-91.42
-96.71
-94.55
-83.85
-65.41
-41.86
-16.82
6.16
24.69
37.97
46.60
51.87
54.94
56.41
56.29
54.49
51.16
46.96
42.86
39.69
37.85
37.04
36.53
35.53
33.65
31.04
28.27
25.95
24.30
22.91
20.92
17.33
11.53
3.59
-5.68
-15.08
-23.44
-30.09
-35.03
-38.92
-42.81
-47.81
-54.81
-64.22
-75.68
-87.90
-98.64
-105.08
-104.50
-95.30
-77.68
-53.82
-27.29
-1.93
19.32
35.18
45.92
52.84
57.35
60.41
62.27
62.82
61.88
59.60
56.48
53.21
50.40
48.26
46.66
45.17
43.33
40.93
38.04
35.00
32.14
29.56
27.01
23.95
19.76
14.03
6.76
-1.63
-10.36
-18.57
-25.64
-31.32
-35.86
-39.90
-44.27
-49.78
-57.04
-66.30
-77.19
-88.59
-98.53
-104.47
-103.87
-95.13
-78.21
-54.99
-28.74
-3.19
18.65
35.17
46.35
53.26
57.38
59.91
61.50
62.29
62.23
61.22
59.37
56.93
54.21
51.43
48.77
46.31
44.14
42.31
40.81
39.47
37.93
35.79
32.68
28.46
23.30
17.57
11.70
5.92
0.21
-5.64
-11.87
-18.53
-25.38
-32.01
-37.97
-43.04
-47.36
-51.41
-55.96
-61.90
-69.84
-79.88
-91.12
-101.58
-108.44
-108.79
-100.57
-83.54
-59.53
-32.00
-4.96
18.27
35.85
47.67
54.77
58.67
60.64
61.46
61.44
60.68
59.31
57.48
55.43
53.34
51.31
49.36
47.51
45.87
44.56
43.74
43.37
43.17
42.52
40.71
37.17
31.75
24.87
17.39
10.33
4.40
-0.27
-4.18
-8.17
-13.03
-19.09
-26.11
-33.37
-40.00
-45.43
-49.56
-52.90
-56.42
-61.26
-68.35
-77.94
-89.30
-100.47
-108.58
-110.59
-104.25
-89.06
-66.58
-40.11
-13.58
9.54
27.25
39.14
46.07
49.43
50.49
50.05
48.53
46.16
43.22
40.05
37.02
34.46
32.50
31.12
30.25
29.77
29.53
29.38
29.06
28.24
26.59
23.90
20.15
15.55
10.43
5.12
-0.19
-5.45
-10.77
-16.21
-21.77
-27.28
-32.48
-37.17
-41.35
-45.25
-49.34
-54.17
-60.18
-67.48
-75.58
-83.21
-88.45
-88.99
-82.88
-69.21
-48.70
-23.68
2.45
26.24
45.08
57.85
64.84
67.22
66.44
63.67
59.70
55.05
50.20
45.66
41.92
39.29
37.74
37.06
36.88
36.97
37.24
37.69
38.25
38.61
38.21
36.46
32.98
27.79
21.38
14.46
7.71
1.51
-4.19
-9.74
-15.50
-21.65
-28.08
-34.43
-40.33
-45.59
-50.37
-55.12
-60.46
-67.02
-75.21
-84.94
-95.33
-104.60
-110.24
-109.65
-101.00
-84.06
-60.52
-33.61
-7.20
15.38
32.20
42.90
48.45
50.42
50.24
48.87
46.71
43.85
40.30
36.21
31.95
27.97
24.61
21.96
19.76
17.52
14.76
11.19
6.85
1.99
-3.00
-7.85
-12.47
-16.91
-21.31
-25.78
-30.30
-34.80
-39.09
-42.99
-46.30
-48.93
-50.90
-52.38
-53.77
-55.61
-58.59
-63.33
-70.16
-78.81
-88.11
-95.98
-99.74
-96.90
-86.04
-67.47
-43.34
-17.08
7.70
28.27
43.38
53.35
59.46
63.24
65.80
67.63
68.73
68.96
68.34
67.14
65.80
64.71
63.98
63.43
62.71
61.48
59.57
57.07
54.21
51.22
48.14
44.81
40.91
36.08
30.08
22.92
14.90
6.51
-1.72
-9.36
-16.24
-22.48
-28.49
-34.81
-42.06
-50.76
-61.16
-72.98
-85.15
-95.79
-102.38
-102.52
-94.67
-78.92
-57.13
-32.43
-8.30
12.53
28.60
39.80
46.84
50.64
51.91
51.08
48.53
44.82
40.74
37.11
34.53
33.14
32.65
32.56
32.44
32.10
31.64
31.30
31.17
31.01
30.25
28.12
23.95
17.52
9.20
-0.08
-9.13
-16.90
-22.88
-27.30
-31.07
-35.46
-41.68
-50.42
-61.41
-73.36
-84.01
-90.66
-90.87
-83.24
-67.96
-46.80
-22.70
1.10
21.87
37.97
49.01
55.47
58.34
58.58
57.02
54.24
50.80
47.18
43.89
41.32
39.64
38.70
38.16
37.62
36.86
35.84
34.63
33.23
31.32
28.36
23.75
17.21
9.02
0.01
-8.70
-16.15
-21.96
-26.48
-30.71
-35.92
-43.18
-52.87
-64.28
-75.60
-84.20
-87.29
-82.78
-70.12
-50.54
-26.83
-2.49
19.31
36.56
48.69
56.31
60.58
62.57
62.99
62.15
60.26
57.63
54.74
52.05
49.84
48.03
46.31
44.30
41.92
39.38
37.04
35.15
33.49
31.40
27.96
22.49
14.91
5.83
-3.58
-12.15
-19.14
-24.53
-29.03
-33.79
-40.04
-48.57
-59.42
-71.54
-82.85
-90.55
-91.90
-85.16
-70.30
-49.17
-25.01
-1.38
18.93
34.60
45.76
53.43
58.81
62.64
65.11
66.08
65.47
63.50
60.74
57.82
55.21
53.01
51.00
48.86
46.30
43.32
40.16
37.16
34.55
32.26
29.88
26.73
22.14
15.71
7.55
-1.69
-11.05
-19.60
-26.81
-32.76
-38.13
-43.90
-51.05
-60.20
-71.38
-83.85
-96.08
-105.90
-110.90
-109.11
-99.67
-83.28
-62.19
-39.63
-18.94
-2.67
8.00
13.31
14.68
14.04
13.27
13.78
16.36
21.19
28.09
36.68
46.53
57.10
67.76
77.70
86.11
92.41
96.45
98.57
99.44
99.73
99.83
99.77
99.32
98.11
95.82
92.19
86.92
79.66
70.16
58.35
44.61
29.82
15.14
1.80
-9.29
-17.71
-23.57
-27.37
-29.74
-31.24
-32.11
-32.14
-30.77
-27.30
-21.29
-12.89
-3.02
6.93
15.58
22.15
26.71
30.08
33.23
36.69
40.30
43.20
44.38
43.21
39.73
34.64
28.90
23.36
18.43
14.11
10.10
6.10
2.01
-2.04
-5.83
-9.16
-12.01
-14.58
-17.24
-20.35
-24.20
-28.86
-34.21
-39.91
-45.58
-50.85
-55.50
-59.47
-62.90
-66.10
-69.59
-73.98
-79.83
-87.35
-96.00
-104.32
-110.05
-110.71
-104.47
-90.95
-71.50
-48.92
-26.47
-6.91
8.24
18.90
25.90
30.40
33.33
35.12
35.82
35.38
33.89
31.65
29.14
26.84
25.14
24.13
23.68
23.47
23.18
22.61
21.75
20.70
19.53
18.16
16.34
13.76
10.18
5.51
-0.07
-6.20
-12.37
-18.04
-22.72
-26.11
-28.20
-29.31
-30.16
-31.63
-34.73
-40.27
-48.64
-59.48
-71.50
-82.40
-89.32
-89.61
-81.74
-65.99
-44.49
-20.61
2.20
21.39
35.93
46.10
52.91
57.25
59.56
59.75
57.63
53.29
47.39
41.00
35.31
31.23
29.17
29.01
30.29
32.42
34.84
37.09
38.81
39.67
39.35
37.55
34.05
28.81
22.00
14.02
5.49
-2.86
-10.33
-16.44
-21.07
-24.51
-27.37
-30.43
-34.44
-39.94
-47.21
-56.05
-65.71
-74.77
-81.22
-82.85
-77.87
-65.65
-47.10
-24.61
-1.39
19.60
36.41
48.51
56.48
61.46
64.57
66.51
67.65
68.21
68.51
68.99
70.15
72.28
75.37
79.00
82.55
85.33
86.94
87.44
87.30
87.29
87.97
89.43
91.04
91.60
89.76
84.45
75.20
62.22
46.20
28.03
8.61
-11.23
-30.73
-49.24
-66.31
-81.86
-96.27
-110.15
-123.84
-136.86
-147.66
-153.83
-152.88
-143.37
-125.65
-102.05
-76.21
-51.94
-32.08
-17.75
-8.51
-2.95
0.42
2.54
3.69
3.75
2.62
0.54
-1.91
-4.01
-5.25
-5.56
-5.29
-4.96
-4.97
-5.37
-5.86
-5.97
-5.35
-4.04
-2.56
-1.80
-2.68
-5.83
-11.30
-18.49
-26.36
-33.82
-40.12
-45.11
-49.21
-53.21
-57.93
-64.03
-71.82
-81.26
-91.78
-102.18
-110.56
-114.64
-112.33
-102.57
-85.85
-64.24
-40.83
-18.75
-0.29
13.55
22.99
28.88
32.16
33.49
33.28
31.92
30.02
28.36
27.69
28.35
30.17
32.45
34.37
35.35
35.33
34.70
33.94
33.24
32.22
30.08
26.00
19.64
11.35
2.06
-7.10
-15.34
-22.44
-28.83
-35.32
-42.78
-51.85
-62.60
-74.29
-85.29
-93.20
-95.34
-89.68
-75.61
-54.46
-29.16
-3.41
19.54
37.76
50.77
59.29
64.33
66.75
67.04
65.47
62.39
58.35
53.95
49.62
45.48
41.36
37.02
32.44
27.84
23.63
20.08
17.14
14.32
10.87
6.11
-0.33
-8.23
-16.92
-25.42
-32.84
-38.68
-43.11
-46.90
-51.34
-57.66
-66.55
-77.64
-89.19
-98.39
-102.01
-97.53
-84.08
-62.93
-37.17
-10.82
12.50
30.48
42.50
49.30
52.28
52.77
51.65
49.44
46.54
43.39
40.57
38.53
37.40
36.90
36.51
35.75
34.43
32.76
31.19
30.15
29.65
29.15
27.71
24.31
18.28
9.71
-0.57
-11.29
-21.13
-29.31
-35.72
-41.06
-46.44
-53.09
-61.85
-72.84
-85.13
-96.69
-104.70
-106.20
-99.07
-82.85
-59.16
-31.30
-3.22
21.68
41.45
55.80
65.62
72.18
76.51
79.04
79.91
79.23
77.36
74.90
72.44
70.34
68.63
67.00
65.09
62.71
60.01
57.36
55.22
53.74
52.58
50.88
47.47
41.40
32.37
20.94
8.36
-3.87
-14.61
-23.46
-30.83
-37.62
-44.85
-53.25
-63.05
-73.86
-84.53
-93.19
-97.56
-95.46
-85.68
-68.57
-46.21
-21.89
0.97
19.81
33.57
42.59
48.02
50.97
52.15
51.81
50.02
46.97
43.14
39.10
35.33
32.05
29.20
26.61
24.23
22.22
20.88
20.43
20.73
21.21
20.94
18.99
14.84
8.64
1.18
-6.45
-13.26
-18.86
-23.55
-28.21
-33.96
-41.71
-51.80
-63.53
-75.12
-83.88
-86.91
-81.98
-68.43
-47.67
-22.76
2.41
24.37
41.01
51.94
58.09
60.97
61.95
61.89
61.19
60.08
58.84
57.85
57.39
57.44
57.57
57.03
55.09
51.40
46.21
40.29
34.60
29.81
26.01
22.62
18.78
13.70
7.20
-0.25
-7.70
-14.11
-18.85
-21.99
-24.25
-26.81
-30.97
-37.70
-47.35
-59.35
-72.02
-82.75
-88.52
-86.76
-76.35
-58.17
-34.96
-10.53
11.51
28.76
40.55
47.48
50.82
51.72
50.88
48.69
45.56
42.17
39.43
38.07
38.42
40.14
42.39
44.17
44.73
43.85
41.89
39.46
37.09
34.86
32.32
28.66
23.16
15.56
6.28
-3.66
-13.04
-20.85
-26.70
-30.91
-34.33
-38.10
-43.25
-50.54
-60.10
-71.30
-82.58
-91.60
-95.73
-92.80
-81.93
-63.98
-41.40
-17.50
4.62
22.84
36.35
45.37
50.65
52.96
52.94
51.17
48.35
45.34
42.92
41.57
41.22
41.30
40.95
39.49
36.66
32.78
28.56
24.73
21.67
19.18
16.55
12.86
7.42
0.10
-8.58
-17.63
-25.95
-32.79
-37.91
-41.74
-45.11
-49.03
-54.34
-61.45
-70.05
-79.01
-86.36
-89.68
-86.78
-76.47
-59.20
-37.09
-13.40
8.48
26.00
38.07
44.92
47.61
47.38
45.19
41.65
37.29
32.74
28.69
25.72
24.04
23.37
23.15
22.79
21.92
20.55
18.89
17.09
15.09
12.61
9.28
4.87
-0.59
-6.73
-12.96
-18.67
-23.43
-27.20
-30.38
-33.76
-38.27
-44.68
-53.20
-63.12
-72.76
-79.69
-81.38
-76.03
-63.21
-44.26
-21.90
0.50
19.94
34.61
44.10
49.11
50.85
50.40
48.43
45.27
41.20
36.74
32.56
29.34
27.42
26.62
26.37
25.94
24.87
23.11
20.98
18.86
16.92
14.91
12.19
8.04
2.02
-5.78
-14.63
-23.50
-31.32
-37.50
-42.08
-45.78
-49.75
-55.11
-62.55
-71.92
-81.99
-90.54
-94.89
-92.63
-82.55
-65.24
-43.04
-19.30
2.67
20.60
33.71
42.48
47.99
51.22
52.72
52.68
51.22
48.69
45.65
42.78
40.52
38.99
37.89
36.76
35.16
32.94
30.23
27.41
24.85
22.64
20.49
17.74
13.70
7.90
0.43
-8.06
-16.59
-24.15
-30.19
-34.73
-38.43
-42.36
-47.69
-55.32
-65.50
-77.56
-89.72
-99.35
-103.52
-99.93
-87.74
-68.10
-43.84
-18.64
4.15
22.39
35.59
44.51
50.47
54.61
57.51
59.22
59.60
58.63
56.63
54.14
51.77
49.90
48.65
47.77
46.89
45.60
43.68
41.15
38.22
35.14
32.02
28.69
24.76
19.74
13.31
5.54
-3.05
-11.64
-19.38
-25.80
-30.93
-35.35
-39.95
-45.63
-53.09
-62.63
-73.99
-86.16
-97.31
-104.94
-106.52
-100.18
-85.63
-64.39
-39.48
-14.47
7.60
25.02
37.56
45.97
51.25
54.16
55.03
54.03
51.48
48.03
44.58
41.92
40.45
40.01
40.02
39.77
38.80
37.05
34.84
32.63
30.78
29.24
27.53
24.97
20.89
15.00
7.57
-0.62
-8.54
-15.30
-20.50
-24.41
-27.85
-31.93
-37.64
-45.59
-55.78
-67.41
-78.93
-88.08
-92.36
-89.63
-78.88
-60.74
-37.55
-12.70
10.36
29.14
42.69
51.40
56.46
58.96
59.56
58.41
55.53
51.25
46.29
41.66
38.28
36.60
36.51
37.35
38.30
38.58
37.78
35.87
33.18
30.15
27.09
23.95
20.35
15.75
9.73
2.30
-6.04
-14.44
-22.02
-28.27
-33.22
-37.43
-41.78
-47.15
-54.22
-63.33
-74.28
-86.09
-96.92
-104.17
-105.08
-97.66
-81.54
-58.36
-31.42
-4.59
18.83
37.00
49.64
57.60
62.11
64.23
64.66
63.84
62.16
60.06
57.94
56.06
54.49
53.16
52.01
51.05
50.33
49.77
49.15
48.11
46.22
43.23
39.09
33.99
28.27
22.27
16.17
9.98
3.57
-3.21
-10.43
-17.98
-25.54
-32.71
-39.14
-44.72
-49.66
-54.52
-60.07
-67.17
-76.41
-87.77
-100.16
-111.29
-118.03
-117.27
-107.04
-87.47
-61.01
-31.72
-3.93
19.18
36.31
47.98
55.74
61.13
65.09
67.90
69.50
69.89
69.35
68.28
67.01
65.64
64.04
62.12
59.96
57.87
56.21
55.16
54.52
53.77
52.22
49.41
45.18
39.85
34.00
28.20
22.75
17.57
12.20
6.07
-1.20
-9.56
-18.47
-27.11
-34.72
-40.93
-45.97
-50.63
-55.99
-63.09
-72.48
-83.79
-95.51
-105.01
-109.17
-105.28
-92.11
-70.57
-43.60
-15.36
10.14
30.16
43.82
51.79
55.64
56.96
56.89
56.00
54.53
52.67
50.63
48.67
46.99
45.67
44.68
43.98
43.52
43.25
43.04
42.66
41.78
40.05
37.23
33.30
28.47
23.11
17.56
12.01
6.42
0.58
-5.66
-12.32
-19.16
-25.80
-31.86
-37.17
-41.83
-46.26
-51.12
-57.15
-64.93
-74.47
-84.91
-94.31
-99.99
-99.19
-90.14
-72.86
-49.33
-22.99
2.37
23.72
39.46
49.52
54.83
56.67
56.11
53.81
50.20
45.70
40.92
36.64
33.60
32.26
32.58
33.99
35.63
36.61
36.31
34.57
31.67
28.13
24.43
20.79
17.09
12.93
7.89
1.75
-5.36
-12.99
-20.50
-27.32
-33.18
-38.17
-42.68
-47.27
-52.55
-59.12
-67.40
-77.46
-88.62
-99.23
-106.71
-108.20
-101.44
-85.86
-62.93
-35.98
-9.02
14.39
32.20
44.02
50.75
53.74
54.23
53.02
50.60
47.35
43.72
40.19
37.25
35.20
34.16
33.98
34.31
34.67
34.59
33.72
31.96
29.52
26.78
24.12
21.67
19.20
16.21
12.20
6.94
0.61
-6.26
-12.96
-18.92
-23.89
-28.00
-31.73
-35.76
-40.86
-47.78
-57.04
-68.59
-81.51
-93.81
-102.67
-105.16
-99.12
-84.16
-61.86
-35.46
-8.80
14.83
33.47
46.73
55.39
60.68
63.76
65.35
65.79
65.31
64.16
62.72
61.39
60.47
60.03
59.81
59.37
58.24
56.08
52.83
48.71
44.11
39.36
34.63
29.76
24.41
18.16
10.70
2.04
-7.48
-17.18
-26.29
-34.18
-40.57
-45.68
-50.15
-54.81
-60.53
-67.93
-77.15
-87.64
-97.92
-105.65
-107.98
-102.37
-87.59
-64.44
-35.76
-5.69
21.68
43.48
58.80
68.39
73.88
76.79
77.96
77.63
75.74
72.51
68.53
64.67
61.63
59.72
58.77
58.28
57.72
56.69
55.04
52.71
49.74
46.11
41.78
36.79
31.20
25.21
18.98
12.71
6.52
0.51
-5.21
-10.51
-15.28
-19.49
-23.28
-27.05
-31.42
-37.12
-44.75
-54.50
-65.79
-77.14
-86.27
-90.53
-87.66
-76.64
-58.19
-34.71
-9.71
13.29
31.64
44.11
50.79
52.69
51.06
47.07
41.60
35.40
29.15
23.52
19.10
16.24
15.01
15.11
16.02
17.22
18.41
19.65
21.23
23.41
26.02
28.26
28.90
26.79
21.41
13.25
3.69
-5.54
-13.10
-18.56
-22.57
-26.44
-31.66
-39.26
-49.40
-61.12
-72.44
-80.73
-83.41
-78.73
-66.39
-47.77
-25.59
-3.02
17.17
33.33
44.97
52.48
56.40
57.15
54.90
49.84
42.56
34.15
25.97
19.18
14.31
11.17
9.06
7.28
5.42
3.44
1.35
-1.08
-4.56
-10.03
-18.31
-29.63
-43.54
-58.98
-74.61
-89.01
-101.10
-110.33
-116.95
-122.06
-127.42
-134.76
-144.96
-157.33
-169.46
-177.76
-178.64
-169.78
-151.01
-124.37
-93.37
-61.94
-33.24
-9.18
9.70
23.72
33.52
39.65
42.53
42.69
40.98
38.53
36.54
35.84
36.64
38.59
41.12
43.88
47.02
51.11
56.66
63.69
71.34
77.97
81.68
81.00
75.52
66.01
54.19
42.09
31.34
22.70
15.94
10.15
4.08
-3.47
-13.25
-25.37
-39.04
-52.49
-63.23
-68.61
-66.77
-57.38
-41.94
-23.27
-4.49
11.96
25.04
34.86
42.03
46.98
49.67
49.83
47.59
43.83
40.04
37.74
37.70
39.63
42.36
44.52
45.23
44.44
42.80
41.08
39.63
38.11
35.61
31.21
24.38
15.33
4.93
-5.65
-15.29
-23.26
-29.46
-34.35
-38.79
-43.84
-50.51
-59.44
-70.63
-83.20
-95.27
-104.12
-106.87
-101.25
-86.47
-63.63
-35.49
-5.70
22.21
45.77
63.90
76.75
85.14
90.01
92.03
91.60
89.07
85.01
80.26
75.75
72.25
70.01
68.79
67.92
66.73
64.77
61.99
58.58
54.72
50.34
45.06
38.43
30.23
20.73
10.64
0.93
-7.60
-14.71
-20.69
-26.34
-32.57
-40.20
-49.69
-61.02
-73.51
-85.70
-95.45
-100.20
-97.79
-87.15
-68.95
-45.53
-20.31
3.25
22.60
36.65
45.69
50.89
53.60
54.81
55.02
54.28
52.53
49.83
46.52
43.05
39.89
37.29
35.31
33.80
32.60
31.57
30.52
29.13
26.89
23.27
17.92
10.94
2.90
-5.28
-12.74
-18.99
-24.19
-29.16
-35.07
-42.90
-52.88
-64.06
-74.29
-80.74
-80.76
-72.83
-57.16
-35.68
-11.50
12.06
32.25
47.53
57.50
62.74
64.26
63.18
60.42
56.66
52.34
47.77
43.21
38.91
35.09
31.87
29.23
27.06
25.14
23.22
21.00
18.14
14.25
9.08
2.52
-5.21
-13.65
-22.16
-30.16
-37.32
-43.70
-49.84
-56.57
-64.74
-74.70
-85.89
-96.56
-104.05
-105.49
-98.74
-83.29
-60.64
-33.92
-6.95
16.88
35.51
48.41
56.31
60.54
62.38
62.71
61.98
60.43
58.28
55.79
53.20
50.56
47.73
44.44
40.60
36.41
32.37
28.97
26.42
24.38
22.11
18.74
13.79
7.37
0.18
-6.85
-13.02
-18.19
-22.85
-28.00
-34.75
-43.87
-55.30
-67.91
-79.39
-86.81
-87.42
-79.57
-63.43
-41.06
-15.79
8.72
29.53
45.00
54.93
60.15
61.91
61.41
59.45
56.48
52.69
48.25
43.39
38.48
33.96
30.21
27.50
25.88
25.24
25.24
25.42
25.16
23.82
20.89
16.18
9.89
2.61
-4.86
-11.83
-17.85
-23.00
-27.76
-32.98
-39.43
-47.40
-56.28
-64.49
-69.81
-70.18
-64.40
-52.64
-36.19
-16.71
4.41
26.49
49.38
72.98
96.69
119.17
138.50
152.77
160.54
161.11
154.58
141.79
124.25
103.96
83.30
64.38
48.81
37.34
29.73
24.79
20.95
17.11
13.17
10.18
9.00
10.15
13.20
16.67
18.48
16.62
10.13
-1.16
-16.74
-37.07
-62.03
-89.94
-117.30
-139.65
-153.18
-155.79
-148.54
-134.99
-122.11
-116.13
-120.12
-133.22
-151.79
-171.56
-188.74
-202.06
-211.79
-221.73
-234.84
-251.20
-267.83
-280.63
-286.87
-285.48
-278.28
-250.94
-196.90
-120.46
-35.70
42.65
106.42
150.33
179.95
199.53
212.08
217.47
216.15
210.04
201.98
194.24
187.11
179.61
169.21
154.51
134.30
110.30
87.09
70.72
65.82
73.39
91.04
113.16
134.06
148.55
154.48
152.84
146.69
139.18
132.01
125.59
119.07
111.92
103.94
95.87
89.06
84.81
83.55
84.49
86.05
86.19
83.35
76.66
66.17
52.77
37.76
22.37
7.54
-6.14
-18.47
-29.54
-39.72
-49.71
-60.45
-72.87
-87.57
-104.64
-123.68
-143.97
-164.73
-185.12
-204.01
-219.48
-228.61
-227.74
-213.45
-183.85
-139.81
-85.29
-26.72
28.57
74.18
106.04
122.91
125.90
117.48
100.52
77.80
51.94
25.52
1.12
-19.01
-33.38
-41.63
-44.61
-43.98
-41.67
-39.25
-37.55
-36.65
-36.15
-35.57
-34.69
