1520866627.00
64.000000
-0.00
-0.00
-0.00
-0.00
-0.00
-0.00
-0.00
-0.00
-0.00
-0.00
0.00
0.01
0.01
-0.00
-0.03
-0.05
-0.05
0.00
0.13
0.36
0.66
1.01
1.37
1.72
2.06
2.40
2.79
3.24
3.80
4.42
5.06
5.66
6.20
6.68
7.15
7.68
8.31
9.14
10.09
11.04
11.88
12.56
13.14
13.76
14.65
15.96
17.91
20.32
22.90
25.38
27.58
29.57
31.68
34.32
37.81
42.54
48.15
54.10
59.83
64.97
69.58
74.14
79.34
85.71
93.76
103.00
112.62
121.73
129.77
136.75
143.30
150.75
157.77
166.64
177.95
191.79
206.97
220.57
228.25
225.36
208.53
176.87
132.76
80.05
23.07
-34.94
-92.44
-149.16
-205.23
-260.37
-313.74
-363.87
-409.83
-450.91
-486.50
-515.74
-537.23
-549.22
-549.96
-538.37
-514.21
-478.67
-433.88
-382.45
-327.02
-269.84
-212.63
-156.66
-102.95
-52.37
-5.90
35.58
71.43
101.35
125.50
144.38
158.69
169.15
176.37
180.75
182.57
182.07
179.51
175.23
169.65
163.18
156.15
148.81
141.30
133.69
126.02
118.33
110.69
103.16
95.80
88.68
81.83
75.25
68.95
62.95
57.25
51.86
46.78
42.03
37.59
33.45
29.61
26.07
22.81
19.83
17.11
14.67
12.48
10.54
8.83
7.35
6.07
4.97
4.05
3.27
2.62
2.09
1.65
1.30
1.01
0.79
0.61
0.47
0.37
0.29
0.23
0.19
0.16
0.15
0.15
0.16
0.17
0.19
0.22
0.26
0.30
0.34
0.38
0.42
0.47
0.52
0.57
0.62
0.67
0.73
0.79
0.86
0.93
1.02
1.11
1.21
1.32
1.44
1.58
1.74
1.91
2.11
2.32
2.56
2.83
3.12
3.44
3.80
4.19
4.61
5.07
5.56
6.09
6.67
7.28
7.94
8.64
9.39
10.18
11.02
11.91
12.83
13.81
14.85
15.95
17.11
18.34
19.61
20.91
22.17
23.33
24.29
24.94
25.17
24.84
23.87
22.19
19.75
16.57
12.70
8.29
3.54
-1.34
-6.07
-10.41
-14.18
-17.25
-19.58
-21.18
-22.10
-22.43
-22.24
-21.63
-20.65
-19.44
-18.10
-16.75
-15.48
-14.32
-13.27
-12.28
-11.23
-10.03
-8.69
-7.29
-6.02
-4.99
-4.28
-3.91
-3.75
-3.55
-3.07
-2.31
-1.45
-0.79
-0.62
-1.02
-2.10
-3.57
-4.91
-5.71
-5.87
-5.68
-5.69
-6.40
-8.01
-10.76
-14.28
-17.90
-21.01
-23.42
-25.33
-27.30
-30.04
-34.29
-41.35
-51.78
-65.01
-79.20
-91.54
-99.13
-100.13
-94.83
-81.17
-61.60
-39.97
-19.86
-3.44
8.74
17.27
23.05
26.75
28.81
28.94
27.51
25.43
23.75
23.24
24.03
25.69
27.41
28.55
28.34
26.83
24.65
22.54
20.98
19.90
18.77
16.88
13.84
9.41
4.13
-0.97
-4.85
-6.76
-6.57
-4.62
-1.48
2.35
6.39
10.41
14.16
17.24
19.22
19.81
19.09
17.55
15.89
14.61
13.90
13.56
13.22
12.58
11.59
10.47
9.52
9.07
9.28
10.20
11.63
13.24
14.60
15.29
15.08
14.05
12.61
11.44
11.24
12.53
15.46
19.75
24.78
29.85
34.36
38.04
40.95
43.32
45.34
46.90
47.51
46.38
42.67
35.82
25.82
13.39
-0.17
-13.21
-24.36
-32.92
-39.01
-43.29
-46.51
-49.16
-51.35
-53.02
-54.16
-54.86
-55.12
-54.78
-53.49
-50.96
-47.25
-42.80
-38.19
-33.76
-29.30
-24.17
-17.69
-9.64
-0.34
9.50
19.14
28.07
35.98
42.55
47.30
49.66
49.29
46.32
41.53
36.06
31.09
27.41
25.17
24.02
23.39
22.84
22.19
21.52
20.91
20.43
20.00
19.52
18.83
17.77
16.06
13.41
9.67
5.06
0.33
-3.33
-4.78
-3.37
0.77
6.72
13.16
18.80
22.66
24.28
23.65
21.19
17.62
13.87
10.82
9.08
8.74
9.35
10.21
10.66
10.39
9.40
7.89
5.93
3.45
0.34
-3.37
-7.37
-11.11
-14.06
-15.97
-17.07
-18.01
-19.57
-22.31
-26.27
-30.89
-35.18
-38.07
-38.75
-36.91
-32.85
-27.22
-20.77
-14.12
-7.61
-1.45
4.16
8.88
12.28
13.98
13.93
12.46
10.31
8.29
7.04
6.78
7.26
7.91
8.17
7.61
6.16
4.04
1.59
-0.88
-3.26
-5.67
-8.32
-11.42
-15.02
-18.99
-23.06
-26.89
-30.12
-32.42
-33.51
-33.21
-31.43
-28.29
-24.05
-19.05
-13.66
-8.20
-2.93
1.89
5.99
9.07
10.92
11.49
10.94
9.66
8.14
6.88
6.24
6.29
6.86
7.48
7.68
7.12
5.66
3.42
0.58
-2.71
-6.38
-10.45
-14.99
-19.96
-25.21
-30.49
-35.33
-39.17
-41.38
-41.48
-39.28
-35.04
-29.34
-22.86
-16.14
-9.49
-3.06
2.96
8.27
12.49
15.37
16.90
17.42
17.43
17.40
17.58
18.04
18.69
19.35
19.89
20.13
19.92
19.12
17.70
15.73
13.27
10.42
7.16
3.39
-1.00
-6.09
-11.72
-17.45
-22.56
-26.18
-27.50
-26.13
-22.26
-16.66
-10.40
-4.55
0.28
3.97
6.84
9.50
12.57
16.56
21.62
27.48
33.24
37.62
39.32
37.57
32.42
24.83
16.34
8.47
2.37
-1.49
-3.19
-3.14
-2.02
-0.66
-0.02
-1.01
-4.24
-9.75
-16.96
-24.70
-31.57
-36.24
-37.74
-35.81
-30.88
-23.96
-16.28
-8.89
-2.42
3.02
7.58
11.41
14.40
16.28
16.68
15.55
13.21
10.33
7.66
5.70
4.60
4.12
3.87
3.53
2.98
2.24
1.39
0.43
-0.77
-2.43
-4.74
-7.78
-11.60
-16.16
-21.35
-26.83
-31.96
-35.82
-37.44
-36.18
-31.97
-25.41
-17.50
-9.30
-1.62
5.14
10.80
15.22
18.16
19.38
18.86
16.94
14.36
11.99
10.50
10.13
10.55
11.11
11.17
10.34
8.62
6.28
3.68
1.07
-1.46
-3.99
-6.68
-9.78
-13.54
-18.08
-23.38
-28.97
-34.03
-37.52
-38.55
-36.66
-32.00
-25.22
-17.18
-8.71
-0.43
7.24
13.90
19.13
22.58
24.10
23.85
22.31
20.08
17.73
15.61
13.88
12.50
11.38
10.45
9.63
8.88
8.10
7.16
5.82
3.86
1.15
-2.30
-6.30
-10.69
-15.33
-20.18
-25.16
-29.89
-33.62
-35.34
-34.19
-29.87
-22.91
-14.43
-5.81
1.96
8.39
13.46
17.31
19.95
21.26
21.14
19.76
17.55
15.09
12.85
11.02
9.53
8.12
6.63
5.06
3.55
2.24
1.16
0.14
-1.15
-3.10
-6.10
-10.31
-15.62
-21.51
-27.07
-31.16
-32.70
-31.04
-26.20
-18.99
-10.72
-2.74
4.00
9.22
13.14
16.19
18.60
20.26
20.90
20.38
18.92
17.11
15.54
14.49
13.78
12.89
11.38
9.16
6.54
4.05
2.07
0.60
-0.72
-2.43
-5.05
-8.90
-14.05
-20.28
-27.03
-33.40
-38.24
-40.46
-39.32
-34.78
-27.50
-18.65
-9.48
-0.99
6.31
12.33
17.11
20.70
23.06
24.15
24.12
23.35
22.30
21.29
20.36
19.22
17.48
14.95
11.84
8.69
6.08
4.34
3.24
2.19
0.44
-2.58
-7.04
-12.74
-19.22
-25.83
-31.76
-36.16
-38.16
-37.17
-33.21
-26.83
-19.14
-11.29
-4.25
1.53
6.12
9.99
13.73
17.84
22.58
27.84
33.16
37.89
41.30
42.94
42.85
41.52
39.73
38.22
37.36
37.04
36.75
35.77
33.39
29.11
22.72
14.37
4.59
-5.90
-16.11
-24.92
-31.28
-34.31
-33.53
-29.08
-21.75
-12.96
-4.50
1.85
4.68
3.31
-2.21
-11.16
-22.44
-34.94
-47.70
-60.02
-71.46
-81.73
-90.74
-98.50
-105.17
-110.96
-115.79
-119.11
-119.91
-117.05
-109.85
-98.65
-84.95
-70.95
-58.72
-49.33
-42.46
-36.66
-30.12
-21.46
-10.28
2.88
16.94
30.84
43.85
55.59
65.88
74.45
80.85
84.51
85.13
82.90
78.64
73.64
69.24
66.29
64.87
64.26
63.42
61.49
58.23
54.10
49.97
46.69
44.64
43.57
42.83
41.63
39.40
35.91
31.27
25.85
20.16
14.83
10.55
8.05
7.95
10.59
15.88
23.31
32.06
41.26
50.18
58.38
65.62
71.73
76.50
79.68
81.07
80.63
78.63
75.57
72.10
68.75
65.73
62.93
60.02
56.61
52.54
47.85
42.74
37.46
32.12
26.71
21.12
15.25
8.99
2.33
-4.61
-11.58
-18.08
-23.47
-27.02
-28.22
-26.91
-23.33
-18.01
-11.60
-4.68
2.25
8.67
14.09
17.99
20.01
20.10
18.57
16.12
13.56
11.66
10.90
11.25
12.31
13.32
13.54
12.41
9.79
5.96
1.48
-2.99
-6.97
-10.30
-13.15
-15.98
-19.35
-23.69
-29.08
-35.06
-40.65
-44.68
-46.17
-44.73
-40.76
-35.21
-29.20
-23.51
-18.43
-13.88
-9.63
-5.72
-2.44
-0.14
0.97
1.03
0.46
-0.18
-0.52
-0.47
-0.23
-0.21
-0.84
-2.32
-4.64
-7.53
-10.62
-13.55
-16.12
-18.35
-20.43
-22.61
-25.09
-27.91
-30.92
-33.80
-36.16
-37.60
-37.78
-36.44
-33.44
-28.71
-22.37
-14.69
-6.20
2.39
10.22
16.49
20.65
22.58
22.55
21.18
19.23
17.34
15.89
14.90
14.13
13.16
11.63
9.37
6.44
3.08
-0.44
-3.89
-7.17
-10.30
-13.42
-16.64
-20.09
-23.74
-27.36
-30.43
-32.23
-32.02
-29.36
-24.30
-17.49
-9.91
-2.68
3.34
7.71
10.42
11.82
12.49
13.06
14.09
15.86
18.31
21.09
23.72
25.81
27.17
27.75
27.58
26.59
24.75
22.17
19.25
16.66
15.07
14.87
15.89
17.53
18.98
19.57
18.95
17.19
14.51
11.13
7.23
2.86
-1.77
-6.33
-10.23
-12.83
-13.58
-12.32
-9.36
-5.33
-0.93
3.36
7.42
11.34
15.21
18.83
21.70
23.24
23.02
21.08
17.88
14.19
10.75
8.09
6.41
5.64
5.57
5.99
6.70
7.53
8.29
8.66
8.30
6.81
4.02
0.08
-4.48
-8.86
-12.36
-14.64
-15.89
-16.73
-17.91
-19.99
-23.11
-27.01
-31.16
-34.96
-37.90
-39.67
-40.13
-39.32
-37.37
-34.46
-30.83
-26.74
-22.47
-18.31
-14.48
-11.12
-8.21
-5.66
-3.36
-1.34
0.30
1.46
2.19
2.80
3.73
5.38
7.83
10.66
13.14
14.48
14.22
12.42
9.70
6.91
4.83
3.87
4.02
4.80
5.65
6.09
5.90
5.23
4.38
3.63
3.04
2.49
1.67
0.35
-1.57
-3.96
-6.68
-9.63
-12.86
-16.46
-20.38
-24.30
-27.59
-29.49
-29.48
-27.44
-23.78
-19.18
-14.45
-10.16
-6.54
-3.56
-0.99
1.33
3.50
5.49
7.28
8.84
10.22
11.51
12.78
14.03
15.18
16.10
16.64
16.75
16.47
15.93
15.30
14.69
14.09
13.31
12.12
10.34
8.03
5.47
3.07
1.16
-0.21
-1.27
-2.39
-3.89
-5.86
-8.20
-10.73
-13.33
-16.06
-19.07
-22.43
-26.04
-29.60
-32.66
-34.76
-35.52
-34.78
-32.61
-29.34
-25.37
-21.16
-17.05
-13.23
-9.72
-6.53
-3.68
-1.21
0.82
2.43
3.77
5.00
6.28
7.61
8.86
9.80
10.32
10.41
10.27
10.12
10.10
10.16
10.08
9.58
8.54
7.05
5.41
3.96
2.83
1.93
0.98
-0.35
-2.18
-4.40
-6.74
-8.89
-10.64
-12.00
-13.13
-14.28
-15.61
-17.14
-18.79
-20.45
-22.12
-23.86
-25.65
-27.32
-28.48
-28.65
-27.47
-24.97
-21.56
-17.91
-14.62
-11.98
-9.89
-8.01
-6.02
-3.81
-1.56
0.44
1.98
2.98
3.58
4.04
4.57
5.24
6.03
6.73
7.13
7.06
6.47
5.55
4.63
4.10
4.16
4.77
5.57
6.12
6.06
5.30
3.99
2.36
0.57
-1.30
-3.27
-5.26
-7.05
-8.44
-9.37
-10.02
-10.83
-12.24
-14.54
-17.74
-21.57
-25.58
-29.27
-32.18
-33.92
-34.26
-33.16
-30.77
-27.44
-23.58
-19.59
-15.79
-12.36
-9.35
-6.74
-4.45
-2.42
-0.59
1.05
2.47
3.62
4.44
4.97
5.31
5.60
5.98
6.50
7.06
7.50
7.62
7.24
6.35
4.99
3.37
1.67
0.07
-1.37
-2.64
-3.85
-5.03
-6.26
-7.55
-8.91
-10.33
-11.85
-13.49
-15.20
-16.85
-18.23
-19.21
-19.85
-20.48
-21.60
-23.70
-26.92
-30.88
-34.72
-37.42
-38.18
-36.86
-33.93
-30.22
-26.44
-22.95
-19.63
-16.19
-12.46
-8.61
-4.97
-1.91
0.45
2.25
3.75
5.14
6.40
7.39
7.96
8.15
8.18
8.33
8.81
9.59
10.50
11.23
11.56
11.43
10.93
10.28
9.62
9.04
8.41
7.55
6.26
4.46
2.24
-0.15
-2.40
-4.30
-5.83
-7.21
-8.81
-10.94
-13.76
-17.17
-21.02
-25.16
-29.55
-34.12
-38.67
-42.79
-45.86
-47.36
-47.00
-44.91
-41.44
-37.09
-32.15
-26.74
-20.99
-15.08
-9.35
-4.19
0.15
3.69
6.66
9.36
12.02
14.64
17.19
19.60
21.88
24.07
26.16
28.05
29.54
30.48
30.80
30.59
30.00
29.23
28.35
27.39
26.26
24.81
23.02
20.96
18.81
16.75
14.83
12.93
10.76
8.07
4.80
1.16
-2.48
-5.81
-8.81
-11.78
-15.14
-19.20
-24.02
-29.25
-34.36
-38.67
-41.52
-42.37
-40.96
-37.44
-32.27
-26.18
-19.85
-13.73
-7.93
-2.38
2.97
8.00
12.53
16.44
19.78
22.72
25.44
27.94
30.09
31.75
32.92
33.71
34.33
34.88
35.33
35.54
35.41
35.01
34.48
33.93
33.34
32.58
31.45
29.84
27.77
25.37
22.77
20.10
17.41
14.75
12.09
9.42
6.64
3.72
0.63
-2.56
-5.74
-8.82
-11.82
-14.92
-18.40
-22.45
-26.98
-31.56
-35.52
-38.14
-38.89
-37.59
-34.41
-29.69
-23.89
-17.37
-10.55
-3.80
2.50
8.03
12.63
16.34
19.31
21.77
23.89
25.72
27.16
28.13
28.50
28.34
27.83
27.31
27.06
27.24
27.81
28.54
29.13
29.28
28.81
27.65
25.88
23.71
21.50
19.67
18.55
18.26
18.55
18.92
18.73
17.52
15.15
11.85
8.08
4.30
0.81
-2.33
-5.25
-8.19
-11.41
-15.16
-19.57
-24.67
-30.20
-35.65
-40.26
-43.14
-43.62
-41.42
-36.78
-30.43
-23.29
-16.20
-9.61
-3.66
1.76
6.75
11.22
15.01
17.95
20.07
21.61
22.93
24.32
25.82
27.24
28.24
28.69
28.64
28.41
28.30
28.46
28.74
28.83
28.44
27.43
25.95
24.19
22.30
20.22
17.82
15.03
11.94
8.87
6.11
3.79
1.77
-0.30
-2.71
-5.57
-8.77
-12.06
-15.38
-18.89
-22.91
-27.65
-32.94
-38.18
-42.43
-44.79
-44.70
-42.11
-37.46
-31.43
-24.73
-17.92
-11.28
-4.91
1.18
6.92
12.18
16.73
20.39
23.11
25.02
26.38
27.49
28.48
29.35
29.98
30.28
30.27
30.09
29.91
29.85
29.82
29.61
28.89
27.38
24.96
21.83
18.42
15.21
12.57
10.54
8.89
7.16
4.98
2.13
-1.33
-5.19
-9.20
-13.14
-16.91
-20.48
-23.93
-27.43
-31.18
-35.35
-39.93
-44.54
-48.42
-50.69
-50.59
-47.82
-42.63
-35.69
-27.86
-19.90
-12.26
-5.18
1.27
7.04
12.09
16.34
19.77
22.41
24.32
25.67
26.65
27.47
28.36
29.37
30.44
31.36
31.99
32.27
32.25
31.92
31.16
29.74
27.47
24.42
21.00
17.76
15.17
13.36
12.11
10.97
9.51
7.46
4.72
1.39
-2.36
-6.30
-10.16
-13.76
-17.06
-20.26
-23.79
-28.11
-33.47
-39.74
-46.29
-52.07
-55.91
-56.82
-54.32
-48.65
-40.66
-31.55
-22.49
-14.26
-7.11
-0.93
4.54
9.44
13.73
17.23
19.83
21.62
22.84
23.80
24.77
25.89
27.16
28.46
29.70
30.81
31.75
32.58
33.26
33.71
33.73
33.11
31.68
29.45
26.59
23.43
20.35
17.54
14.98
12.42
9.52
6.03
1.95
-2.50
-6.96
-11.08
-14.70
-17.92
-21.11
-24.75
-29.28
-34.91
-41.44
-48.25
-54.30
-58.42
-59.63
-57.41
-51.96
-44.09
-34.97
-25.73
-17.14
-9.47
-2.56
3.86
9.96
15.64
20.64
24.70
27.69
29.62
30.68
31.15
31.31
31.40
31.63
32.09
32.75
33.46
34.03
34.28
34.08
33.28
31.72
29.28
25.99
22.15
18.26
14.84
12.17
10.12
8.23
5.96
2.98
-0.77
-4.98
-9.24
-13.23
-16.82
-20.16
-23.61
-27.62
-32.60
-38.66
-45.47
-52.22
-57.75
-60.95
-61.02
-57.74
-51.51
-43.10
-33.47
-23.51
-13.87
-5.03
2.79
9.52
15.09
19.56
23.02
25.68
27.77
29.53
31.09
32.47
33.58
34.35
34.84
35.20
35.55
35.89
36.06
35.76
34.71
32.80
30.15
27.05
23.88
20.98
18.53
16.48
14.52
12.23
9.13
4.97
-0.14
-5.78
-11.33
-16.23
-20.16
-23.17
-25.65
-28.23
-31.56
-36.11
-41.96
-48.55
-54.79
-59.23
-60.60
-58.20
-52.16
-43.37
-33.11
-22.56
-12.61
-3.67
4.14
10.81
16.37
20.88
24.43
27.15
29.22
30.77
31.85
32.47
32.62
32.31
31.64
30.73
29.79
29.00
28.43
28.00
27.46
26.55
25.08
23.11
20.83
18.54
16.44
14.53
12.61
10.40
7.69
4.46
0.87
-2.80
-6.29
-9.45
-12.41
-15.51
-19.18
-23.83
-29.54
-35.91
-42.05
-46.80
-49.01
-47.99
-43.68
-36.68
-28.05
-18.86
-10.00
-1.88
5.32
11.63
17.00
21.26
24.19
25.70
26.00
25.53
24.86
24.42
24.36
24.56
24.67
24.42
23.68
22.57
21.29
20.05
18.92
17.77
16.29
14.14
11.13
7.32
3.01
-1.29
-5.15
-8.41
-11.19
-13.84
-16.80
-20.35
-24.67
-29.75
-35.41
-41.26
-46.67
-50.81
-52.86
-52.23
-48.75
-42.78
-35.05
-26.41
-17.64
-9.24
-1.47
5.72
12.42
18.71
24.45
29.33
33.04
35.45
36.75
37.39
37.83
38.26
38.55
38.36
37.42
35.77
33.72
31.64
29.75
28.03
26.25
24.16
21.58
18.43
14.70
10.48
5.93
1.37
-2.84
-6.43
-9.35
-11.83
-14.31
-17.30
-21.23
-26.36
-32.65
-39.69
-46.66
-52.38
-55.56
-55.26
-51.19
-43.87
-34.46
-24.37
-14.79
-6.43
0.60
6.58
11.89
16.79
21.32
25.31
28.55
30.93
32.40
33.14
33.26
32.88
32.09
31.03
29.85
28.80
28.06
27.64
27.37
27.00
26.26
25.04
23.28
20.98
18.14
14.82
11.12
7.31
3.66
0.36
-2.52
-5.16
-7.77
-10.59
-13.83
-17.69
-22.36
-27.95
-34.35
-41.11
-47.29
-51.70
-53.18
-51.07
-45.42
-37.02
-27.24
-17.42
-8.55
-0.97
5.47
11.24
16.67
21.83
26.52
30.40
33.24
35.00
35.73
35.59
34.75
33.43
31.92
30.58
29.73
29.48
29.70
30.01
29.99
29.35
27.97
25.91
23.37
20.59
17.75
15.04
12.55
10.30
8.21
6.07
3.68
0.89
-2.38
-6.05
-10.05
-14.23
-18.51
-22.88
-27.45
-32.32
-37.49
-42.60
-46.91
-49.41
-49.23
-46.00
-40.02
-32.22
-23.67
-15.33
-7.63
-0.67
5.72
11.63
17.01
21.67
25.42
28.19
30.03
31.12
31.69
31.93
32.00
31.96
31.82
31.53
31.13
30.66
30.19
29.71
29.10
28.17
26.74
24.80
22.50
20.12
17.82
15.67
13.51
11.13
8.34
5.12
1.57
-2.09
-5.55
-8.54
-10.84
-12.52
-13.92
-15.66
-18.43
-22.68
-28.32
-34.61
-40.33
-44.11
-44.98
-42.64
-37.47
-30.42
-22.57
-14.92
-8.09
-2.39
2.15
5.63
8.24
10.14
11.49
12.44
13.12
13.65
14.09
14.48
14.77
14.90
14.81
14.48
13.98
13.48
13.17
13.15
13.37
13.67
13.73
13.36
12.41
10.94
9.02
6.78
4.32
1.75
-0.78
-3.16
-5.35
-7.42
-9.57
-12.09
-15.16
-18.85
-23.02
-27.39
-31.53
-34.92
-36.99
-37.26
-35.50
-31.81
-26.66
-20.81
-15.02
-9.91
-5.79
-2.64
-0.27
1.55
2.98
4.05
4.71
4.88
4.57
3.93
3.23
2.77
2.78
3.29
4.16
5.12
5.90
6.32
6.30
5.87
5.16
4.26
3.25
2.18
1.06
-0.11
-1.31
-2.55
-3.86
-5.27
-6.87
-8.73
-10.89
-13.35
-16.04
-18.90
-21.90
-25.06
-28.29
-31.37
-33.83
-35.07
-34.57
-32.10
-27.84
-22.29
-16.17
-10.14
-4.73
-0.20
3.35
5.93
7.62
8.58
9.03
9.26
9.51
9.92
10.53
11.28
12.10
12.92
13.71
14.44
15.09
15.67
16.22
16.83
17.55
18.35
19.05
19.46
19.35
18.63
17.37
15.71
13.79
11.67
9.41
7.06
4.75
2.60
0.65
-1.17
-3.09
-5.35
-8.13
-11.49
-15.41
-19.74
-24.18
-28.21
-31.15
-32.31
-31.24
-28.02
-23.24
-17.86
-12.83
-8.68
-5.49
-2.95
-0.71
1.45
3.52
5.32
6.71
7.67
8.29
8.68
8.93
9.02
8.92
8.59
8.07
7.45
6.89
6.51
6.35
6.34
6.25
5.81
4.82
3.23
1.32
-0.50
-1.80
-2.38
-2.35
-2.12
-2.20
-2.95
-4.42
-6.35
-8.36
-10.17
-11.71
-13.18
-14.95
-17.27
-20.14
-23.17
-25.66
-26.81
-26.02
-23.11
-18.37
-12.49
-6.27
-0.42
4.63
8.73
11.86
14.07
15.34
15.68
15.18
14.08
12.70
11.37
10.23
9.27
8.31
7.23
5.94
4.59
3.32
2.23
1.27
0.21
-1.20
-3.06
-5.23
-7.40
-9.19
-10.42
-11.08
-11.38
-11.67
-12.30
-13.54
-15.46
-18.00
-20.94
-24.02
-27.01
-29.86
-32.70
-35.81
-39.50
-43.93
-49.02
-54.37
-59.35
-63.19
-65.20
-64.94
-62.36
-57.82
-52.00
-45.71
-39.55
-33.83
-28.45
-23.11
-17.57
-11.78
-5.99
-0.55
4.31
8.65
12.79
17.15
22.03
27.46
33.17
38.79
44.01
48.70
52.87
56.63
60.11
63.49
66.94
70.58
74.14
76.85
77.50
74.84
68.10
57.42
43.80
28.75
13.72
-0.32
-12.77
-23.21
-31.22
-36.38
-38.65
-38.65
-37.60
-36.93
-37.62
-39.76
-42.52
-44.57
-44.71
-42.34
-37.64
-31.33
-24.31
-17.33
-10.82
-4.95
0.21
4.66
8.33
11.20
13.30
14.76
15.74
16.36
16.65
16.53
15.87
14.57
12.67
10.35
7.97
5.92
4.51
3.84
3.75
3.90
3.89
3.47
2.61
1.50
0.31
-0.83
-2.00
-3.35
-5.07
-7.14
-9.41
-11.64
-13.69
-15.54
-17.39
-19.49
-22.09
-25.31
-29.09
-33.16
-37.11
-40.39
-42.41
-42.70
-41.04
-37.50
-32.46
-26.41
-19.90
-13.40
-7.28
-1.83
2.70
6.18
8.60
10.16
11.20
12.11
13.16
14.48
15.97
17.40
18.55
19.24
19.48
19.33
18.91
18.31
17.53
16.47
15.10
13.39
11.43
9.30
7.08
4.77
2.40
0.04
-2.22
-4.23
-5.98
-7.64
-9.56
-12.16
-15.73
-20.25
-25.30
-30.11
-33.76
-35.46
-34.78
-31.76
-26.87
-20.80
-14.29
-7.90
-1.99
3.32
8.02
12.16
15.83
18.96
21.50
23.29
24.22
24.32
23.81
23.07
22.50
22.36
22.70
23.37
24.08
24.58
24.69
24.31
23.47
22.21
20.62
18.79
16.78
14.58
12.12
9.37
6.36
3.20
0.08
-2.86
-5.60
-8.30
-11.10
-14.20
-17.70
-21.62
-25.93
-30.52
-35.11
-39.22
-42.13
-43.05
-41.45
-37.24
-30.92
-23.35
-15.49
-8.03
-1.29
4.70
10.06
14.84
18.98
22.37
25.00
26.92
28.30
29.34
30.19
30.91
31.47
31.80
31.84
31.55
30.92
29.98
28.76
27.29
25.63
23.80
21.85
19.78
17.63
15.39
13.07
10.55
7.67
4.25
0.23
-4.24
-8.79
-13.01
-16.59
-19.57
-22.30
-25.33
-29.10
-33.71
-38.80
-43.60
-47.13
-48.50
-47.11
-42.87
-36.23
-28.07
-19.39
-11.08
-3.71
2.50
7.62
11.77
15.10
17.79
20.02
21.98
23.81
25.52
27.05
28.27
29.18
29.84
30.36
30.76
30.93
30.73
30.03
28.89
27.51
26.12
24.82
23.42
21.60
19.03
15.66
11.66
7.49
3.57
0.14
-2.85
-5.61
-8.44
-11.52
-14.88
-18.46
-22.15
-25.97
-29.95
-34.04
-37.97
-41.15
-42.86
-42.44
-39.58
-34.48
-27.72
-20.07
-12.26
-4.80
2.04
8.00
12.85
16.35
18.34
18.99
18.73
18.17
17.92
18.37
19.57
21.29
23.12
24.54
25.14
24.66
23.14
20.82
18.11
15.43
13.09
11.17
9.57
8.07
6.46
4.61
2.55
0.32
-2.05
-4.62
-7.49
-10.71
-14.25
-17.98
-21.79
-25.59
-29.38
-33.04
-36.28
-38.53
-39.08
-37.33
-33.04
-26.54
-18.61
-10.21
-2.22
4.85
10.80
15.69
19.63
22.70
24.89
26.24
26.84
26.91
26.80
26.80
27.10
27.70
28.42
29.01
29.28
29.14
28.64
27.87
26.81
25.41
23.52
21.06
18.12
14.96
11.87
9.04
6.48
3.98
1.28
-1.81
-5.27
-8.92
-12.47
-15.81
-19.05
-22.54
-26.69
-31.73
-37.42
-43.01
-47.42
-49.59
-48.78
-44.87
-38.32
-30.00
-20.90
-11.86
-3.52
3.75
9.77
14.49
17.95
20.32
21.83
22.74
23.28
23.69
24.12
24.68
25.45
26.43
27.54
28.59
29.36
29.62
29.22
28.17
26.56
24.61
22.55
20.58
18.77
17.08
15.31
13.20
10.51
7.15
3.23
-0.92
-4.92
-8.48
-11.55
-14.37
-17.37
-20.98
-25.48
-30.84
-36.66
-42.19
-46.48
-48.52
-47.59
-43.47
-36.54
-27.68
-18.06
-8.79
-0.67
5.95
11.09
14.98
17.95
20.25
22.07
23.50
24.51
25.05
25.07
24.57
23.71
22.73
21.90
21.41
21.24
21.18
20.98
20.44
19.50
18.29
16.96
15.59
14.14
12.45
10.37
7.88
5.11
2.31
-0.29
-2.55
-4.51
-6.30
-8.14
-10.28
-12.91
-16.28
-20.60
-25.94
-32.12
-38.56
-44.27
-48.06
-48.89
-46.23
-40.30
-32.01
-22.66
-13.53
-5.45
1.25
6.73
11.33
15.34
18.85
21.87
24.35
26.32
27.92
29.28
30.41
31.20
31.51
31.21
30.31
28.96
27.36
25.66
23.93
22.20
20.48
18.81
17.12
15.32
13.23
10.71
7.74
4.50
1.26
-1.73
-4.36
-6.70
-8.93
-11.28
-13.93
-17.05
-20.78
-25.25
-30.45
-36.08
-41.57
-45.99
-48.39
-48.05
-44.71
-38.78
-31.14
-22.91
-15.08
-8.22
-2.44
2.48
6.83
10.73
14.07
16.63
18.29
19.14
19.44
19.53
19.63
19.81
20.01
20.11
20.06
19.86
19.52
19.03
18.31
17.25
15.74
13.67
11.00
7.78
4.14
0.32
-3.41
-6.78
-9.65
-12.01
-13.97
-15.77
-17.70
-20.10
-23.27
-27.35
-32.21
-37.31
-41.74
-44.40
-44.34
-41.12
-34.96
-26.75
-17.76
-9.22
-1.99
3.71
8.14
11.82
15.17
18.28
21.04
23.22
24.74
25.69
26.24
26.48
26.38
25.82
24.80
23.49
22.22
21.32
20.92
20.88
20.81
20.32
19.02
16.71
13.35
9.11
4.31
-0.64
-5.27
-9.28
-12.55
-15.19
-17.48
-19.81
-22.63
-26.34
-31.15
-36.93
-43.11
-48.66
-52.44
-53.54
-51.55
-46.76
-39.89
-31.93
-23.83
-16.28
-9.55
-3.57
2.00
7.54
13.17
18.68
23.59
27.42
29.92
31.27
31.87
32.20
32.49
32.66
32.52
31.92
30.93
29.73
28.54
27.33
25.94
24.12
21.62
18.34
14.34
9.76
4.89
0.07
-4.39
-8.27
-11.49
-14.22
-16.74
-19.43
-22.67
-26.70
-31.62
-37.31
-43.40
-49.22
-53.93
-56.59
-56.44
-53.06
-46.57
-37.59
-27.22
-16.64
-6.83
1.64
8.73
14.71
19.97
24.67
28.75
31.94
34.00
34.96
35.05
34.73
34.40
34.33
34.53
34.88
35.13
35.11
34.67
33.76
32.36
30.54
28.35
25.83
23.01
19.90
16.51
12.94
9.29
5.69
2.23
-1.08
-4.31
-7.60
-11.16
-15.19
-19.87
-25.32
-31.56
-38.42
-45.37
-51.54
-55.83
-57.19
-55.00
-49.33
-40.99
-31.21
-21.29
-12.17
-4.21
2.69
8.77
14.19
18.84
22.41
24.61
25.43
25.18
24.46
23.87
23.80
24.26
24.97
25.52
25.63
25.23
24.54
23.80
23.17
22.51
21.48
19.65
16.70
12.68
7.96
3.15
-1.17
-4.70
-7.56
-10.16
-13.10
-16.90
-21.80
-27.74
-34.36
-41.02
-46.87
-50.94
-52.34
-50.50
-45.37
-37.51
-27.92
-17.70
-7.79
1.28
9.32
16.30
22.17
26.80
30.04
31.87
32.44
32.13
31.38
30.63
30.15
30.06
30.26
30.53
30.61
30.26
29.40
28.07
26.42
24.61
22.64
20.35
17.55
14.10
10.06
5.70
1.39
-2.60
-6.24
-9.68
-13.14
-16.82
-20.83
-25.26
-30.20
-35.76
-41.91
-48.26
-53.99
-57.96
-59.08
-56.77
-51.09
-42.80
-32.98
-22.71
-12.75
-3.51
4.82
12.14
18.33
23.34
27.15
29.85
31.59
32.52
32.79
32.63
32.30
32.10
32.28
32.90
33.77
34.52
34.75
34.20
32.87
30.95
28.66
26.20
23.58
20.73
17.59
14.15
10.47
6.67
2.86
-0.94
-4.69
-8.41
-12.08
-15.78
-19.68
-24.12
-29.45
-35.85
-43.04
-50.26
-56.28
-59.84
-59.98
-56.40
-49.50
-40.31
-30.11
-20.05
-10.91
-2.98
3.90
10.05
15.71
20.90
25.38
28.81
31.01
32.07
32.33
32.30
32.33
32.55
32.87
33.13
33.25
33.24
33.15
32.94
32.40
31.30
29.48
26.97
24.00
20.83
17.66
14.50
11.28
7.84
4.18
0.41
-3.28
-6.67
-9.66
-12.30
-14.85
-17.72
-21.39
-26.30
-32.61
-40.04
-47.81
-54.67
-59.23
-60.30
-57.34
-50.63
-41.21
-30.48
-19.79
-10.04
-1.60
5.59
11.70
16.85
20.95
23.97
25.96
27.15
27.89
28.43
28.88
29.23
29.42
29.46
29.45
29.50
29.59
29.56
29.19
28.25
26.70
24.60
22.12
19.43
16.58
13.54
10.22
6.58
2.67
-1.37
-5.29
-8.89
-12.04
-14.84
-17.51
-20.42
-24.01
-28.62
-34.35
-40.96
-47.75
-53.68
-57.53
-58.30
-55.48
-49.28
-40.58
-30.66
-20.74
-11.71
-3.97
2.46
7.74
12.06
15.51
18.14
20.05
21.37
22.29
23.02
23.74
24.53
25.40
26.23
26.86
27.11
26.89
26.21
25.19
23.96
22.61
21.13
19.36
17.11
14.25
10.77
6.83
2.65
-1.49
-5.34
-8.79
-11.84
-14.62
-17.34
-20.27
-23.68
-27.82
-32.84
-38.60
-44.53
-49.71
-52.95
-53.22
-50.03
-43.62
-34.96
-25.36
-16.06
-7.91
-1.21
4.17
8.57
12.23
15.31
17.72
19.39
20.26
20.47
20.35
20.30
20.62
21.44
22.57
23.65
24.32
24.36
23.75
22.67
21.35
19.90
18.29
16.34
13.83
10.67
6.97
2.98
-1.00
-4.77
-8.28
-11.62
-14.93
-18.34
-21.98
-25.95
-30.43
-35.57
-41.36
-47.49
-53.19
-57.43
-59.16
-57.70
-52.96
-45.53
-36.39
-26.70
-17.42
-9.10
-1.92
4.23
9.52
14.09
17.91
20.90
23.02
24.32
25.03
25.42
25.73
26.05
26.31
26.37
26.08
25.45
24.59
23.61
22.57
21.41
19.96
17.98
15.32
11.95
8.01
3.75
-0.49
-4.46
-8.00
-11.11
-14.06
-17.14
-20.65
-24.80
-29.60
-34.89
-40.34
-45.42
-49.44
-51.66
-51.40
-48.32
-42.51
-34.54
-25.26
-15.63
-6.43
1.82
8.88
14.72
19.35
22.85
25.31
26.89
27.80
28.27
28.56
28.84
29.19
29.55
29.77
29.69
29.18
28.22
26.93
25.43
23.89
22.31
20.57
18.49
15.82
12.45
8.49
4.28
0.23
-3.29
-6.14
-8.49
-10.72
-13.30
-16.70
-21.21
-26.92
-33.56
-40.46
-46.62
-50.85
-52.16
-50.03
-44.68
-36.88
-27.70
-18.15
-8.93
-0.42
7.20
13.76
19.06
22.93
25.37
26.61
27.07
27.21
27.35
27.59
27.81
27.81
27.41
26.63
25.59
24.54
23.62
22.85
22.08
21.04
19.49
17.29
14.47
11.26
7.90
4.68
1.73
-0.94
-3.48
-6.14
-9.22
-12.99
-17.63
-23.17
-29.41
-35.85
-41.72
-46.06
-47.95
-46.82
-42.61
-35.81
-27.34
-18.22
-9.34
-1.24
5.86
11.97
17.11
21.27
24.31
26.12
26.80
26.66
26.18
25.82
25.83
26.07
26.19
25.79
24.69
23.06
21.32
19.86
18.88
18.22
17.48
16.22
14.09
11.01
7.14
2.81
-1.55
-5.57
-9.05
-12.05
-14.84
-17.85
-21.49
-26.05
-31.56
-37.73
-43.95
-49.32
-52.86
-53.72
-51.44
-46.14
-38.49
-29.48
-20.10
-11.11
-2.89
4.45
10.89
16.34
20.62
23.57
25.22
25.82
25.86
25.90
26.25
26.99
27.85
28.43
28.39
27.59
26.16
24.40
22.61
20.94
19.35
17.67
15.66
13.13
10.06
6.51
2.68
-1.22
-5.04
-8.74
-12.37
-16.03
-19.81
-23.75
-27.90
-32.27
-36.83
-41.42
-45.58
-48.58
-49.62
-48.07
-43.76
-37.08
-28.85
-20.00
-11.24
-2.97
4.72
11.75
17.88
22.77
26.09
27.79
28.15
27.73
27.11
26.70
26.56
26.51
26.25
25.59
24.58
23.42
22.31
21.33
20.33
19.02
17.12
14.46
11.17
7.51
3.88
0.53
-2.47
-5.21
-7.88
-10.67
-13.63
-16.79
-20.20
-24.01
-28.46
-33.65
-39.34
-44.87
-49.19
-51.23
-50.29
-46.28
-39.79
-31.86
-23.58
-15.74
-8.67
-2.26
3.72
9.43
14.78
19.48
23.23
25.86
27.39
28.07
28.23
28.20
28.14
28.07
27.88
27.49
26.83
25.92
24.82
23.55
22.03
20.11
17.63
14.50
10.83
6.90
3.09
-0.32
-3.24
-5.83
-8.43
-11.38
-14.87
-18.95
-23.52
-28.48
-33.70
-39.00
-44.03
-48.10
-50.37
-50.05
-46.77
-40.77
-32.87
-24.13
-15.56
-7.71
-0.75
5.38
10.69
15.08
18.34
20.39
21.37
21.75
22.05
22.61
23.47
24.33
24.80
24.59
23.69
22.33
20.86
19.52
18.32
17.02
15.31
12.93
9.79
5.99
1.81
-2.40
-6.33
-9.79
-12.81
-15.59
-18.53
-21.99
-26.22
-31.17
-36.42
-41.28
-44.86
-46.36
-45.20
-41.26
-34.85
-26.69
-17.68
-8.75
-0.63
6.21
11.59
15.50
18.07
19.52
20.07
19.97
19.52
19.00
18.70
18.82
19.37
20.21
21.05
21.59
21.67
21.34
20.78
20.13
19.30
17.99
15.80
12.52
8.31
3.68
-0.74
-4.53
-7.70
-10.66
-14.02
-18.29
-23.73
-30.26
-37.54
-44.95
-51.73
-57.00
-59.93
-59.95
-56.98
-51.43
-44.12
-36.00
-27.80
-19.92
-12.42
-5.19
1.84
8.51
14.50
19.45
23.16
25.80
27.77
29.57
31.47
33.40
35.01
35.86
35.75
34.81
33.47
32.17
31.15
30.31
29.31
27.76
25.40
22.21
18.33
14.06
9.64
5.29
1.16
-2.75
-6.50
-10.32
-14.56
-19.57
-25.60
-32.56
-39.86
-46.59
-51.63
-54.08
-53.47
-49.91
-43.97
-36.42
-27.93
-18.99
-9.87
-0.71
8.30
16.88
24.66
31.20
36.17
39.40
41.01
41.37
41.06
40.69
40.68
41.18
42.07
43.09
43.95
44.47
44.56
44.17
43.23
41.62
39.25
36.09
32.17
27.68
22.83
17.89
13.12
8.71
4.71
0.96
-2.90
-7.34
-12.74
-19.23
-26.49
-33.75
-39.93
-43.93
-44.99
-42.91
-38.10
-31.40
-23.80
-16.09
-8.71
-1.79
4.73
10.89
16.57
21.53
25.52
28.34
30.01
30.67
30.65
30.34
30.05
29.92
29.92
29.88
29.56
28.86
27.80
26.55
25.22
23.79
22.06
19.84
17.01
13.70
10.20
6.84
3.80
1.08
-1.47
-4.04
-6.82
-9.95
-13.59
-17.82
-22.65
-27.79
-32.68
-36.51
-38.50
-38.09
-35.24
-30.29
-23.87
-16.64
-9.14
-1.76
5.20
11.46
16.70
20.67
23.28
24.65
25.11
25.08
24.97
25.05
25.43
26.05
26.73
27.20
27.20
26.61
25.48
23.97
22.35
20.78
19.33
17.84
16.06
13.75
10.72
6.99
2.78
-1.58
-5.71
-9.38
-12.54
-15.36
-18.23
-21.57
-25.74
-30.84
-36.65
-42.59
-47.79
-51.30
-52.31
-50.44
-45.88
-39.29
-31.65
-23.90
-16.69
-10.28
-4.61
0.55
5.38
9.94
14.13
17.76
20.65
22.69
23.91
24.48
24.63
24.60
24.59
24.67
24.77
24.75
24.42
23.70
22.58
21.12
19.39
17.35
14.90
11.95
8.55
4.88
1.24
-2.12
-5.16
-8.00
-10.86
-13.89
-17.12
-20.53
-24.12
-27.96
-32.16
-36.70
-41.21
-45.07
-47.47
-47.69
-45.40
-40.69
-34.09
-26.40
-18.49
-11.04
-4.45
1.18
5.98
10.14
13.72
16.65
18.76
20.00
20.54
20.77
21.09
21.78
22.76
23.72
24.30
24.28
23.75
22.94
22.11
21.32
20.42
19.13
17.25
14.77
11.82
8.68
5.57
2.61
-0.15
-2.73
-5.18
-7.50
-9.76
-12.08
-14.62
-17.60
-21.22
-25.65
-30.85
-36.50
-41.91
-46.15
-48.25
-47.59
-44.13
-38.44
-31.51
-24.37
-17.71
-11.81
-6.51
-1.55
3.25
7.77
11.71
14.74
16.69
17.63
17.88
17.80
17.70
17.71
17.79
17.84
17.75
17.48
17.05
16.52
15.87
15.08
14.01
12.47
10.32
7.54
4.28
0.87
-2.31
-5.03
-7.27
-9.27
-11.37
-13.81
-16.64
-19.79
-23.19
-26.80
-30.59
-34.36
-37.67
-39.83
-40.18
-38.35
-34.42
-28.93
-22.56
-15.97
-9.59
-3.68
1.59
6.01
9.34
11.45
12.44
12.59
12.33
12.07
12.13
12.65
13.67
15.08
16.63
18.04
18.93
19.10
18.58
17.64
16.62
15.74
14.92
13.84
12.09
9.46
6.04
2.21
-1.60
-5.08
-8.19
-11.13
-14.19
-17.62
-21.57
-26.04
-30.94
-36.12
-41.33
-46.26
-50.42
-53.24
-54.11
-52.60
-48.61
-42.50
-35.00
-27.01
-19.29
-12.30
-6.11
-0.58
4.35
8.62
12.04
14.44
15.89
16.66
17.13
17.52
17.91
18.20
18.36
18.43
18.56
18.85
19.19
19.36
19.11
18.34
17.11
15.64
14.02
12.25
10.21
7.76
4.90
1.74
-1.57
-4.86
-8.13
-11.43
-14.89
-18.68
-22.96
-27.88
-33.45
-39.42
-45.28
-50.27
-53.57
-54.61
-53.19
-49.49
-43.97
-37.17
-29.64
-21.82
-14.13
-6.92
-0.47
5.05
9.61
13.29
16.20
18.46
20.21
21.60
22.79
23.91
25.01
26.02
26.81
27.23
27.24
26.91
26.38
25.77
25.04
24.01
22.38
19.87
16.45
12.31
7.87
3.63
-0.04
-3.02
-5.43
-7.59
-9.95
-12.93
-17.00
-22.45
-29.25
-36.97
-44.70
-51.23
-55.41
-56.43
-54.18
-49.13
-42.20
-34.39
-26.51
-19.03
-12.05
-5.50
0.76
6.75
12.34
17.29
21.34
24.34
26.30
27.35
27.73
27.72
27.59
27.55
27.72
28.17
28.82
29.54
30.15
30.42
30.17
29.17
27.34
24.68
21.35
17.60
13.74
9.97
6.36
2.85
-0.63
-4.18
-7.83
-11.67
-15.87
-20.66
-26.15
-32.17
-38.20
-43.37
-46.71
-47.44
-45.24
-40.34
-33.38
-25.26
-16.82
-8.72
-1.30
5.27
10.99
15.87
19.87
22.96
25.15
26.54
27.34
27.77
28.01
28.08
27.93
27.50
26.84
26.16
25.73
25.72
26.04
26.32
26.05
24.76
22.26
18.70
14.52
10.28
6.47
3.34
0.87
-1.23
-3.45
-6.35
-10.38
-15.73
-22.16
-28.95
-35.09
-39.44
-41.07
-39.57
-35.10
-28.37
-20.34
-11.94
-3.80
3.79
10.74
16.99
22.33
26.47
29.18
30.42
30.51
30.00
29.46
29.32
29.69
30.36
30.98
31.21
30.93
30.26
29.45
28.70
27.97
26.95
25.19
22.36
18.37
13.57
8.56
3.96
0.18
-2.71
-5.03
-7.30
-10.12
-13.98
-19.06
-25.21
-31.82
-37.91
-42.32
-44.02
-42.44
-37.64
-30.32
-21.52
-12.35
-3.62
4.23
11.11
17.05
21.99
25.83
28.44
29.90
30.52
30.80
31.26
32.17
33.51
34.99
36.20
36.76
36.50
35.48
33.93
32.25
30.72
29.46
28.24
26.65
24.26
20.89
16.72
12.24
7.98
4.24
0.97
-2.16
-5.50
-9.33
-13.73
-18.65
-23.92
-29.18
-33.87
-37.20
-38.42
-37.06
-33.12
-27.14
-19.97
-12.45
-5.17
1.64
7.94
13.72
18.85
23.11
26.23
28.13
28.92
28.98
28.79
28.70
28.89
29.28
29.65
29.79
29.65
29.30
28.86
28.36
27.68
26.60
24.94
22.68
19.92
16.89
13.78
10.71
7.74
4.85
2.01
-0.85
-3.79
-6.89
-10.19
-13.72
-17.50
-21.65
-26.27
-31.33
-36.52
-41.14
-44.25
-44.95
-42.79
-38.01
-31.37
-23.90
-16.48
-9.62
-3.45
2.02
6.76
10.66
13.63
15.64
16.86
17.57
18.00
18.29
18.47
18.52
18.48
18.46
18.60
18.98
19.46
19.76
19.58
18.69
17.14
15.15
13.04
11.01
9.08
7.15
5.12
3.02
0.95
-0.94
-2.62
-4.26
-6.19
-8.71
-12.05
-16.19
-20.82
-25.42
-29.30
-31.71
-32.10
-30.22
-26.29
-20.90
-14.85
-8.83
-3.33
1.51
5.70
9.35
12.47
14.96
16.61
17.28
16.96
15.87
14.51
13.45
13.16
13.84
15.22
16.75
17.79
17.90
16.97
15.24
13.12
10.99
9.07
7.36
5.77
4.14
2.36
0.41
-1.68
-3.80
-5.83
-7.70
-9.44
-11.23
-13.37
-16.17
-19.68
-23.64
-27.48
-30.45
-31.88
-31.39
-29.00
-25.05
-20.10
-14.73
-9.41
-4.41
0.10
4.03
7.24
9.57
10.88
11.17
10.62
9.56
8.41
7.54
7.15
7.19
7.46
7.69
7.72
7.56
7.25
6.83
6.21
5.13
3.40
0.95
-1.97
-4.91
-7.37
-9.09
-10.20
-11.15
-12.57
-14.92
-18.29
-22.41
-26.65
-30.17
-32.12
-31.87
-29.15
-24.20
-17.74
-10.75
-4.20
1.26
5.38
8.29
10.27
11.57
12.29
12.46
12.15
11.49
10.72
10.02
9.48
9.05
8.57
7.90
6.94
5.70
4.23
2.65
1.07
-0.39
-1.74
-3.03
-4.43
-6.14
-8.25
-10.79
-13.69
-16.90
-20.34
-23.90
-27.33
-30.18
-31.81
-31.69
-29.57
-25.61
-20.38
-14.64
-9.08
-4.13
0.04
3.44
6.14
8.16
9.45
9.98
9.76
8.94
7.77
6.52
5.50
4.91
4.82
5.15
5.64
5.96
5.82
5.04
3.59
1.58
-0.79
-3.37
-6.03
-8.71
-11.41
-14.14
-16.95
-19.89
-22.93
-25.90
-28.40
-29.89
-29.81
-27.79
-23.84
-18.33
-11.91
-5.30
0.88
6.22
10.52
13.73
15.88
17.03
17.33
17.05
16.49
15.94
15.58
15.38
15.22
14.89
14.26
13.34
12.22
11.07
9.96
8.83
7.51
5.81
3.63
1.00
-1.89
-4.73
-7.29
-9.43
-11.24
-13.00
-15.14
-18.05
-21.98
-26.83
-32.09
-36.89
-40.14
-40.91
-38.73
-33.83
-27.02
-19.48
-12.26
-6.02
-0.88
3.42
7.25
10.79
13.99
16.63
18.53
19.63
20.06
20.02
19.78
19.50
19.28
19.12
18.93
18.62
18.14
17.53
16.90
16.30
15.73
15.03
14.01
12.55
10.64
8.41
5.99
3.45
0.74
-2.19
-5.28
-8.38
-11.27
-13.92
-16.52
-19.48
-23.16
-27.63
-32.45
-36.75
-39.53
-40.06
-38.10
-33.98
-28.32
-21.83
-15.00
-8.17
-1.64
4.31
9.38
13.40
16.45
18.81
20.82
22.63
24.16
25.17
25.52
25.31
24.89
24.66
24.84
25.32
25.72
25.64
24.89
23.56
21.92
20.33
18.98
17.88
16.86
15.73
14.35
12.68
10.79
8.75
6.61
4.33
1.88
-0.78
-3.62
-6.58
-9.60
-12.71
-16.07
-19.85
-24.18
-28.90
-33.54
-37.34
-39.50
-39.48
-37.17
-32.97
-27.60
-21.85
-16.25
-11.01
-6.04
-1.23
3.46
7.85
11.67
14.69
16.83
18.18
18.95
19.32
19.43
19.42
19.38
19.46
19.75
20.21
20.72
21.06
21.03
20.50
19.43
17.87
15.91
13.73
11.51
9.47
7.79
6.51
5.54
4.62
3.51
2.06
0.24
-1.80
-3.92
-6.05
-8.30
-10.90
-14.10
-18.01
-22.41
-26.76
-30.32
-32.46
-32.86
-31.60
-29.06
-25.66
-21.69
-17.29
-12.51
-7.49
-2.48
2.21
6.31
9.74
12.52
14.72
16.35
17.33
17.66
17.37
16.71
15.98
15.45
15.25
15.36
15.66
15.99
16.21
16.25
16.01
15.43
14.43
13.07
11.42
9.65
7.92
6.33
4.82
3.29
1.61
-0.26
-2.23
-4.17
-6.00
-7.74
-9.56
-11.67
-14.22
-17.23
-20.61
-24.19
-27.71
-30.86
-33.22
-34.33
-33.75
-31.28
-27.11
-21.79
-16.18
-10.98
-6.65
-3.19
-0.29
2.35
4.88
7.17
8.97
10.08
10.51
10.44
10.19
9.99
9.97
10.16
10.56
11.13
11.87
12.72
13.48
13.94
13.89
13.24
12.11
10.76
9.46
8.34
7.32
6.16
4.62
2.61
0.25
-2.17
-4.38
-6.26
-7.89
-9.49
-11.35
-13.64
-16.36
-19.42
-22.61
-25.74
-28.52
-30.69
-31.97
-32.08
-30.90
-28.45
-24.89
-20.48
-15.49
-10.29
-5.18
-0.54
3.32
6.23
8.18
9.44
10.30
10.99
11.53
11.77
11.56
10.93
10.19
9.79
10.06
11.01
12.23
13.11
13.17
12.28
10.73
9.03
7.59
6.57
5.80
4.95
3.76
2.17
0.28
-1.72
-3.68
-5.58
-7.49
-9.49
-11.61
-13.84
-16.20
-18.67
-21.31
-24.14
-27.02
-29.61
-31.41
-31.89
-30.75
-28.05
-24.23
-19.90
-15.66
-11.81
-8.42
-5.39
-2.62
-0.09
2.12
3.89
5.21
6.16
6.86
7.46
8.10
8.86
9.79
10.88
12.02
12.99
13.57
13.59
13.03
12.06
10.95
9.94
9.11
8.36
7.44
6.12
4.25
1.90
-0.74
-3.42
-6.00
-8.43
-10.75
-13.01
-15.22
-17.38
-19.59
-22.01
-24.86
-28.24
-31.96
-35.52
-38.21
-39.34
-38.49
-35.68
-31.25
-25.77
-19.87
-14.06
-8.78
-4.34
-0.87
1.68
3.53
4.95
6.16
7.23
8.08
8.67
9.07
9.46
10.07
11.02
12.20
13.37
14.26
14.71
14.75
14.48
14.06
13.51
12.77
11.73
10.28
8.34
5.90
3.05
-0.12
-3.39
-6.55
-9.42
-11.92
-14.15
-16.28
-18.57
-21.21
-24.38
-28.12
-32.37
-36.86
-41.06
-44.26
-45.75
-45.05
-42.12
-37.42
-31.71
-25.72
-19.97
-14.64
-9.73
-5.23
-1.25
2.02
4.46
6.18
7.43
8.52
9.63
10.78
11.86
12.71
13.30
13.70
14.02
14.36
14.69
14.91
14.85
14.30
13.08
11.08
8.30
4.92
1.29
-2.22
-5.30
-7.91
-10.23
-12.63
-15.45
-18.92
-23.13
-27.92
-32.94
-37.58
-41.05
-42.57
-41.53
-37.78
-31.66
-23.95
-15.59
-7.44
-0.09
6.15
11.16
14.89
17.38
18.70
19.14
19.05
18.87
18.93
19.40
20.23
21.22
22.10
22.68
22.86
22.70
22.28
21.65
20.75
19.45
17.61
15.19
12.26
8.98
5.57
2.15
-1.23
-4.67
-8.33
-12.46
-17.33
-23.09
-29.67
-36.64
-43.19
-48.27
-50.84
-50.23
-46.31
-39.58
-30.95
-21.49
-12.14
-3.58
3.78
9.83
14.59
18.25
21.06
23.27
25.08
26.69
28.20
29.64
30.94
31.96
32.62
32.82
32.61
32.06
31.33
30.50
29.55
28.40
26.82
24.59
21.57
17.79
13.58
9.37
5.57
2.34
-0.50
-3.46
-7.16
-12.05
-18.18
-25.20
-32.38
-38.72
-43.21
-45.02
-43.78
-39.68
-33.50
-26.37
-19.37
-13.14
-7.70
-2.58
2.83
8.86
15.38
21.83
27.49
31.84
34.69
36.29
37.08
37.54
37.96
38.39
38.71
38.69
38.24
37.41
36.41
35.42
34.47
33.40
31.82
29.38
25.88
21.44
16.44
11.43
6.87
2.96
-0.49
-3.99
-8.15
-13.43
-19.95
-27.42
-35.10
-42.06
-47.30
-49.99
-49.62
-46.08
-39.72
-31.24
-21.54
-11.53
-1.94
6.82
14.53
21.14
26.64
30.97
34.17
36.35
37.78
38.80
39.70
40.63
41.58
42.45
43.06
43.30
43.14
42.61
41.81
40.85
39.77
38.51
36.91
34.70
31.70
27.88
23.45
18.76
14.21
10.02
6.20
2.51
-1.36
-5.74
-10.87
-16.83
-23.50
-30.48
-37.01
-42.08
-44.68
-44.09
-40.22
-33.62
-25.39
-16.74
-8.63
-1.57
4.38
9.38
13.67
17.44
20.83
23.96
27.02
30.15
33.33
36.42
39.15
41.27
42.59
43.09
42.92
42.30
41.48
40.69
40.09
39.70
39.34
38.64
37.11
34.37
30.31
25.20
19.52
13.79
8.43
3.57
-0.76
-4.65
-8.27
-11.93
-16.04
-21.08
-27.23
-34.13
-40.81
-45.90
-48.08
-46.60
-41.48
-33.49
-23.84
-13.80
-4.40
3.72
10.33
15.49
19.44
22.44
24.63
26.10
26.88
27.12
27.06
26.98
27.08
27.38
27.74
28.00
28.06
27.96
27.78
27.56
27.20
26.45
25.03
22.74
19.55
15.56
11.04
6.33
1.76
-2.39
-6.02
-9.24
-12.32
-15.68
-19.73
-24.68
-30.37
-36.17
-41.03
-43.80
-43.62
-40.19
-34.01
-26.17
-17.95
-10.37
-3.90
1.53
6.34
10.81
14.92
18.33
20.66
21.76
21.92
21.75
21.87
22.72
24.26
26.03
27.45
28.01
27.56
26.28
24.56
22.72
20.94
19.17
17.25
15.05
12.57
9.89
7.09
4.19
1.14
-2.16
-5.68
-9.26
-12.65
-15.71
-18.53
-21.50
-25.11
-29.67
-35.10
-40.78
-45.73
-48.87
-49.37
-46.91
-41.77
-34.66
-26.52
-18.27
-10.56
-3.76
2.05
6.93
10.96
14.22
16.74
18.64
20.11
21.42
22.69
23.87
24.75
25.09
24.82
24.10
23.29
22.68
22.34
22.04
21.36
20.02
18.02
15.68
13.39
11.40
9.59
7.62
5.14
2.04
-1.45
-4.94
-8.11
-10.87
-13.35
-15.85
-18.62
-21.80
-25.53
-29.88
-34.81
-39.95
-44.56
-47.59
-48.14
-45.78
-40.82
-34.17
-26.89
-19.75
-13.10
-6.86
-0.93
4.58
9.37
13.08
15.56
16.96
17.69
18.17
18.66
19.21
19.72
20.10
20.31
20.45
20.61
20.85
21.06
21.10
20.75
19.94
18.68
17.11
15.39
13.66
11.96
10.23
8.37
6.26
3.86
1.23
-1.50
-4.15
-6.57
-8.78
-10.95
-13.39
-16.44
-20.31
-25.03
-30.39
-35.98
-41.24
-45.46
-47.92
-48.06
-45.64
-40.84
-34.28
-26.82
-19.32
-12.43
-6.44
-1.34
3.04
6.94
10.53
13.83
16.74
19.07
20.64
21.45
21.61
21.40
21.10
20.95
21.02
21.27
21.57
21.83
21.91
21.67
20.98
19.72
17.85
15.48
12.76
9.94
7.19
4.65
2.34
0.17
-2.00
-4.35
-6.96
-9.82
-12.78
-15.67
-18.40
-21.08
-23.96
-27.33
-31.34
-35.81
-40.23
-43.86
-45.94
-45.92
-43.60
-39.18
-33.16
-26.20
-18.99
-12.06
-5.73
-0.17
4.58
8.48
11.50
13.63
14.92
15.50
15.57
15.34
15.01
14.81
14.92
15.42
16.23
17.11
17.71
17.70
16.93
15.46
13.50
11.29
8.97
6.65
4.41
2.35
0.50
-1.23
-3.08
-5.32
-8.08
-11.30
-14.68
-17.90
-20.84
-23.53
-26.27
-29.38
-32.98
-36.91
-40.63
-43.34
-44.21
-42.61
-38.37
-31.87
-23.94
-15.56
-7.61
-0.66
5.05
9.50
12.77
14.97
16.30
17.03
17.49
17.94
18.49
19.17
19.92
20.67
21.32
21.79
21.91
21.53
20.61
19.25
17.68
16.13
14.63
13.12
11.39
9.23
6.57
3.51
0.26
-2.91
-5.81
-8.34
-10.52
-12.49
-14.45
-16.67
-19.42
-22.99
-27.43
-32.62
-38.12
-43.20
-47.02
-48.82
-48.16
-45.07
-40.00
-33.58
-26.55
-19.47
-12.80
-6.85
-1.79
2.35
5.65
8.29
10.49
12.40
14.07
15.60
17.05
18.54
20.15
21.83
23.44
24.74
25.54
25.77
25.48
24.75
23.66
22.17
20.23
17.90
15.35
12.82
10.49
8.40
6.36
4.08
1.35
-1.92
-5.59
-9.45
-13.30
-17.06
-20.76
-24.56
-28.65
-33.16
-38.06
-42.96
-47.19
-49.84
-50.11
-47.64
-42.67
-35.95
-28.43
-20.92
-13.81
-7.19
-1.02
4.64
9.56
13.48
16.26
17.98
18.94
19.51
20.01
20.62
21.41
22.33
23.30
24.22
24.97
25.41
25.45
24.94
23.83
22.11
19.97
17.69
15.62
13.97
12.74
11.70
10.49
8.75
6.32
3.18
-0.51
-4.45
-8.32
-11.87
-14.99
-17.84
-20.77
-24.28
-28.66
-33.86
-39.34
-44.25
-47.59
-48.59
-46.81
-42.29
-35.48
-27.12
-18.13
-9.36
-1.48
5.17
10.52
14.60
17.44
19.04
19.54
19.23
18.68
18.52
19.16
20.61
22.49
24.24
25.42
25.80
25.47
24.66
23.62
22.51
21.40
20.23
18.89
17.31
15.46
13.36
11.07
8.54
5.64
2.27
-1.53
-5.53
-9.40
-12.97
-16.40
-20.14
-24.69
-30.14
-35.99
-41.17
-44.45
-44.93
-42.37
-37.22
-30.35
-22.66
-14.87
-7.38
-0.41
5.86
11.24
15.44
18.25
19.63
19.81
19.32
18.78
18.75
19.51
20.99
22.87
24.73
26.19
26.97
26.93
26.08
24.52
22.51
20.33
18.24
16.30
14.36
12.13
9.40
6.20
2.75
-0.60
-3.57
-6.13
-8.49
-10.95
-13.81
-17.27
-21.36
-26.07
-31.20
-36.35
-40.95
-44.29
-45.68
-44.62
-41.02
-35.17
-27.74
-19.58
-11.48
-4.02
2.51
8.06
12.61
16.16
18.71
20.28
21.02
21.25
21.27
21.39
21.75
22.36
23.14
23.94
24.59
24.89
24.72
24.05
23.02
21.87
20.78
19.74
18.54
16.81
14.31
10.99
7.05
2.82
-1.39
-5.38
-9.09
-12.50
-15.69
-18.82
-22.20
-26.17
-30.88
-36.11
-41.16
-44.97
-46.55
-45.25
-41.11
-34.76
-27.13
-19.16
-11.46
-4.37
1.99
7.54
12.12
15.57
17.84
19.09
19.64
19.89
20.13
20.43
20.74
20.90
20.84
20.56
20.06
19.30
18.27
17.00
15.62
14.38
13.40
12.61
11.61
9.92
7.11
3.20
-1.42
-6.09
-10.18
-13.46
-16.11
-18.65
-21.73
-25.82
-31.02
-36.95
-42.81
-47.58
-50.25
-50.09
-46.84
-40.76
-32.48
-22.76
-12.38
-1.97
7.98
17.02
24.85
31.24
36.14
39.73
42.32
44.30
45.99
47.67
49.51
51.67
54.24
57.24
60.47
63.55
65.93
67.13
66.93
65.37
62.73
59.28
55.09
50.05
43.92
36.64
28.44
19.83
11.34
3.28
-4.39
-12.04
-20.13
-29.00
-38.69
-48.82
-58.67
-67.21
-73.32
-76.09
-75.03
-70.25
-62.40
-52.48
-41.57
-30.56
-20.16
-10.88
-3.05
3.14
7.66
10.70
12.56
13.62
14.25
14.81
15.56
16.64
18.05
19.61
21.00
21.92
22.23
21.97
21.25
20.16
18.65
16.61
13.97
10.83
7.53
4.42
1.78
-0.35
-2.24
-4.30
-7.00
-10.69
-15.35
-20.58
-25.65
-29.59
-31.48
-30.71
-27.13
-21.11
-13.40
-4.99
3.20
10.41
16.24
20.59
23.56
25.39
26.27
26.34
25.73
24.66
23.40
22.27
21.44
20.90
20.53
20.12
19.60
18.99
18.37
17.76
17.10
16.21
14.93
13.18
10.89
8.07
4.70
0.81
-3.57
-8.36
-13.46
-18.77
-24.16
-29.38
-34.03
-37.60
-39.60
-39.79
-38.18
-35.05
-30.82
-25.85
-20.39
-14.64
-8.73
-2.87
2.69
7.62
11.59
14.35
15.87
16.39
16.44
16.67
17.56
19.21
21.36
23.56
25.43
26.87
27.91
28.60
28.81
28.27
26.76
24.27
21.09
17.61
14.15
10.74
7.15
3.01
-2.01
-7.96
-14.57
-21.25
-27.21
-31.62
-33.83
-33.49
-30.69
-25.90
-19.83
-13.26
-6.85
-1.04
4.05
8.58
12.78
16.86
20.80
24.36
27.22
29.11
30.03
30.16
29.82
29.22
28.50
27.66
26.69
25.61
24.50
23.38
22.24
20.96
19.30
17.03
13.92
9.90
5.09
-0.14
-5.27
-9.82
-13.46
-16.25
-18.45
-20.48
-22.70
-25.33
-28.49
-32.24
-36.60
-41.48
-46.53
-51.09
-54.25
-55.13
-53.21
-48.50
-41.56
-33.29
-24.64
-16.30
-8.69
-1.96
3.85
8.75
12.65
15.54
17.43
18.46
18.82
18.72
18.37
17.87
17.26
16.49
15.43
13.85
11.57
8.47
4.60
0.20
-4.43
-9.05
-13.60
-18.17
-23.00
-28.29
-34.13
-40.49
-47.14
-53.62
-59.22
-63.04
-64.13
-61.85
-56.04
-47.25
-36.52
-25.08
-13.99
-3.91
4.96
12.64
19.16
24.43
28.20
30.23
30.46
29.13
26.86
24.49
22.97
22.99
24.76
27.89
31.45
34.31
35.44
34.25
30.68
25.10
18.07
10.10
1.63
-7.07
-15.69
-23.98
-31.65
-38.57
-44.65
-49.85
-53.92
-56.34
-56.39
-53.34
-46.87
-37.25
-25.47
-12.94
-1.12
8.97
17.01
23.24
28.24
32.51
36.19
39.06
40.79
41.19
40.40
38.94
37.50
36.67
36.63
37.16
37.73
37.74
36.83
34.88
32.00
28.32
23.92
18.85
13.30
7.62
2.34
-2.06
-5.44
-8.09
-10.61
-13.53
-16.94
-20.42
-23.15
-24.24
-23.16
-19.87
-14.90
-9.04
-3.11
2.34
7.22
11.94
17.16
23.47
30.80
38.01
43.11
44.00
39.47
29.95
17.44
4.77
-5.67
-12.76
-16.76
-18.75
-19.68
-19.86
-19.01
-16.78
-13.28
-9.18
-5.42
-2.70
-1.25
-0.91
-1.43
-2.76
-4.99
-8.28
-12.68
-17.97
-23.49
-28.20
-31.00
-31.00
-28.02
-22.78
-16.76
-11.55
-8.08
-6.31
-5.40
-4.40
-3.09
-2.12
-2.51
-4.74
-8.07
-10.68
-10.68
-7.03
-0.11
8.82
18.42
28.02
37.63
47.30
56.58
64.34
69.35
70.87
69.05
64.74
58.82
51.81
43.68
34.26
23.72
12.69
2.14
-6.96
-13.94
-18.48
-20.58
-20.47
-18.58
-15.51
-11.94
-8.46
-5.42
-2.91
-0.83
1.01
2.75
4.50
6.32
8.18
10.01
11.61
12.72
13.08
12.57
11.22
9.22
6.91
4.59
2.52
0.79
-0.62
-1.85
-3.09
-4.50
-6.21
-8.22
-10.42
-12.67
-14.86
-16.94
-18.97
-21.04
-23.24
-25.51
-27.62
-29.26
-30.08
-29.83
-28.51
-26.28
-23.43
-20.25
-16.94
-13.60
-10.29
-7.08
-4.05
-1.33
0.98
2.86
4.35
5.50
6.32
6.85
7.09
7.06
6.78
6.24
5.39
4.16
2.50
0.49
-1.66
-3.70
-5.37
-6.49
-7.08
-7.28
-7.37
-7.58
-8.15
-9.17
-10.63
-12.43
-14.41
-16.38
-18.09
-19.21
-19.46
-18.66
-16.86
-14.39
-11.70
-9.24
-7.28
-5.80
-4.64
-3.64
-2.74
-1.98
-1.38
-0.87
-0.31
0.42
1.32
2.17
2.76
3.00
2.98
2.94
3.10
3.50
3.93
4.05
3.54
2.27
0.37
-1.84
-4.03
-5.97
-7.53
-8.78
-9.86
-10.95
-12.17
-13.57
-15.17
-16.89
-18.56
-19.98
-20.89
-21.10
-20.50
-19.14
-17.17
-14.72
-11.96
-9.07
-6.28
-3.80
-1.84
-0.51
0.26
0.62
0.72
0.65
0.46
0.26
0.18
0.38
0.89
1.49
1.83
1.64
0.88
-0.20
-1.20
-1.85
-2.16
-2.40
-2.94
-3.92
-5.24
-6.57
-7.56
-8.07
-8.20
-8.29
-8.64
-9.40
-10.55
-11.78
-12.69
-12.94
-12.42
-11.22
-9.71
-8.25
-7.07
-6.22
-5.59
-5.00
-4.34
-3.52
-2.60
-1.62
-0.69
0.07
0.56
0.72
0.60
0.32
-0.03
-0.29
-0.43
-0.49
-0.44
-0.33
-0.25
-0.34
-0.82
-1.83
-3.30
-4.98
-6.57
-7.84
-8.77
-9.44
-9.96
-10.26
-10.28
-10.02
-9.74
-9.83
-10.64
-12.17
-14.00
-15.46
-15.95
-15.20
-13.39
-10.98
-8.45
-6.10
-4.11
-2.51
-1.31
-0.54
-0.16
0.02
0.24
0.70
1.43
2.26
2.94
3.22
3.06
2.59
2.09
1.81
1.83
2.08
2.30
2.26
1.80
0.91
-0.33
-1.80
-3.37
-4.94
-6.35
-7.49
-8.28
-8.79
-9.25
-9.99
-11.28
-13.16
-15.38
-17.41
-18.70
-18.81
-17.68
-15.56
-12.93
-10.27
-7.87
-5.83
-4.05
-2.36
-0.62
1.23
3.09
4.84
6.30
7.38
8.05
8.33
8.37
8.31
8.24
8.15
7.99
7.68
7.24
6.76
6.38
6.15
5.95
5.55
4.70
3.30
1.46
-0.52
-2.37
-3.88
-5.06
-6.06
-7.04
-8.13
-9.35
-10.72
-12.27
-14.04
-15.97
-17.88
-19.44
-20.28
-20.13
-18.90
-16.75
-13.98
-10.93
-7.88
-4.98
-2.21
0.42
2.88
5.04
6.77
7.97
8.67
9.05
9.37
9.83
10.49
11.18
11.65
11.64
11.10
10.15
9.10
8.22
7.67
7.37
7.11
6.56
5.54
4.01
2.20
0.44
-1.00
-2.05
-2.90
-3.87
-5.26
-7.20
-9.59
-12.24
-14.89
-17.32
-19.35
-20.81
-21.56
-21.43
-20.33
-18.25
-15.36
-11.94
-8.38
-5.03
-2.14
0.26
2.28
4.12
5.92
7.70
9.33
10.62
11.47
11.94
12.17
12.35
12.60
12.94
13.28
13.52
13.55
13.26
12.68
11.82
10.81
9.74
8.65
7.47
6.12
4.53
2.76
0.97
-0.67
-2.11
-3.46
-5.02
-7.06
-9.63
-12.50
-15.18
-17.16
-18.10
-17.92
-16.81
-15.04
-12.77
-10.07
-6.93
-3.49
0.03
3.28
5.97
7.97
9.36
10.41
11.35
12.33
13.34
14.24
14.90
15.15
14.93
14.24
13.23
12.06
10.95
10.07
9.41
8.91
8.43
7.90
7.22
6.39
5.38
4.17
2.66
0.78
-1.43
-3.87
-6.38
-8.86
-11.29
-13.63
-15.77
-17.41
-18.10
-17.46
-15.40
-12.17
-8.37
-4.61
-1.29
1.52
3.97
6.22
8.28
10.00
11.23
11.97
12.41
12.79
13.26
13.81
14.35
14.76
15.00
15.12
15.10
14.88
14.29
13.29
11.92
10.33
8.75
7.32
6.12
5.11
4.28
3.52
2.69
1.58
-0.09
-2.54
-5.79
-9.61
-13.49
-16.73
-18.69
-18.91
-17.34
-14.36
-10.62
-6.84
-3.57
-0.96
1.20
3.26
5.51
7.96
10.38
12.47
14.03
15.09
15.86
16.60
17.44
18.28
18.94
19.23
19.16
18.95
18.85
19.01
19.30
19.41
18.95
17.75
15.90
13.71
11.57
9.71
8.20
6.93
5.73
4.50
3.20
1.77
0.07
-2.08
-4.72
-7.74
-10.76
-13.25
-14.69
-14.72
-13.25
-10.48
-6.83
-2.88
0.79
3.76
5.83
7.08
7.82
8.42
9.19
10.21
11.39
12.56
13.54
14.31
14.93
15.47
15.98
16.44
16.81
17.03
17.10
17.09
17.07
17.09
17.08
16.91
16.35
15.17
13.27
10.82
8.13
5.65
3.78
2.72
2.42
2.57
2.72
2.47
1.54
-0.19
-2.60
-5.50
-8.50
-11.19
-13.13
-13.95
-13.45
-11.72
-9.19
-6.39
-3.82
-1.76
-0.20
1.07
2.26
3.43
4.48
5.19
5.48
5.36
5.03
4.71
4.56
4.65
4.95
5.42
5.99
6.60
7.12
7.45
7.46
7.09
6.44
5.66
4.87
4.13
3.37
2.54
1.65
0.81
0.15
-0.27
-0.59
-1.01
-1.74
-2.86
-4.33
-6.01
-7.72
-9.33
-10.70
-11.74
-12.27
-12.11
-11.22
-9.71
-7.93
-6.27
-5.05
-4.35
-4.00
-3.71
-3.20
-2.41
-1.40
-0.44
0.28
0.71
0.96
1.17
1.47
1.86
2.24
2.53
2.76
3.04
3.40
3.86
4.22
4.27
3.89
3.17
2.29
1.49
0.87
0.34
-0.23
-0.94
-1.72
-2.34
-2.59
-2.45
-2.12
-1.97
-2.38
-3.57
-5.48
-7.88
-10.41
-12.66
-14.34
-15.26
-15.41
-14.91
-13.95
-12.67
-11.15
-9.41
-7.45
-5.40
-3.50
-1.99
-1.01
-0.51
-0.29
-0.12
0.11
0.38
0.61
0.68
0.61
0.54
0.56
0.73
1.06
1.48
1.92
2.28
2.48
2.43
2.03
1.22
0.06
-1.32
-2.70
-3.87
-4.73
-5.37
-6.06
-7.05
-8.48
-10.23
-11.98
-13.36
-14.05
-13.89
-12.89
-11.20
-9.02
-6.70
-4.57
-2.99
-2.14
-1.94
-1.97
-1.76
-0.97
0.42
2.11
3.71
4.95
5.70
5.97
5.77
5.14
4.12
2.91
1.82
1.19
1.17
1.70
2.44
2.91
2.70
1.62
-0.25
-2.60
-4.97
-6.94
-8.22
-8.83
-9.01
-9.11
-9.48
-10.26
-11.51
-13.21
-15.24
-17.38
-19.29
-20.50
-20.57
-19.34
-17.00
-14.02
-10.96
-8.21
-5.98
-4.32
-3.19
-2.55
-2.32
-2.30
-2.23
-1.88
-1.15
-0.16
0.86
1.70
2.24
2.48
2.50
2.35
2.12
1.87
1.72
1.80
2.12
2.56
2.84
2.70
1.99
0.76
-0.79
-2.38
-3.81
-5.03
-6.16
-7.44
-9.09
-11.24
-13.83
-16.64
-19.32
-21.58
-23.11
-23.74
-23.33
-21.82
-19.31
-16.12
-12.70
-9.53
-6.93
-4.93
-3.37
-2.01
-0.72
0.54
1.65
2.58
3.34
4.05
4.77
5.45
6.04
6.46
6.74
6.93
7.07
7.14
7.09
6.88
6.54
6.19
5.88
5.63
5.35
4.91
4.20
3.20
1.98
0.64
-0.71
-2.04
-3.40
-4.96
-6.90
-9.37
-12.32
-15.48
-18.43
-20.70
-21.90
-21.84
-20.56
-18.31
-15.39
-12.15
-8.77
-5.30
-1.72
1.95
5.59
8.96
11.76
13.88
15.39
16.60
17.83
19.33
21.09
22.95
24.64
25.96
26.76
27.00
26.68
25.87
24.71
23.39
22.13
21.03
20.09
19.16
18.06
16.64
14.78
12.44
9.61
6.36
2.84
-0.76
-4.24
-7.48
-10.46
-13.21
-15.74
-17.88
-19.44
-20.16
-19.88
-18.55
-16.22
-13.01
-9.08
-4.60
0.21
5.11
9.77
13.84
17.02
19.12
20.13
20.27
19.91
19.51
19.37
19.58
20.02
20.44
20.66
20.58
20.23
19.76
19.26
18.75
18.15
17.31
16.07
14.43
12.45
10.44
8.64
7.20
6.05
4.87
3.31
1.18
-1.54
-4.64
-7.83
-10.87
-13.52
-15.56
-16.68
-16.59
-15.16
-12.62
-9.41
-6.12
-3.16
-0.59
1.86
4.47
7.32
10.22
12.78
14.70
15.88
16.41
16.52
16.43
16.23
15.99
15.76
15.57
15.47
15.47
15.57
15.75
15.88
15.72
14.99
13.45
11.08
8.23
5.44
3.26
1.95
1.34
0.93
0.16
-1.40
-3.80
-6.80
-9.95
-12.75
-14.79
-15.75
-15.52
-14.15
-11.83
-8.90
-5.72
-2.71
-0.17
1.77
3.18
4.25
5.30
6.52
7.98
9.65
11.38
13.13
14.75
16.07
16.87
16.90
16.13
14.76
13.23
12.05
11.58
11.94
12.87
13.96
14.71
14.63
13.45
11.21
8.24
5.11
2.46
0.61
-0.43
-1.04
-1.74
-2.94
-4.79
-7.29
-10.22
-13.27
-15.99
-17.89
-18.46
-17.46
-15.07
-11.76
-8.20
-4.96
-2.28
-0.17
1.54
2.96
4.15
5.16
6.03
6.87
7.74
8.61
9.39
9.99
10.39
10.65
10.78
10.78
10.56
10.05
9.30
8.42
7.63
7.06
6.78
6.69
6.60
6.23
5.37
3.96
2.13
0.21
-1.43
-2.60
-3.39
-4.09
-5.15
-6.87
-9.27
-12.14
-15.07
-17.56
-19.23
-19.78
-19.07
-17.20
-14.42
-11.19
-7.98
-5.19
-2.96
-1.25
0.06
1.17
2.17
3.10
3.94
4.66
5.23
5.63
5.90
6.07
6.21
6.31
6.30
6.12
5.75
5.26
4.77
4.36
4.00
3.54
2.74
1.51
-0.06
-1.74
-3.24
-4.41
-5.21
-5.78
-6.27
-6.83
-7.58
-8.65
-10.20
-12.27
-14.75
-17.32
-19.47
-20.68
-20.59
-19.08
-16.30
-12.65
-8.70
-5.00
-1.97
0.13
1.36
1.95
2.21
2.42
2.73
3.10
3.42
3.54
3.44
3.22
3.02
2.98
3.16
3.50
3.89
4.24
4.46
4.50
4.28
3.74
2.85
1.71
0.54
-0.44
-1.08
-1.47
-1.85
-2.47
-3.58
-5.09
-6.84
-8.64
-10.43
-12.28
-14.29
-16.36
-18.15
-19.22
-19.15
-17.80
-15.35
-12.22
-8.87
-5.69
-2.95
-0.78
0.79
1.84
2.49
2.92
3.30
3.65
3.91
4.00
3.86
3.60
3.42
3.42
3.62
3.90
4.07
4.08
4.00
3.95
3.97
3.98
3.73
3.00
1.77
0.16
-1.55
-3.07
-4.25
-5.06
-5.65
-6.27
-7.14
-8.43
-10.19
-12.28
-14.39
-16.05
-16.84
-16.46
-14.87
-12.31
-9.20
-6.01
-3.13
-0.75
1.18
2.83
4.32
5.70
6.81
7.42
7.31
6.42
4.92
3.17
1.59
0.53
0.18
0.46
1.17
2.03
2.73
3.06
2.97
2.54
1.94
1.30
0.72
0.16
-0.51
-1.42
-2.61
-4.10
-5.83
-7.70
-9.57
-11.26
-12.59
-13.37
-13.46
-12.81
-11.57
-9.92
-8.09
-6.22
-4.39
-2.53
-0.59
1.41
3.41
5.18
6.52
7.33
7.62
7.56
7.40
7.38
7.56
7.86
8.09
8.04
7.61
6.87
6.04
5.31
4.75
4.20
3.47
2.40
1.03
-0.47
-1.90
-3.12
-4.21
-5.39
-6.87
-8.75
-10.98
-13.31
-15.46
-17.09
-17.93
-17.78
-16.62
-14.57
-11.97
-9.20
-6.54
-4.09
-1.78
0.56
2.97
5.35
7.47
9.06
9.95
10.12
9.68
8.83
7.74
6.56
5.43
4.43
3.63
3.10
2.86
2.91
3.25
3.84
4.54
5.17
5.56
5.60
5.30
4.76
4.06
3.26
2.23
0.86
-0.92
-3.03
-5.35
-7.68
-9.94
-12.02
-13.78
-14.92
-15.08
-14.04
-11.87
-8.96
-5.94
-3.35
-1.51
-0.30
0.60
1.57
2.79
4.28
5.80
7.15
8.22
8.99
9.50
9.78
9.87
9.75
9.44
9.04
8.72
8.67
9.01
9.63
10.25
10.49
10.02
8.69
6.64
4.24
1.88
-0.07
-1.54
-2.62
-3.53
-4.48
-5.60
-6.97
-8.66
-10.74
-13.19
-15.81
-18.20
-19.82
-20.15
-18.96
-16.32
-12.67
-8.67
-4.89
-1.75
0.64
2.41
3.85
5.20
6.65
8.20
9.69
10.93
11.76
12.16
12.28
12.33
12.44
12.61
12.67
12.39
11.68
10.63
9.47
8.44
7.62
6.90
6.03
4.82
3.26
1.65
0.31
-0.46
-0.61
-0.33
0.02
0.09
-0.40
-1.57
-3.37
-5.64
-8.06
-10.23
-11.78
-12.39
-11.99
-10.73
-8.87
-6.73
-4.54
-2.43
-0.45
1.34
2.87
4.10
5.06
5.77
6.32
6.77
7.14
7.47
7.77
8.09
8.38
8.58
8.58
8.37
8.04
7.77
7.76
8.11
8.68
9.18
9.22
8.58
7.17
5.21
2.97
0.76
-1.21
-2.93
-4.43
-5.87
-7.41
-9.10
-10.87
-12.45
-13.51
-13.78
-13.14
-11.74
-9.90
-7.95
-6.03
-4.13
-2.09
0.15
2.48
4.62
6.31
7.40
7.98
8.27
8.42
8.54
8.59
8.50
8.32
8.17
8.17
8.39
8.71
8.92
8.80
8.18
7.07
5.63
4.05
2.53
1.20
0.01
-1.18
-2.53
-4.24
-6.42
-8.95
-11.59
-13.97
-15.71
-16.53
-16.36
-15.21
-13.28
-10.82
-8.08
-5.37
-3.02
-1.18
0.15
1.13
2.03
3.08
4.31
5.56
6.68
7.56
8.24
8.83
9.39
9.88
10.11
9.96
9.45
8.74
8.06
7.48
6.94
6.26
5.33
4.21
3.08
2.17
1.57
1.23
0.97
0.59
-0.10
-1.23
-2.92
-5.25
-8.16
-11.37
-14.40
-16.68
-17.71
-17.36
-15.80
-13.46
-10.80
-8.17
-5.75
-3.61
-1.81
-0.37
0.68
1.34
1.66
1.76
1.80
1.93
2.28
2.95
3.87
4.88
5.71
6.16
6.18
5.93
5.68
5.66
5.95
6.36
6.65
6.60
6.15
5.40
4.49
3.58
2.72
1.85
0.86
-0.36
-1.95
-3.92
-6.22
-8.63
-10.85
-12.52
-13.36
-13.25
-12.20
-10.43
-8.23
-5.92
-3.74
-1.82
-0.16
1.39
2.93
4.51
6.02
7.29
8.09
8.36
8.18
7.78
7.47
7.45
7.75
8.28
8.82
9.16
9.24
9.16
9.08
9.19
9.45
9.68
9.55
8.86
7.62
6.09
4.65
3.50
2.60
1.66
0.40
-1.34
-3.50
-5.87
-8.21
-10.35
-12.14
-13.39
-13.88
-13.42
-11.98
-9.73
-7.08
-4.42
-2.09
-0.18
1.37
2.71
4.01
5.31
6.59
7.77
8.77
9.52
10.00
10.23
10.23
10.01
9.57
9.01
8.47
8.17
8.27
8.78
9.49
10.04
10.14
9.58
8.44
6.96
5.41
3.95
2.56
1.16
-0.38
-2.13
-4.06
-6.07
-8.02
-9.70
-10.88
-11.27
-10.71
-9.21
-7.07
-4.75
-2.71
-1.24
-0.27
0.45
1.22
2.14
3.13
3.91
4.28
4.19
3.82
3.42
3.16
3.06
3.01
2.92
2.77
2.64
2.61
2.67
2.66
2.42
1.87
1.05
0.19
-0.56
-1.12
-1.57
-2.07
-2.80
-3.81
-5.12
-6.62
-8.20
-9.71
-10.93
-11.60
-11.52
-10.60
-8.94
-6.78
-4.42
-2.08
0.10
2.04
3.69
4.96
5.79
6.14
6.05
5.66
5.14
4.59
4.08
3.65
3.27
2.99
2.81
2.78
2.88
3.01
2.98
2.60
1.77
0.57
-0.75
-1.98
-3.01
-3.96
-5.07
-6.55
-8.40
-10.36
-12.01
-12.97
-13.02
-12.20
-10.71
-8.82
-6.79
-4.86
-3.17
-1.83
-0.83
-0.10
0.51
1.12
1.76
2.42
3.06
3.66
4.28
4.95
5.59
6.07
6.20
5.89
5.17
4.28
3.46
2.93
2.66
2.46
2.03
1.19
-0.01
-1.38
-2.58
-3.43
-3.95
-4.40
-5.10
-6.34
-8.14
-10.23
-12.13
-13.33
-13.50
-12.63
-11.02
-9.17
-7.47
-6.10
-4.96
-3.79
-2.38
-0.69
1.11
2.73
3.94
4.62
4.88
4.95
5.03
5.28
5.71
6.20
6.66
6.98
7.19
7.34
7.53
7.84
8.24
8.63
8.89
8.86
8.43
7.60
6.38
4.89
3.27
1.64
0.05
-1.43
-2.83
-4.25
-5.84
-7.68
-9.73
-11.74
-13.27
-13.87
-13.31
-11.71
-9.51
-7.24
-5.31
-3.84
-2.63
-1.43
-0.02
1.58
3.19
4.61
5.64
6.24
6.44
6.37
6.21
6.09
6.11
6.18
6.21
6.07
5.75
5.33
4.97
4.73
4.52
4.15
3.50
2.60
1.60
0.77
0.21
-0.18
-0.64
-1.48
-2.79
-4.53
-6.43
-8.18
-9.49
-10.12
-9.98
-9.12
-7.71
-6.03
-4.33
-2.79
-1.41
-0.09
1.24
2.56
3.78
4.75
5.36
5.59
5.55
5.37
5.18
5.05
4.98
4.92
4.84
4.73
4.60
4.46
4.30
4.02
3.47
2.54
1.22
-0.40
-2.12
-3.72
-5.05
-6.10
-6.98
-7.89
-9.00
-10.35
-11.80
-13.08
-13.79
-13.57
-12.19
-9.68
-6.37
-2.80
0.44
2.91
4.47
5.22
5.47
5.55
5.72
5.99
6.24
6.25
5.85
5.03
3.93
2.77
1.76
1.03
0.59
0.34
0.24
0.25
0.33
0.39
0.33
0.02
-0.57
-1.32
-2.07
-2.71
-3.24
-3.82
-4.67
-5.92
-7.59
-9.53
-11.51
-13.27
-14.55
-15.09
-14.77
-13.54
-11.60
-9.28
-6.99
-5.08
-3.71
-2.85
-2.29
-1.82
-1.21
-0.40
0.58
1.57
2.40
2.93
3.11
3.01
2.79
2.56
2.40
2.37
2.47
2.80
3.35
4.09
4.82
5.26
5.09
4.16
2.50
0.37
-1.88
-3.90
-5.51
-6.66
-7.47
-8.19
-9.03
-10.08
-11.30
-12.45
-13.23
-13.39
-12.89
-11.80
-10.37
-8.90
-7.52
-6.27
-5.07
-3.86
-2.63
-1.48
-0.55
0.11
0.46
0.62
0.71
0.81
1.02
1.40
1.94
2.63
3.36
3.97
4.32
4.30
4.00
3.51
2.98
2.45
1.84
1.06
0.05
-1.15
-2.36
-3.42
-4.22
-4.82
-5.40
-6.18
-7.34
-8.95
-10.92
-13.05
-15.08
-16.67
-17.57
-17.62
-16.74
-15.09
-12.87
-10.37
-7.89
-5.62
-3.65
-1.94
-0.40
1.07
2.45
3.60
4.34
4.57
4.39
4.05
3.92
4.21
4.91
5.81
6.61
7.08
7.14
6.83
6.26
5.47
4.51
3.42
2.28
1.24
0.48
0.04
-0.14
-0.28
-0.71
-1.78
-3.73
-6.61
-10.22
-14.13
-17.89
-20.98
-23.05
-23.86
-23.35
-21.58
-18.78
-15.32
-11.67
-8.30
-5.52
-3.35
-1.50
0.42
2.66
5.19
7.63
9.49
10.47
10.59
10.17
9.60
9.21
9.03
8.97
8.86
8.58
8.05
7.22
6.07
4.59
2.88
1.09
-0.62
-2.17
-3.59
-4.99
-6.48
-8.12
-9.93
-11.87
-13.88
-15.80
-17.33
-18.13
-17.88
-16.55
-14.36
-11.69
-8.98
-6.43
-4.02
-1.62
0.93
3.65
6.38
8.88
10.91
12.33
13.17
13.58
13.71
13.68
13.56
13.33
13.00
12.59
12.16
11.75
11.37
10.95
10.41
9.62
8.48
6.94
5.01
2.80
0.45
-1.84
-3.95
-5.88
-7.84
-10.13
-12.93
-16.16
-19.36
-21.78
-22.75
-21.87
-19.26
-15.47
-11.22
-7.22
-3.86
-1.19
0.95
2.76
4.44
6.03
7.61
9.23
10.94
12.75
14.52
16.08
17.27
18.05
18.53
18.89
19.26
19.63
19.93
20.02
19.79
19.20
18.20
16.76
14.90
12.74
10.47
8.28
6.32
4.61
3.04
1.45
-0.33
-2.44
-5.03
-8.18
-11.88
-15.87
-19.66
-22.61
-24.15
-23.98
-22.20
-19.26
-15.74
-12.13
-8.65
-5.25
-1.76
1.90
5.60
8.97
11.59
13.26
14.14
14.70
15.50
16.86
18.78
20.84
22.52
23.46
23.51
22.82
21.66
20.30
18.92
17.60
16.32
15.03
13.69
12.34
11.02
9.83
8.88
8.16
7.55
6.75
5.43
3.28
0.21
-3.69
-8.13
-12.72
-17.04
-20.65
-23.18
-24.33
-23.91
-21.95
-18.65
-14.43
-9.77
-5.09
-0.71
3.23
6.70
9.68
12.21
14.29
15.98
17.35
18.42
19.19
19.62
19.66
19.34
18.75
17.99
17.15
16.26
15.31
14.29
13.22
12.17
11.17
10.18
9.11
7.84
6.33
4.59
2.68
0.68
-1.42
-3.75
-6.46
-9.70
-13.48
-17.58
-21.54
-24.75
-26.66
-26.94
-25.62
-23.10
-19.94
-16.69
-13.65
-10.88
-8.23
-5.42
-2.18
1.61
5.91
10.38
14.51
17.80
19.89
20.74
20.62
19.98
19.21
18.58
18.13
17.77
17.47
17.20
16.89
16.42
15.50
13.88
11.51
8.60
5.60
3.01
1.06
-0.31
-1.50
-2.99
-5.14
-8.06
-11.57
-15.28
-18.69
-21.25
-22.51
-22.09
-19.91
-16.17
-11.40
-6.32
-1.57
2.41
5.48
7.73
9.39
10.65
11.63
12.29
12.58
12.47
12.00
11.31
10.60
10.04
9.73
9.68
9.84
10.08
10.27
10.25
9.91
9.18
8.06
6.67
5.15
3.56
1.82
-0.22
-2.72
-5.73
-9.13
-12.70
-16.14
-19.20
-21.64
-23.25
-23.77
-23.03
-21.01
-17.91
-14.17
-10.25
-6.50
-3.12
-0.07
2.70
5.21
7.36
9.08
10.31
11.14
11.72
12.26
12.86
13.55
14.21
14.70
14.92
14.78
14.20
13.20
11.76
9.95
7.87
5.69
3.58
1.65
-0.09
-1.74
-3.45
-5.36
-7.59
-10.18
-13.12
-16.35
-19.57
-22.38
-24.25
-24.71
-23.50
-20.76
-16.94
-12.67
-8.52
-4.75
-1.35
1.86
5.01
8.04
10.75
12.87
14.23
14.86
14.94
14.71
14.42
14.21
14.14
14.16
14.23
14.29
14.26
14.09
13.76
13.30
12.74
12.13
11.44
10.50
9.16
7.25
4.79
1.93
-1.15
-4.30
-7.51
-10.84
-14.24
-17.50
-20.19
-21.85
-22.23
-21.43
-19.81
-17.73
-15.42
-12.80
-9.65
-5.85
-1.50
3.08
7.44
11.22
14.19
16.28
17.57
18.34
18.95
19.84
21.25
23.19
25.37
27.35
28.73
29.34
29.22
28.49
27.28
25.66
23.69
21.55
19.44
17.59
16.08
14.85
13.67
12.36
10.66
8.39
5.45
1.82
-2.36
-6.75
-10.80
-13.92
-15.62
-15.70
-14.27
-11.74
-8.68
-5.55
-2.68
-0.05
2.51
5.25
8.25
11.39
14.33
16.68
18.25
19.09
19.41
19.49
19.49
19.44
19.28
18.96
18.50
18.00
17.50
17.04
16.56
15.95
15.11
13.92
12.31
10.29
8.00
5.68
3.67
2.23
1.38
0.86
0.14
-1.28
-3.70
-7.01
-10.68
-14.00
-16.25
-17.01
-16.20
-14.14
-11.32
-8.26
-5.25
-2.46
0.13
2.49
4.58
6.31
7.57
8.37
8.78
8.95
8.99
9.00
8.97
8.91
8.79
8.62
8.43
8.27
8.16
8.12
8.08
7.92
7.50
6.73
5.59
4.13
2.42
0.50
-1.55
-3.64
-5.58
-7.11
-8.06
-8.46
-8.57
-8.83
-9.65
-11.22
-13.52
-16.25
-18.99
-21.25
-22.65
-22.91
-21.97
-20.00
-17.33
-14.31
-11.27
-8.37
-5.73
-3.47
-1.67
-0.35
0.51
1.06
1.47
1.82
2.12
2.33
2.45
2.55
2.69
2.85
2.91
2.78
2.46
2.11
1.94
2.05
2.31
2.43
2.11
1.28
0.05
-1.26
-2.40
-3.24
-3.82
-4.30
-4.85
-5.58
-6.56
-7.83
-9.36
-11.08
-12.88
-14.68
-16.34
-17.72
-18.58
-18.72
-18.00
-16.45
-14.35
-12.07
-9.97
-8.24
-6.87
-5.71
-4.54
-3.27
-1.88
-0.46
0.86
1.88
2.48
2.55
2.19
1.65
1.27
1.28
1.72
2.33
2.77
2.77
2.31
1.54
0.70
-0.05
-0.73
-1.45
-2.32
-3.37
-4.49
-5.48
-6.18
-6.48
-6.46
-6.30
-6.29
-6.63
-7.38
-8.48
-9.80
-11.22
-12.74
-14.46
-16.41
-18.42
-20.06
-20.84
-20.37
-18.60
-15.86
-12.73
-9.71
-7.16
-5.17
-3.60
-2.26
-0.99
0.30
1.56
2.68
3.57
4.18
4.50
4.62
4.60
4.44
4.11
3.53
2.71
1.78
0.99
0.50
0.36
0.45
0.53
0.42
0.05
-0.53
-1.18
-1.87
-2.67
-3.65
-4.85
-6.19
-7.50
-8.60
-9.31
-9.60
-9.52
-9.28
-9.18
-9.56
-10.71
-12.69
-15.24
-17.79
-19.63
-20.20
-19.27
-17.05
-14.11
-11.04
-8.31
-6.08
-4.29
-2.73
-1.25
0.20
1.60
2.84
3.91
4.80
5.60
6.34
6.98
7.43
7.61
7.47
7.04
6.42
5.71
5.03
4.46
4.04
3.76
3.51
3.13
2.44
1.37
-0.01
-1.51
-2.90
-4.03
-4.94
-5.81
-6.79
-7.93
-9.18
-10.41
-11.65
-13.01
-14.64
-16.53
-18.43
-19.85
-20.30
-19.53
-17.60
-14.88
-11.86
-8.96
-6.36
-4.06
-1.99
-0.14
1.45
2.67
3.51
4.05
4.42
4.79
5.23
5.72
6.12
6.27
6.07
5.53
4.79
3.98
3.14
2.24
1.16
-0.19
-1.75
-3.40
-4.95
-6.24
-7.18
-7.88
-8.50
-9.27
-10.41
-12.03
-14.10
-16.49
-18.92
-21.07
-22.68
-23.56
-23.57
-22.60
-20.62
-17.75
-14.25
-10.53
-6.99
-3.89
-1.30
0.93
2.95
4.84
6.50
7.76
8.47
8.59
8.35
8.09
8.14
8.68
9.60
10.56
11.11
10.94
10.04
8.63
7.14
5.94
5.11
4.48
3.71
2.47
0.71
-1.41
-3.55
-5.40
-6.84
-7.94
-8.94
-10.02
-11.36
-12.98
-14.96
-17.30
-19.94
-22.60
-24.81
-26.00
-25.70
-23.74
-20.29
-15.91
-11.26
-6.95
-3.33
-0.46
1.83
3.79
5.65
7.56
9.51
11.43
13.18
14.62
15.68
16.36
16.71
16.77
16.62
16.30
15.81
15.23
14.65
14.16
13.87
13.76
13.66
13.27
12.29
10.59
8.28
5.67
3.14
0.95
-0.84
-2.39
-3.90
-5.57
-7.57
-10.02
-13.00
-16.46
-20.13
-23.42
-25.60
-26.02
-24.43
-21.11
-16.77
-12.22
-8.10
-4.66
-1.75
0.96
3.73
6.64
9.52
12.17
14.42
16.26
17.77
19.05
20.11
20.87
21.19
21.02
20.45
19.73
19.13
18.85
18.89
19.07
19.06
18.58
17.37
15.39
12.76
9.79
6.86
4.35
2.44
1.09
0.09
-0.88
-2.07
-3.63
-5.59
-7.94
-10.71
-13.86
-17.31
-20.77
-23.78
-25.84
-26.47
-25.45
-22.84
-18.96
-14.30
-9.37
-4.60
-0.24
3.57
6.81
9.51
11.69
13.40
14.73
15.81
16.78
17.71
18.59
19.34
19.81
19.94
19.76
19.39
19.02
18.69
18.33
17.75
16.86
15.63
14.20
12.75
11.35
9.96
8.48
6.78
4.89
2.89
0.87
-1.18
-3.30
-5.58
-8.07
-10.78
-13.69
-16.84
-20.19
-23.58
-26.65
-28.87
-29.70
-28.83
-26.28
-22.44
-17.85
-13.03
-8.32
-3.85
0.41
4.45
8.21
11.54
14.29
16.34
17.70
18.45
18.71
18.63
18.32
17.87
17.31
16.73
16.14
15.62
15.18
14.81
14.46
14.05
13.49
12.71
11.73
10.50
9.06
7.39
5.54
3.56
1.52
-0.52
-2.51
-4.42
-6.28
-8.12
-10.06
-12.21
-14.71
-17.58
-20.66
-23.53
-25.61
-26.36
-25.51
-23.16
-19.72
-15.73
-11.67
-7.83
-4.35
-1.23
1.53
3.97
6.05
7.76
9.09
10.06
10.75
11.28
11.80
12.43
13.21
14.07
14.88
15.48
15.77
15.76
15.52
15.10
14.53
13.75
12.69
11.27
9.44
7.27
4.87
2.40
0.06
-2.06
-3.98
-5.87
-7.94
-10.37
-13.25
-16.54
-20.10
-23.69
-27.02
-29.79
-31.72
-32.58
-32.23
-30.61
-27.78
-23.88
-19.16
-13.96
-8.72
-3.85
0.31
3.58
5.97
7.58
8.61
9.25
9.72
10.31
11.27
12.76
14.79
17.11
19.34
21.11
22.15
22.39
21.89
20.74
19.05
16.86
14.25
11.35
8.31
5.35
2.57
0.02
-2.35
-4.72
-7.25
-10.08
-13.26
-16.72
-20.24
-23.53
-26.19
-27.83
-28.07
-26.62
-23.41
-18.63
-12.75
-6.49
-0.56
4.47
8.30
10.92
12.51
13.28
13.42
13.13
12.58
11.99
11.61
11.54
11.78
12.19
12.50
12.52
12.18
11.60
10.96
10.38
9.82
9.06
7.88
6.14
3.89
1.32
-1.32
-3.86
-6.23
-8.47
-10.70
-13.10
-15.85
-19.07
-22.72
-26.51
-29.86
-32.00
-32.28
-30.38
-26.48
-21.24
-15.45
-9.78
-4.61
0.01
4.12
7.77
10.87
13.26
14.81
15.55
15.71
15.58
15.42
15.37
15.40
15.42
15.41
15.39
15.43
15.59
15.84
15.99
15.81
15.05
13.61
11.49
8.82
5.79
2.58
-0.69
-3.95
-7.15
-10.25
-13.26
-16.21
-19.24
-22.51
-26.11
-29.95
-33.63
-36.47
-37.73
-36.84
-33.65
-28.50
-22.10
-15.31
-8.88
-3.23
1.59
5.70
9.28
12.40
15.07
17.22
18.89
20.21
21.36
22.55
23.82
25.13
26.30
27.09
27.25
26.69
25.45
23.73
21.87
20.16
18.74
17.53
16.23
14.53
12.25
9.45
6.41
3.40
0.63
-1.88
-4.32
-6.90
-9.84
-13.25
-17.14
-21.41
-25.85
-30.11
-33.71
-36.10
-36.82
-35.56
-32.30
-27.37
-21.33
-14.85
-8.59
-2.99
1.76
5.73
9.09
12.05
14.71
17.02
18.88
20.15
20.78
20.82
20.42
19.80
19.16
18.68
18.45
18.42
18.49
18.51
18.32
17.83
16.99
15.90
14.61
13.23
11.68
9.83
7.53
4.74
1.59
-1.64
-4.68
-7.43
-10.01
-12.79
-16.15
-20.35
-25.37
-30.94
-36.61
-41.75
-45.59
-47.34
-46.28
-42.12
-35.19
-26.46
-17.26
-8.74
-1.55
4.29
9.23
13.74
17.99
21.76
24.60
26.20
26.55
26.03
25.23
24.64
24.52
24.82
25.30
25.68
25.80
25.66
25.34
24.93
24.42
23.70
22.52
20.76
18.42
15.68
12.74
9.83
7.02
4.31
1.63
-1.04
-3.70
-6.40
-9.34
-12.83
-17.22
-22.64
-28.90
-35.28
-40.81
-44.41
-45.31
-43.28
-38.71
-32.36
-25.19
-17.98
-11.23
-5.16
0.18
4.80
8.70
11.92
14.49
16.53
18.14
19.45
20.55
21.55
22.56
23.65
24.80
25.85
26.53
26.57
25.92
24.68
23.16
21.57
20.01
18.37
16.43
14.00
11.08
7.85
4.55
1.40
-1.49
-4.11
-6.58
-9.02
-11.63
-14.65
-18.31
-22.75
-27.83
-33.12
-37.81
-41.01
-41.95
-40.31
-36.27
-30.44
-23.65
-16.59
-9.68
-3.08
3.18
8.99
14.10
18.18
21.00
22.61
23.28
23.46
23.54
23.67
23.79
23.67
23.11
22.09
20.80
19.58
18.76
18.49
18.69
19.01
18.96
18.05
16.01
12.93
9.24
5.60
2.61
0.59
-0.57
-1.37
-2.49
-4.58
-7.99
-12.69
-18.25
-23.89
-28.71
-31.81
-32.66
-31.05
-27.28
-21.92
-15.73
-9.38
-3.39
1.87
6.26
9.75
12.41
14.36
15.78
16.87
17.81
18.69
19.54
20.33
20.93
21.25
21.23
20.90
20.35
19.71
19.10
18.47
17.69
16.47
14.62
12.02
8.77
5.17
1.52
-1.90
-4.98
-7.72
-10.22
-12.58
-14.92
-17.40
-20.27
-23.65
-27.48
-31.27
-34.18
-35.28
-33.94
-30.12
-24.48
-18.06
-11.89
-6.68
-2.54
0.83
3.95
7.27
10.98
14.97
18.99
22.73
25.94
28.46
30.16
31.00
31.00
30.29
29.08
27.64
26.20
24.87
23.64
22.41
21.07
19.60
18.00
16.25
14.22
11.76
8.81
5.48
2.07
-1.09
-3.78
-6.08
-8.29
-10.82
-13.97
-17.84
-22.28
-26.93
-31.26
-34.67
-36.49
-36.25
-33.72
-29.16
-23.19
-16.64
-10.32
-4.72
0.04
4.18
7.96
11.54
14.83
17.62
19.68
20.94
21.59
21.93
22.29
22.80
23.38
23.80
23.83
23.36
22.51
21.49
20.51
19.63
18.73
17.61
16.07
14.03
11.52
8.67
5.69
2.74
-0.04
-2.57
-4.85
-6.94
-8.97
-11.15
-13.72
-16.91
-20.82
-25.23
-29.67
-33.36
-35.54
-35.58
-33.31
-29.00
-23.27
-16.84
-10.32
-4.09
1.64
6.79
11.26
14.90
17.60
19.39
20.46
21.10
21.61
22.14
22.71
23.12
23.16
22.71
21.78
20.55
19.28
18.13
17.12
16.08
14.79
13.01
10.70
7.90
4.84
1.70
-1.34
-4.19
-6.76
-8.99
-10.86
-12.49
-14.15
-16.25
-19.11
-22.86
-27.22
-31.50
-34.80
-36.27
-35.44
-32.34
-27.53
-21.83
-16.01
-10.60
-5.78
-1.49
2.38
5.84
8.78
11.02
12.50
13.26
13.53
13.53
13.49
13.48
13.45
13.35
13.11
12.69
12.12
11.41
10.53
9.40
7.95
6.19
4.21
2.23
0.47
-0.93
-2.01
-2.98
-4.13
-5.76
-8.07
-11.13
-14.89
-19.10
-23.29
-26.76
-28.73
-28.59
-26.19
-21.88
-16.44
-10.78
-5.62
-1.29
2.18
4.92
7.04
8.56
9.47
9.82
9.77
9.56
9.35
9.23
9.15
9.03
8.80
8.44
7.99
7.53
7.15
6.89
6.66
6.26
5.45
4.01
1.93
-0.69
-3.59
-6.54
-9.37
-12.06
-14.68
-17.38
-20.33
-23.62
-27.14
-30.54
-33.20
-34.38
-33.51
-30.46
-25.67
-20.02
-14.43
-9.55
-5.57
-2.28
0.59
3.23
5.60
7.56
9.04
10.06
10.80
11.42
12.01
12.50
12.76
12.71
12.33
11.75
11.15
10.68
10.31
9.86
9.04
7.56
5.34
2.54
-0.43
-3.13
-5.33
-7.10
-8.76
-10.79
-13.56
-17.18
-21.44
-25.86
-29.77
-32.46
-33.36
-32.15
-28.92
-24.09
-18.31
-12.27
-6.53
-1.43
2.89
6.49
9.51
12.07
14.28
16.19
17.77
18.98
19.72
19.88
19.40
18.29
16.72
14.96
13.30
11.96
11.02
10.37
9.78
8.98
7.79
6.14
4.13
1.92
-0.27
-2.25
-3.92
-5.34
-6.78
-8.58
-11.05
-14.35
-18.27
-22.35
-25.91
-28.26
-28.89
-27.55
-24.36
-19.71
-14.26
-8.68
-3.54
0.86
4.53
7.62
10.33
12.75
14.83
16.51
17.75
18.61
19.20
19.58
19.79
19.78
19.55
19.11
18.59
18.09
17.68
17.32
16.95
16.47
15.76
14.73
13.27
11.29
8.76
5.77
2.56
-0.57
-3.34
-5.64
-7.57
-9.42
-11.58
-14.37
-17.82
-21.61
-25.06
-27.40
-27.97
-26.53
-23.28
-18.77
-13.66
-8.55
-3.88
0.13
3.34
5.71
7.22
7.98
8.22
8.26
8.40
8.84
9.62
10.56
11.41
11.90
11.92
11.55
11.04
10.73
10.82
11.28
11.81
12.03
11.60
10.44
8.63
6.47
4.21
2.05
0.04
-1.83
-3.64
-5.50
-7.56
-9.98
-12.84
-16.04
-19.30
-22.09
-23.83
-24.06
-22.63
-19.75
-15.93
-11.72
-7.57
-3.64
0.13
3.84
7.42
10.56
12.83
13.91
13.77
12.76
11.43
10.32
9.66
9.39
9.24
9.00
8.54
7.99
7.55
7.35
7.36
7.35
6.99
6.01
4.31
2.07
-0.31
-2.39
-3.91
-4.92
-5.77
-6.96
-8.93
-11.83
-15.57
-19.77
-23.95
-27.51
-29.87
-30.58
-29.42
-26.55
-22.48
-17.95
-13.61
-9.82
-6.58
-3.65
-0.80
2.08
4.88
7.41
9.44
10.89
11.76
12.17
12.32
12.39
12.47
12.56
12.58
12.38
11.88
11.10
10.21
9.40
8.79
8.29
7.70
6.75
5.29
3.33
1.08
-1.21
-3.26
-4.97
-6.39
-7.77
-9.40
-11.55
-14.41
-17.94
-21.89
-25.84
-29.22
-31.48
-32.29
-31.53
-29.41
-26.28
-22.54
-18.49
-14.30
-10.09
-5.98
-2.16
1.23
4.12
6.55
8.64
10.44
11.91
12.90
13.29
13.13
12.60
11.98
11.51
11.26
11.18
11.13
11.00
10.73
10.29
9.63
8.66
7.31
5.54
3.44
1.17
-1.03
-2.92
-4.34
-5.27
-5.85
-6.43
-7.48
-9.41
-12.44
-16.39
-20.71
-24.65
-27.50
-28.81
-28.50
-26.80
-24.02
-20.53
-16.60
-12.46
-8.36
-4.50
-1.08
1.80
4.08
5.86
7.23
8.31
9.15
9.83
10.35
10.72
10.99
11.26
11.57
11.95
12.35
12.72
12.97
13.08
12.96
12.51
11.55
9.98
7.80
5.18
2.43
-0.15
-2.42
-4.39
-6.26
-8.24
-10.53
-13.21
-16.29
-19.67
-23.11
-26.21
-28.47
-29.36
-28.60
-26.19
-22.52
-18.17
-13.73
-9.60
-5.88
-2.53
0.58
3.45
6.00
8.05
9.52
10.49
11.17
11.81
12.54
13.38
14.18
14.77
15.10
15.21
15.27
15.40
15.60
15.67
15.26
14.06
11.93
8.99
5.63
2.33
-0.51
-2.75
-4.53
-6.17
-8.06
-10.45
-13.39
-16.78
-20.33
-23.70
-26.43
-28.07
-28.28
-26.92
-24.16
-20.39
-16.08
-11.64
-7.32
-3.19
0.63
4.06
6.94
9.13
10.65
11.56
11.99
12.08
11.93
11.74
11.71
12.06
12.89
14.08
15.32
16.21
16.47
15.95
14.80
13.23
11.48
9.67
7.85
5.99
4.07
2.15
0.30
-1.49
-3.31
-5.38
-7.99
-11.33
-15.37
-19.75
-23.86
-27.00
-28.62
-28.51
-26.82
-23.90
-20.17
-16.00
-11.62
-7.22
-2.98
0.92
4.31
7.11
9.25
10.75
11.66
12.08
12.16
12.08
11.97
11.91
11.87
11.86
11.98
12.33
12.97
13.75
14.32
14.23
13.17
11.15
8.50
5.73
3.28
1.38
0.02
-1.06
-2.19
-3.66
-5.69
-8.36
-11.62
-15.22
-18.79
-21.83
-23.87
-24.45
-23.32
-20.48
-16.22
-11.10
-5.81
-0.97
3.08
6.31
8.89
11.07
12.95
14.49
15.64
16.37
16.75
16.95
17.07
17.17
17.24
17.24
17.18
17.05
16.87
16.56
16.03
15.14
13.80
11.95
9.58
6.82
3.87
0.99
-1.57
-3.74
-5.65
-7.61
-9.94
-12.86
-16.27
-19.88
-23.24
-25.91
-27.54
-27.88
-26.81
-24.33
-20.59
-15.88
-10.59
-5.19
-0.07
4.47
8.23
11.14
13.25
14.62
15.42
15.87
16.24
16.79
17.62
18.69
19.76
20.57
20.85
20.51
19.61
18.32
16.79
15.13
13.29
11.30
9.19
7.09
5.13
3.40
1.87
0.44
-1.04
-2.72
-4.78
-7.36
-10.54
-14.29
-18.40
-22.49
-26.00
-28.34
-29.05
-27.85
-24.88
-20.59
-15.64
-10.71
-6.32
-2.65
0.44
3.21
5.94
8.70
11.33
13.61
15.27
16.22
16.49
16.20
15.51
14.56
13.48
12.40
11.45
10.78
10.47
10.56
10.97
11.49
11.77
11.38
10.05
7.78
4.95
2.11
-0.26
-2.03
-3.44
-5.01
-7.16
-10.05
-13.51
-17.24
-20.97
-24.46
-27.52
-29.81
-30.89
-30.34
-28.03
-24.21
-19.48
-14.53
-9.91
-5.81
-2.16
1.32
4.88
8.56
12.24
15.61
18.34
20.16
21.00
20.99
20.42
19.60
18.75
18.01
17.37
16.78
16.20
15.65
15.13
14.62
14.02
13.15
11.88
10.14
8.01
5.71
3.40
1.18
-1.00
-3.20
-5.49
-7.83
-10.18
-12.55
-15.03
-17.73
-20.61
-23.45
-25.84
-27.26
-27.33
-25.90
-23.09
-19.21
-14.71
-10.03
-5.57
-1.60
1.71
4.30
6.18
7.48
8.34
8.93
9.45
10.12
11.05
12.25
13.59
14.81
15.60
15.78
15.33
14.42
13.36
12.37
11.59
10.93
10.23
9.32
8.12
6.72
5.20
3.57
1.68
-0.58
-3.20
-5.97
-8.52
-10.53
-11.99
-13.18
-14.58
-16.53
-19.08
-21.90
-24.40
-25.98
-26.20
-24.89
-22.19
-18.42
-14.04
-9.53
-5.28
-1.56
1.51
3.89
5.61
6.72
7.30
7.47
7.44
7.42
7.60
8.07
8.73
9.43
10.02
10.39
10.53
10.48
10.22
9.66
8.66
7.11
5.06
2.73
0.46
-1.46
-2.91
-4.05
-5.19
-6.70
-8.84
-11.66
-15.04
-18.76
-22.52
-25.92
-28.48
-29.70
-29.20
-26.93
-23.24
-18.76
-14.20
-10.03
-6.41
-3.25
-0.32
2.41
4.85
6.79
8.13
8.96
9.52
10.07
10.78
11.57
12.28
12.71
12.74
12.48
12.09
11.80
11.71
11.74
11.65
11.11
9.96
8.19
6.03
3.73
1.53
-0.52
-2.53
-4.70
-7.19
-10.13
-13.52
-17.32
-21.38
-25.43
-29.08
-31.79
-33.04
-32.46
-29.99
-25.94
-20.88
-15.56
-10.61
-6.40
-2.97
-0.12
2.44
4.87
7.17
9.19
10.79
11.93
12.70
13.23
13.66
13.97
14.08
13.98
13.66
13.27
13.02
12.99
13.19
13.42
13.44
12.93
11.70
9.69
7.13
4.35
1.77
-0.36
-2.01
-3.42
-5.01
-7.10
-9.93
-13.52
-17.72
-22.24
-26.62
-30.25
-32.40
-32.47
-30.15
-25.71
-19.88
-13.68
-7.99
-3.22
0.73
4.26
7.77
11.33
14.71
17.51
19.47
20.59
21.19
21.66
22.26
23.03
23.71
23.96
23.56
22.52
21.08
19.62
18.48
17.78
17.39
17.02
16.24
14.80
12.58
9.74
6.61
3.57
0.87
-1.36
-3.21
-4.93
-6.80
-9.11
-12.04
-15.67
-19.92
-24.46
-28.71
-31.92
-33.31
-32.34
-28.92
-23.49
-16.88
-10.03
-3.73
1.53
5.59
8.52
10.58
12.02
13.15
14.15
15.12
16.04
16.83
17.41
17.80
17.99
17.97
17.73
17.23
16.47
15.59
14.76
14.17
13.85
13.59
13.03
11.85
9.83
7.02
3.73
0.43
-2.51
-4.95
-7.09
-9.34
-12.08
-15.44
-19.12
-22.58
-25.32
-27.00
-27.52
-26.85
-24.97
-21.75
-17.16
-11.37
-4.92
1.47
7.13
11.57
14.65
16.42
17.10
16.97
16.39
15.78
15.46
15.57
16.00
16.52
16.88
17.02
16.93
16.68
16.24
15.48
14.36
12.91
11.31
9.73
8.22
6.64
4.82
2.68
0.35
-1.95
-4.08
-6.15
-8.56
-11.74
-15.90
-20.88
-26.07
-30.65
-33.79
-34.88
-33.82
-30.88
-26.65
-21.71
-16.57
-11.46
-6.48
-1.72
2.66
6.47
9.55
11.91
13.68
15.01
16.02
16.73
17.11
17.24
17.37
17.77
18.59
19.74
20.87
21.61
21.64
20.91
19.61
18.03
16.37
14.75
13.12
11.37
9.45
7.32
5.00
2.51
-0.21
-3.27
-6.70
-10.44
-14.36
-18.28
-22.14
-25.95
-29.66
-33.06
-35.64
-36.81
-36.10
-33.49
-29.34
-24.30
-18.98
-13.71
-8.51
-3.26
2.06
7.28
12.06
16.07
19.07
21.02
22.05
22.38
22.26
21.98
21.77
21.74
21.87
22.07
22.17
22.06
21.65
20.94
20.02
18.94
17.79
16.57
15.25
13.75
12.03
10.08
7.94
5.70
3.38
0.97
-1.64
-4.46
-7.52
-10.82
-14.45
-18.57
-23.30
-28.54
-33.77
-38.15
-40.80
-41.09
-38.89
-34.59
-28.90
-22.51
-15.97
-9.64
-3.74
1.59
6.21
10.12
13.36
16.06
18.32
20.15
21.53
22.40
22.83
22.94
22.87
22.78
22.70
22.60
22.39
21.96
21.25
20.21
18.83
17.14
15.19
13.15
11.20
9.52
8.19
7.13
6.11
4.86
3.15
0.93
-1.65
-4.40
-7.13
-9.79
-12.53
-15.59
-19.21
-23.45
-28.08
-32.52
-35.93
-37.48
-36.64
-33.40
-28.29
-22.17
-15.91
-10.08
-4.90
-0.28
3.90
7.65
10.77
13.05
14.44
15.08
15.39
15.76
16.41
17.29
18.12
18.58
18.51
17.95
17.19
16.61
16.41
16.57
16.81
16.70
15.88
14.15
11.54
8.27
4.71
1.22
-1.92
-4.55
-6.70
-8.50
-10.18
-12.04
-14.38
-17.40
-21.11
-25.21
-29.10
-32.00
-33.16
-32.20
-29.20
-24.71
-19.48
-14.15
-9.14
-4.55
-0.38
3.40
6.73
9.47
11.51
12.85
13.59
13.87
13.89
13.80
13.73
13.81
14.01
14.26
14.42
14.38
14.12
13.73
13.31
12.90
12.43
11.75
10.72
9.18
7.13
4.63
1.86
-1.00
-3.75
-6.28
-8.63
-10.95
-13.50
-16.52
-20.18
-24.47
-29.16
-33.78
-37.73
-40.35
-41.12
-39.78
-36.41
-31.39
-25.37
-19.03
-12.98
-7.58
-2.97
0.98
4.47
7.63
10.46
12.88
14.80
16.22
17.34
18.40
19.59
20.87
22.03
22.75
22.84
22.33
21.43
20.39
19.38
18.43
17.45
16.36
15.11
13.77
12.39
10.96
9.36
7.43
5.04
2.19
-0.96
-4.16
-7.20
-10.10
-13.11
-16.56
-20.69
-25.36
-29.95
-33.59
-35.42
-34.93
-32.15
-27.56
-21.94
-15.99
-10.20
-4.77
0.26
4.83
8.84
12.12
14.58
16.30
17.49
18.45
19.39
20.32
21.09
21.53
21.53
21.17
20.67
20.28
20.13
20.20
20.29
20.19
19.72
18.79
17.37
15.48
13.20
10.69
8.21
5.98
4.14
2.61
1.20
-0.40
-2.45
-5.08
-8.34
-12.16
-16.33
-20.43
-23.80
-25.71
-25.46
-22.75
-17.82
-11.47
-4.76
1.25
5.94
9.13
11.10
12.27
13.02
13.56
13.90
14.06
14.12
14.26
14.64
15.29
15.99
16.34
15.96
14.70
12.76
10.55
8.52
6.92
5.66
4.43
2.92
1.01
-1.07
-2.91
-4.16
-4.66
-4.59
-4.38
-4.53
-5.46
-7.45
-10.57
-14.66
-19.35
-24.01
-27.83
-30.04
-30.07
-27.77
-23.47
-17.85
-11.67
-5.63
-0.17
4.50
8.28
11.13
13.02
13.93
13.98
13.44
12.69
12.14
12.10
12.61
13.50
14.50
15.34
15.93
16.35
16.72
17.05
17.16
16.76
15.56
13.51
10.76
7.70
4.67
1.92
-0.50
-2.74
-5.09
-7.85
-11.27
-15.41
-20.06
-24.67
-28.51
-30.77
-30.91
-28.83
-24.86
-19.69
-14.10
-8.70
-3.86
0.33
3.93
7.08
9.81
12.11
13.91
15.13
15.76
15.86
15.58
15.10
14.58
14.12
13.76
13.50
13.35
13.35
13.49
13.66
13.62
13.01
11.51
9.01
5.72
2.14
-1.15
-3.71
-5.47
-6.72
-7.95
-9.70
-12.32
-15.85
-20.04
-24.38
-28.22
-30.87
-31.78
-30.66
-27.61
-23.06
-17.66
-12.14
-7.01
-2.56
1.21
4.50
7.55
10.51
13.33
15.82
17.74
18.97
19.61
19.94
20.27
20.80
21.44
21.91
21.93
21.40
20.41
19.20
18.01
16.90
15.77
14.42
12.68
10.52
8.05
5.45
2.92
0.59
-1.56
-3.65
-5.81
-8.18
-10.82
-13.69
-16.72
-19.80
-22.75
-25.32
-27.14
-27.83
-27.06
-24.74
-21.06
-16.47
-11.50
-6.66
-2.23
1.69
5.14
8.12
10.59
12.49
13.73
14.38
14.58
14.55
14.51
14.57
14.77
15.07
15.35
15.51
15.46
15.15
14.62
13.98
13.36
12.86
12.38
11.65
10.36
8.28
5.50
2.37
-0.60
-3.05
-4.90
-6.40
-7.95
-9.91
-12.40
-15.34
-18.48
-21.54
-24.22
-26.17
-27.00
-26.38
-24.14
-20.43
-15.68
-10.52
-5.53
-1.10
2.60
5.60
7.94
9.66
10.75
11.23
11.26
11.06
10.87
10.87
11.10
11.43
11.69
11.75
11.62
11.43
11.34
11.44
11.64
11.66
11.18
9.95
7.90
5.19
2.08
-1.06
-3.95
-6.43
-8.47
-10.25
-12.07
-14.31
-17.24
-20.83
-24.76
-28.31
-30.73
-31.35
-29.95
-26.74
-22.27
-17.20
-12.10
-7.32
-2.96
0.98
4.56
7.77
10.50
12.59
13.93
14.53
14.63
14.56
14.64
15.01
15.59
16.19
16.57
16.66
16.53
16.31
16.04
15.66
14.97
13.86
12.33
10.50
8.56
6.57
4.53
2.31
-0.16
-2.81
-5.50
-8.01
-10.23
-12.21
-14.14
-16.28
-18.86
-21.92
-25.27
-28.55
-31.29
-32.95
-33.14
-31.65
-28.53
-24.10
-18.88
-13.52
-8.47
-4.01
-0.13
3.36
6.57
9.54
12.08
14.00
15.18
15.67
15.68
15.44
15.07
14.63
14.10
13.54
13.13
13.10
13.59
14.54
15.62
16.36
16.31
15.22
13.11
10.30
7.23
4.32
1.82
-0.22
-1.92
-3.50
-5.16
-7.00
-9.10
-11.47
-14.20
-17.31
-20.72
-24.19
-27.24
-29.31
-29.90
-28.79
-26.11
-22.30
-17.90
-13.42
-9.16
-5.20
-1.56
1.72
4.54
6.72
8.19
9.01
9.41
9.63
9.95
10.47
11.17
11.91
12.54
12.92
12.93
12.55
11.82
10.87
9.88
9.00
8.25
7.54
6.61
5.29
3.49
1.34
-0.96
-3.20
-5.33
-7.44
-9.67
-12.16
-14.89
-17.79
-20.75
-23.66
-26.39
-28.72
-30.30
-30.67
-29.44
-26.48
-22.03
-16.67
-11.11
-5.94
-1.50
2.18
5.24
7.77
9.77
11.13
11.79
11.85
11.60
11.37
11.35
11.49
11.60
11.51
11.17
10.70
10.37
10.33
10.58
10.93
11.06
10.69
9.63
7.91
5.71
3.33
1.03
-1.01
-2.82
-4.56
-6.48
-8.76
-11.49
-14.56
-17.85
-21.30
-24.80
-28.16
-31.00
-32.76
-32.91
-31.21
-27.81
-23.33
-18.47
-13.81
-9.59
-5.76
-2.15
1.29
4.43
7.01
8.77
9.69
9.94
9.82
9.69
9.76
10.03
10.41
10.70
10.84
10.89
10.99
11.25
11.61
11.80
11.52
10.55
8.88
6.72
4.36
2.07
0.05
-1.62
-2.96
-4.05
-5.14
-6.53
-8.54
-11.28
-14.66
-18.27
-21.56
-23.97
-25.02
-24.42
-22.14
-18.43
-13.77
-8.79
-4.09
-0.11
3.00
5.29
6.91
8.06
8.94
9.73
10.59
11.56
12.55
13.30
13.51
13.04
12.01
10.73
9.51
8.57
7.89
7.30
6.62
5.76
4.75
3.63
2.42
1.02
-0.67
-2.72
-5.07
-7.58
-10.14
-12.75
-15.50
-18.53
-21.76
-24.87
-27.28
-28.28
-27.37
-24.45
-19.94
-14.63
-9.37
-4.77
-0.95
2.32
5.43
8.54
11.51
13.95
15.46
15.96
15.74
15.33
15.22
15.63
16.44
17.32
17.97
18.26
18.26
18.07
17.77
17.31
16.55
15.34
13.60
11.37
8.76
5.98
3.22
0.70
-1.43
-3.16
-4.65
-6.18
-8.05
-10.49
-13.54
-17.04
-20.68
-23.99
-26.50
-27.77
-27.51
-25.63
-22.28
-17.81
-12.77
-7.73
-3.13
0.74
3.86
6.36
8.49
10.44
12.27
13.93
15.25
16.07
16.36
16.32
16.27
16.55
17.23
18.13
18.79
18.78
17.92
16.40
14.65
13.08
11.81
10.65
9.30
7.54
5.51
3.58
2.18
1.48
1.32
1.27
0.90
-0.04
-1.58
-3.63
-6.05
-8.82
-11.93
-15.28
-18.61
-21.49
-23.45
-24.16
-23.43
-21.28
-17.92
-13.70
-9.07
-4.55
-0.56
2.68
5.21
7.23
8.94
10.41
11.55
12.26
12.59
12.73
13.03
13.66
14.63
15.67
16.46
16.82
16.74
16.38
15.88
15.31
14.58
13.66
12.55
11.37
10.27
9.33
8.51
7.63
6.51
5.03
3.24
1.31
-0.55
-2.19
-3.58
-4.82
-6.13
-7.80
-10.06
-12.96
-16.35
-19.78
-22.66
-24.41
-24.72
-23.57
-21.17
-17.96
-14.29
-10.47
-6.67
-3.01
0.37
3.36
5.80
7.51
8.44
8.64
8.34
7.88
7.58
7.66
8.05
8.48
8.60
8.16
7.12
5.73
4.34
3.26
2.64
2.44
2.46
2.47
2.30
1.88
1.18
0.24
-0.92
-2.29
-3.80
-5.31
-6.59
-7.45
-7.90
-8.28
-9.10
-10.91
-13.84
-17.53
-21.12
-23.62
-24.30
-22.99
-20.08
-16.28
-12.25
-8.39
-4.84
-1.65
1.11
3.26
4.69
5.42
5.67
5.77
6.06
6.69
7.64
8.72
9.71
10.45
10.87
11.01
10.93
10.70
10.37
10.02
9.75
9.64
9.65
9.63
9.34
8.56
7.26
5.62
3.93
2.48
1.37
0.49
-0.32
-1.21
-2.25
-3.42
-4.80
-6.55
-8.85
-11.87
-15.55
-19.71
-23.99
-28.00
-31.21
-33.12
-33.33
-31.67
-28.36
-23.99
-19.31
-14.98
-11.36
-8.45
-5.99
-3.65
-1.15
1.60
4.50
7.24
9.42
10.67
10.85
10.15
9.06
8.13
7.76
8.07
8.93
10.05
11.15
12.01
12.47
12.40
11.72
10.50
8.92
7.28
5.87
4.80
4.07
3.50
2.89
2.02
0.79
-0.84
-2.81
-4.96
-7.12
-9.21
-11.26
-13.42
-15.85
-18.59
-21.57
-24.57
-27.33
-29.60
-31.18
-31.87
-31.44
-29.79
-26.96
-23.18
-18.83
-14.32
-9.96
-5.91
-2.25
0.96
3.69
5.88
7.47
8.50
9.11
9.45
9.72
10.07
10.56
11.14
11.67
11.99
12.04
11.91
11.80
11.95
12.42
13.05
13.57
13.71
13.33
12.47
11.31
10.05
8.83
7.67
6.56
5.42
4.19
2.80
1.15
-0.84
-3.20
-5.81
-8.47
-10.93
-13.09
-15.04
-17.11
-19.63
-22.72
-26.19
-29.49
-31.96
-33.02
-32.44
-30.29
-26.89
-22.62
-17.84
-12.87
-8.05
-3.76
-0.28
2.24
3.84
4.74
5.25
5.65
6.12
6.76
7.57
8.55
9.63
10.77
11.88
12.81
13.43
13.63
13.43
12.94
12.36
11.88
11.61
11.51
11.39
11.01
10.10
8.46
6.06
3.08
-0.09
-2.99
-5.24
-6.77
-7.82
-8.86
-10.36
-12.61
-15.60
-19.06
-22.58
-25.66
-27.79
-28.51
-27.55
-24.86
-20.76
-15.80
-10.62
-5.78
-1.59
1.85
4.54
6.60
8.12
9.27
10.18
10.97
11.70
12.36
12.93
13.41
13.90
14.45
15.06
15.61
15.87
15.64
14.85
13.59
12.11
10.67
9.41
8.36
7.42
6.41
5.21
3.76
2.08
0.22
-1.73
-3.68
-5.57
-7.47
-9.53
-12.02
-15.19
-19.11
-23.57
-28.07
-31.89
-34.33
-34.87
-33.32
-29.82
-24.75
-18.67
-12.18
-5.88
-0.23
4.43
7.97
10.46
12.13
13.25
14.06
14.69
15.18
15.54
15.76
15.93
16.13
16.46
16.90
17.44
18.01
18.54
18.98
19.28
19.37
19.21
18.76
17.98
16.81
15.21
13.15
10.71
8.02
5.28
2.66
0.27
-1.91
-3.99
-6.16
-8.68
-11.79
-15.66
-20.25
-25.26
-30.02
-33.70
-35.54
-35.05
-32.24
-27.56
-21.73
-15.49
-9.43
-3.95
0.82
4.94
8.58
11.88
14.89
17.58
19.80
21.46
22.57
23.25
23.64
23.90
24.09
24.26
24.41
24.56
24.69
24.67
24.36
23.62
22.44
20.91
19.18
17.34
15.30
12.98
10.35
7.57
4.95
2.80
1.19
-0.08
-1.34
-2.98
-5.28
-8.32
-12.15
-16.71
-21.82
-27.07
-31.69
-34.68
-35.17
-32.77
-27.77
-21.12
-14.08
-7.77
-2.82
0.80
3.49
5.87
8.36
11.06
13.76
16.16
18.08
19.55
20.74
21.79
22.72
23.39
23.61
23.33
22.73
22.10
21.73
21.73
21.88
21.77
20.93
19.04
16.11
12.51
8.79
5.53
3.02
1.21
-0.26
-1.88
-4.06
-7.02
-10.80
-15.28
-20.14
-24.86
-28.72
-30.88
-30.73
-28.06
-23.29
-17.34
-11.22
-5.78
-1.39
1.97
4.55
6.65
8.38
9.82
10.87
11.51
11.76
11.76
11.70
11.80
12.12
12.65
13.23
13.75
14.11
14.26
14.19
13.82
13.10
11.97
10.42
8.50
6.22
3.58
0.55
-2.87
-6.63
-10.62
-14.75
-18.93
-22.99
-26.61
-29.27
-30.36
-29.50
-26.73
-22.46
-17.37
-12.02
-6.72
-1.49
3.72
8.87
13.72
17.91
21.08
22.99
23.60
23.08
21.80
20.24
18.90
18.14
18.07
18.54
19.19
19.66
19.71
19.21
18.14
16.43
14.06
11.06
7.60
4.04
0.77
-1.87
-3.82
-5.27
-6.68
-8.64
-11.67
-16.03
-21.57
-27.69
-33.39
-37.63
-39.50
-38.56
-34.93
-29.28
-22.54
-15.74
-9.61
-4.44
-0.07
3.94
7.98
12.19
16.33
19.93
22.59
24.21
25.07
25.55
25.95
26.29
26.38
26.04
25.28
24.34
23.55
23.07
22.77
22.33
21.41
19.76
17.43
14.60
11.52
8.43
5.50
2.79
0.35
-1.87
-3.98
-6.21
-8.91
-12.42
-16.96
-22.41
-28.19
-33.31
-36.64
-37.31
-34.98
-30.05
-23.43
-16.23
-9.34
-3.25
1.95
6.41
10.26
13.58
16.37
18.63
20.45
21.96
23.31
24.56
25.65
26.37
26.52
26.01
25.00
23.84
22.96
22.63
22.82
23.15
23.09
22.26
20.56
18.22
15.61
13.07
10.72
8.50
6.30
4.02
1.71
-0.51
-2.50
-4.19
-5.66
-7.19
-9.14
-11.88
-15.55
-19.94
-24.47
-28.32
-30.69
-31.08
-29.38
-25.93
-21.31
-16.12
-10.90
-5.93
-1.35
2.81
6.60
10.01
13.03
15.64
17.82
19.54
20.78
21.51
21.69
21.37
20.71
19.95
19.34
19.05
19.05
19.19
19.27
19.10
18.66
18.06
17.40
16.79
16.21
15.54
14.61
13.34
11.77
10.06
8.41
6.91
5.55
4.15
2.47
0.33
-2.34
-5.45
-8.84
-12.32
-15.70
-18.78
-21.29
-22.86
-23.13
-21.82
-18.90
-14.65
-9.66
-4.60
-0.04
3.69
6.58
8.80
10.57
12.02
13.16
13.90
14.25
14.31
14.26
14.31
14.56
14.92
15.20
15.17
14.69
13.76
12.59
11.49
10.72
10.40
10.37
10.25
9.60
8.17
5.97
3.35
0.74
-1.51
-3.31
-4.83
-6.36
-8.15
-10.36
-13.03
-16.17
-19.70
-23.38
-26.75
-29.18
-30.07
-29.13
-26.49
-22.65
-18.23
-13.76
-9.49
-5.46
-1.65
1.90
5.00
7.46
9.15
10.17
10.76
11.21
11.74
12.42
13.17
13.84
14.36
14.65
14.70
14.52
14.11
13.46
12.55
11.34
9.85
8.13
6.29
4.49
2.90
1.61
0.58
-0.35
-1.42
-2.86
-4.74
-6.98
-9.37
-11.64
-13.64
-15.35
-16.93
-18.64
-20.73
-23.32
-26.28
-29.21
-31.53
-32.62
-32.12
-30.00
-26.60
-22.50
-18.26
-14.21
-10.45
-6.91
-3.49
-0.33
2.34
4.23
5.21
5.43
5.27
5.19
5.44
6.02
6.67
7.04
6.95
6.50
6.00
5.82
6.17
6.91
7.66
8.00
7.67
6.74
5.55
4.50
3.76
3.26
2.71
1.81
0.41
-1.38
-3.36
-5.29
-6.99
-8.45
-9.70
-10.89
-12.13
-13.59
-15.43
-17.72
-20.42
-23.26
-25.81
-27.55
-28.07
-27.20
-25.06
-22.03
-18.57
-15.06
-11.66
-8.41
-5.29
-2.33
0.32
2.51
4.15
5.28
6.05
6.64
7.13
7.55
7.78
7.75
7.41
6.84
6.19
5.67
5.42
5.54
5.91
6.32
6.49
6.27
5.63
4.68
3.59
2.43
1.18
-0.23
-1.83
-3.56
-5.24
-6.72
-7.92
-8.89
-9.81
-10.90
-12.33
-14.19
-16.47
-19.04
-21.68
-24.12
-26.08
-27.24
-27.29
-26.01
-23.32
-19.46
-14.89
-10.27
-6.18
-2.94
-0.51
1.40
3.16
4.97
6.73
8.19
9.05
9.26
8.95
8.52
8.31
8.51
9.04
9.65
9.99
9.82
9.06
7.83
6.36
4.88
3.56
2.46
1.54
0.75
-0.03
-0.86
-1.88
-3.15
-4.75
-6.66
-8.77
-10.93
-12.95
-14.73
-16.24
-17.65
-19.19
-21.12
-23.58
-26.44
-29.27
-31.45
-32.34
-31.53
-29.04
-25.26
-20.85
-16.46
-12.56
-9.33
-6.74
-4.59
-2.65
-0.75
1.23
3.26
5.21
6.94
8.32
9.31
10.00
10.47
10.82
11.12
11.41
11.71
12.03
12.34
12.52
12.43
11.99
11.14
9.98
8.65
7.30
5.99
4.70
3.37
1.94
0.38
-1.37
-3.33
-5.50
-7.74
-9.87
-11.78
-13.55
-15.48
-18.03
-21.45
-25.64
-29.97
-33.57
-35.58
-35.55
-33.53
-29.98
-25.54
-20.77
-16.04
-11.62
-7.72
-4.46
-1.90
0.09
1.72
3.26
4.93
6.75
8.67
10.56
12.33
13.95
15.39
16.66
17.73
18.61
19.34
19.98
20.53
20.90
20.95
20.48
19.47
17.93
16.04
14.00
11.96
9.99
8.11
6.31
4.59
2.93
1.29
-0.43
-2.31
-4.42
-6.76
-9.32
-12.17
-15.46
-19.27
-23.46
-27.57
-30.78
-32.24
-31.37
-28.15
-23.12
-17.25
-11.47
-6.40
-2.25
1.15
4.02
6.57
8.88
10.96
12.78
14.36
15.69
16.76
17.54
17.99
18.17
18.18
18.13
18.10
18.05
17.91
17.58
17.02
16.29
15.47
14.58
13.62
12.53
11.29
9.93
8.54
7.16
5.74
4.16
2.25
-0.06
-2.72
-5.60
-8.54
-11.49
-14.43
-17.32
-19.90
-21.77
-22.43
-21.50
-18.90
-14.83
-9.75
-4.22
1.19
5.99
9.84
12.52
14.00
14.51
14.37
13.90
13.37
12.87
12.41
12.01
11.72
11.65
11.88
12.41
13.13
13.86
14.41
14.64
14.53
14.06
13.28
12.23
10.94
9.48
7.89
6.24
4.60
3.03
1.56
0.20
-1.09
-2.40
-3.86
-5.64
-7.89
-10.72
-14.11
-17.89
-21.68
-24.96
-27.21
-28.05
-27.36
-25.30
-22.18
-18.47
-14.53
-10.61
-6.84
-3.30
-0.00
2.97
5.57
7.70
9.31
10.44
11.18
11.71
12.19
12.77
13.48
14.28
15.12
15.96
16.83
17.75
18.66
19.38
19.63
19.20
18.04
16.25
14.06
11.74
9.48
7.40
5.55
3.94
2.51
1.16
-0.31
-2.08
-4.28
-6.86
-9.70
-12.70
-15.91
-19.51
-23.55
-27.86
-31.80
-34.50
-35.17
-33.46
-29.64
-24.46
-18.85
-13.46
-8.60
-4.22
-0.18
3.53
6.74
9.28
11.09
12.32
13.30
14.26
15.30
16.35
17.20
17.68
17.81
17.70
17.59
17.67
18.02
18.48
18.78
18.65
17.92
16.62
15.00
13.31
11.76
10.37
8.97
7.34
5.35
3.04
0.57
-1.84
-4.06
-6.07
-7.94
-9.79
-11.79
-14.16
-17.09
-20.71
-24.89
-29.15
-32.74
-34.82
-34.78
-32.43
-28.16
-22.66
-16.81
-11.30
-6.49
-2.45
1.00
4.01
6.71
9.10
11.15
12.76
13.87
14.49
14.70
14.65
14.47
14.32
14.34
14.58
15.06
15.70
16.38
16.91
17.14
16.95
16.32
15.34
14.16
12.93
11.75
10.57
9.22
7.46
5.14
2.30
-0.85
-3.99
-6.82
-9.24
-11.38
-13.52
-15.99
-19.00
-22.52
-26.29
-29.80
-32.44
-33.65
-33.04
-30.56
-26.49
-21.32
-15.70
-10.13
-5.01
-0.52
3.24
6.25
8.48
9.98
10.88
11.41
11.81
12.25
12.77
13.32
13.78
14.05
14.10
13.91
13.55
13.08
12.56
12.02
11.39
10.58
9.43
7.83
5.78
3.37
0.84
-1.55
-3.67
-5.46
-7.07
-8.71
-10.63
-12.99
-15.90
-19.31
-23.03
-26.70
-29.82
-31.88
-32.43
-31.21
-28.22
-23.78
-18.43
-12.80
-7.51
-2.98
0.62
3.31
5.29
6.81
8.06
9.17
10.22
11.21
12.12
12.89
13.40
13.55
13.27
12.56
11.55
10.47
9.60
9.17
9.26
9.73
10.13
9.90
8.59
6.05
2.54
-1.37
-5.07
-8.21
-10.82
-13.18
-15.65
-18.46
-21.67
-25.23
-28.93
-32.42
-35.20
-36.57
-35.95
-33.08
-28.26
-22.24
-15.94
-10.11
-5.04
-0.74
2.96
6.08
8.57
10.30
11.34
11.96
12.53
13.30
14.29
15.25
15.88
16.03
15.73
15.25
14.87
14.77
14.91
15.14
15.17
14.74
13.73
12.11
10.01
7.63
5.17
2.79
0.52
-1.77
-4.29
-7.28
-10.90
-15.14
-19.87
-24.72
-29.18
-32.62
-34.47
-34.32
-32.12
-28.14
-22.96
-17.28
-11.63
-6.33
-1.40
3.22
7.58
11.55
14.88
17.37
19.11
20.38
21.62
23.11
24.79
26.31
27.23
27.26
26.52
25.47
24.57
24.12
24.05
23.99
23.46
22.03
19.54
16.12
12.13
8.10
4.54
1.82
-0.03
-1.26
-2.39
-3.94
-6.32
-9.79
-14.28
-19.45
-24.60
-28.83
-31.09
-30.65
-27.31
-21.58
-14.45
-7.08
-0.34
5.25
9.63
12.97
15.50
17.48
19.14
20.73
22.41
24.19
25.92
27.34
28.23
28.45
28.08
27.28
26.29
25.32
24.51
23.91
23.45
22.94
22.13
20.75
18.64
15.75
12.23
8.34
4.44
0.85
-2.30
-5.13
-7.96
-11.10
-14.61
-18.19
-21.19
-22.88
-22.75
-20.66
-16.90
-11.99
-6.47
-0.80
4.68
9.74
14.19
17.86
20.66
22.54
23.52
23.68
23.22
22.38
21.48
20.79
20.41
20.29
20.28
20.23
20.07
19.81
19.44
18.88
18.01
16.71
14.99
13.02
10.97
9.02
7.17
5.31
3.29
0.92
-1.94
-5.37
-9.41
-13.91
-18.48
-22.55
-25.49
-26.74
-26.08
-23.64
-19.81
-15.18
-10.30
-5.57
-1.25
2.62
6.09
9.21
12.00
14.43
16.40
17.84
18.73
19.15
19.24
19.12
18.87
18.54
18.16
17.82
17.58
17.47
17.43
17.30
16.94
16.18
14.92
13.13
10.88
8.28
5.52
2.76
0.17
-2.16
-4.23
-6.12
-8.03
-10.21
-12.98
-16.52
-20.80
-25.36
-29.40
-31.99
-32.38
-30.39
-26.47
-21.47
-16.31
-11.50
-7.17
-3.10
0.90
4.80
8.31
11.07
12.89
13.89
14.43
14.84
15.25
15.55
15.51
14.98
14.00
12.80
11.65
10.71
9.99
9.39
8.81
8.25
7.71
7.23
6.74
6.13
5.23
3.93
2.24
0.27
-1.76
-3.59
-4.99
-5.87
-6.36
-6.81
-7.74
-9.58
-12.55
-16.45
-20.73
-24.62
-27.39
-28.56
-27.98
-25.84
-22.52
-18.48
-14.16
-9.93
-6.03
-2.59
0.40
3.03
5.46
7.82
10.12
12.33
14.29
15.87
16.93
17.40
17.29
16.67
15.73
14.67
13.75
13.12
12.82
12.68
12.45
11.88
10.84
9.43
7.91
6.54
5.52
4.86
4.38
3.86
3.07
1.87
0.22
-1.83
-4.18
-6.72
-9.32
-11.95
-14.59
-17.21
-19.73
-21.87
-23.26
-23.52
-22.52
-20.39
-17.57
-14.50
-11.49
-8.57
-5.59
-2.41
0.90
4.08
6.73
8.59
9.60
9.98
10.09
10.24
10.59
11.10
11.61
11.95
12.01
11.76
11.23
10.47
9.55
8.50
7.34
6.08
4.75
3.39
2.05
0.79
-0.34
-1.31
-2.15
-2.96
-3.85
-4.93
-6.28
-7.88
-9.69
-11.62
-13.66
-15.78
-17.91
-19.82
-21.20
-21.66
-20.99
-19.19
-16.54
-13.44
-10.29
-7.36
-4.72
-2.39
-0.32
1.40
2.67
3.41
3.63
3.50
3.28
3.27
3.65
4.48
5.63
6.83
7.84
8.55
8.91
8.97
8.77
8.34
7.68
6.83
5.82
4.74
3.59
2.38
1.10
-0.27
-1.71
-3.20
-4.71
-6.26
-7.86
-9.54
-11.29
-13.08
-14.83
-16.44
-17.76
-18.64
-19.00
-18.80
-18.18
-17.29
-16.29
-15.19
-13.90
-12.23
-10.07
-7.41
-4.44
-1.42
1.31
3.48
4.89
5.49
5.39
4.81
4.01
3.25
2.69
2.42
2.43
2.69
3.10
3.55
3.88
3.92
3.59
2.86
1.81
0.55
-0.77
-2.02
-3.16
-4.14
-4.97
-5.66
-6.27
-6.88
-7.61
-8.58
-9.91
-11.66
-13.77
-16.03
-18.11
-19.60
-20.17
-19.73
-18.37
-16.42
-14.23
-12.01
-9.80
-7.51
-5.10
-2.58
-0.16
1.90
3.42
4.37
4.87
5.15
5.37
5.57
5.62
5.36
4.69
3.66
2.45
1.23
0.16
-0.77
-1.59
-2.37
-3.14
-3.91
-4.67
-5.46
-6.28
-7.09
-7.86
-8.59
-9.35
-10.35
-11.76
-13.70
-16.10
-18.79
-21.47
-23.87
-25.75
-26.90
-27.17
-26.50
-24.91
-22.59
-19.79
-16.74
-13.58
-10.26
-6.69
-2.86
1.08
4.78
7.78
9.76
10.60
10.50
9.84
9.00
8.27
7.76
7.44
7.25
7.18
7.21
7.30
7.28
6.97
6.17
4.80
2.98
0.91
-1.24
-3.36
-5.49
-7.78
-10.42
-13.54
-17.17
-21.18
-25.25
-28.92
-31.76
-33.45
-33.84
-33.06
-31.39
-29.17
-26.70
-24.18
-21.65
-19.01
-16.07
-12.66
-8.76
-4.51
-0.30
3.41
6.28
8.21
9.37
10.08
10.60
11.06
11.38
11.42
11.06
10.30
9.22
7.96
6.67
5.42
4.26
3.17
2.16
1.25
0.44
-0.33
-1.14
-2.17
-3.63
-5.68
-8.33
-11.36
-14.33
-16.71
-18.05
-18.12
-17.00
-14.98
-12.38
-9.46
-6.33
-2.96
0.65
4.43
8.21
11.72
14.65
16.85
18.25
18.95
19.12
18.92
18.55
18.12
17.75
17.50
17.37
17.31
17.24
17.09
16.80
16.41
15.95
15.39
14.69
13.77
12.55
11.01
9.20
7.09
4.66
1.88
-1.21
-4.44
-7.57
-10.42
-12.96
-15.33
-17.65
-19.82
-21.49
-22.13
-21.31
-18.88
-15.12
-10.63
-6.05
-1.86
1.79
4.98
7.94
10.91
14.02
17.32
20.74
24.12
27.27
29.97
32.05
33.42
34.16
34.47
34.66
35.03
35.79
36.91
38.10
38.87
38.74
37.38
34.78
31.25
27.26
23.22
19.34
15.56
11.72
7.72
3.63
-0.33
-3.91
-6.99
-9.59
-11.81
-13.69
-15.13
-15.94
-15.95
-15.08
-13.49
-11.41
-9.13
-6.97
-5.17
-3.87
-3.05
-2.53
-2.00
-1.19
0.02
1.47
2.78
3.58
3.74
3.43
3.01
2.85
2.96
2.96
2.21
0.14
-3.47
-8.36
-13.87
-19.22
-23.86
-27.68
-31.06
-34.86
-40.25
-48.44
-60.41
-76.39
-95.62
-116.19
-135.47
-150.79
-160.32
-163.61
-161.52
-155.79
-148.09
-139.50
-130.33
-120.35
-109.32
-97.24
-84.44
-71.42
-58.54
-45.95
-33.40
-20.42
-6.50
8.58
24.40
39.72
52.85
62.28
67.51
69.52
70.54
73.20
79.26
88.73
99.78
109.55
115.49
116.37
112.77
106.56
100.21
95.84
94.77
97.44
103.48
111.91
121.38
130.27
137.09
140.65
140.34
136.20
128.97
119.96
110.89
103.23
97.44
92.18
84.34
70.32
48.12
19.28
-10.74
-34.30
-44.82
-39.65
-21.27
3.89
28.32
46.07
53.93
50.95
37.30
13.76
-17.69
-52.77
-84.64
-105.34
-108.60
-92.78
-62.17
-25.75
6.10
25.47
29.55
21.05
6.42
-7.01
-13.61
-10.77
1.14
19.72
41.51
62.78
79.95
90.12
91.85
85.94
75.62
65.75
60.95
63.57
72.54
83.85
92.60
95.31
91.42
83.04
73.18
63.79
54.79
44.42
30.64
12.53
-9.22
-32.71
-55.74
-76.51
-93.85
-107.03
-115.71
-119.98
-120.51
-118.53
-115.43
-112.05
-108.30
-103.22
-95.29
-83.25
-66.68
-46.31
-23.93
-1.96
17.21
31.83
41.16
45.66
46.73
46.14
45.43
45.50
46.39
47.60
48.46
48.62
48.42
48.85
51.18
56.21
63.61
71.48
76.77
76.18
67.49
50.56
27.43
1.45
-23.98
-46.55
-65.33
-80.28
-91.46
-98.51
-100.97
-99.03
-94.16
-88.99
-86.37
-88.03
-93.63
-100.75
-105.91
-106.07
-99.75
-87.39
-70.82
-52.34
-33.83
-16.47
-0.82
12.84
24.23
33.04
39.09
42.35
42.81
40.48
35.41
27.91
18.84
9.57
1.77
-3.20
-4.78
-3.42
-0.24
3.54
6.95
9.62
11.53
12.74
13.17
12.60
10.84
7.93
4.14
-0.08
-4.26
-8.12
-11.51
-14.52
-17.30
-20.00
-22.66
-25.28
-27.73
-29.89
-31.66
-32.96
-33.88
-34.59
-35.34
-36.35
-37.63
-38.96
-39.91
-40.05
-39.22
-37.61
-35.67
-33.95
-32.79
-32.24
-31.98
-31.53
-30.34
-28.00
-24.25
-19.03
-12.54
-5.13
2.70
10.38
17.27
22.77
26.38
27.81
27.06
24.44
20.48
15.83
