1520269492.00
64.000000
-0.00
-0.00
-0.00
-0.00
-0.00
-0.00
-0.00
-0.00
-0.00
-0.00
0.00
0.01
0.01
-0.00
-0.03
-0.05
-0.05
0.00
0.13
0.36
0.66
1.01
1.37
1.72
2.06
2.40
2.79
3.24
3.80
4.42
5.06
5.66
6.20
6.68
7.15
7.68
8.31
9.14
10.09
11.04
11.88
12.56
13.14
13.76
14.65
15.96
17.91
20.32
22.90
25.38
27.58
29.57
31.68
34.32
37.81
42.54
48.15
54.10
59.83
64.97
69.58
74.14
79.34
85.71
93.76
103.00
112.62
121.73
129.77
136.75
143.30
150.74
157.79
166.68
178.00
191.83
206.96
220.47
228.03
225.01
208.08
176.35
132.23
79.53
22.56
-35.48
-93.05
-149.89
-206.08
-261.32
-314.72
-364.83
-410.75
-451.83
-487.52
-516.97
-538.75
-551.05
-552.01
-540.49
-516.25
-480.60
-435.81
-384.65
-329.79
-273.42
-217.06
-161.73
-108.29
-57.63
-10.95
30.54
65.88
94.68
117.21
134.39
147.37
157.18
164.43
169.13
171.02
169.79
165.53
158.80
150.62
142.02
133.80
126.23
119.04
111.74
103.80
94.82
84.54
72.90
60.39
48.33
38.91
34.56
36.97
46.08
59.68
74.10
85.62
91.86
92.48
88.98
83.22
76.66
69.88
62.96
55.96
49.34
43.84
40.03
37.93
36.87
35.92
34.18
31.24
27.26
22.82
18.62
15.20
12.76
11.11
9.87
8.65
7.16
5.41
3.54
1.83
0.57
-0.15
-0.50
-0.78
-1.26
-1.92
-2.46
-2.45
-1.59
-0.08
1.48
2.35
2.02
0.51
-1.65
-3.75
-5.28
-6.11
-6.42
-6.48
-6.44
-6.26
-5.87
-5.30
-4.72
-4.38
-4.41
-4.81
-5.42
-5.94
-6.15
-5.89
-5.11
-3.90
-2.44
-0.98
0.24
1.06
1.50
1.70
1.87
2.16
2.56
2.97
3.19
3.15
2.84
2.45
2.14
2.06
2.30
2.84
3.60
4.50
5.46
6.40
7.28
8.13
8.93
9.70
10.36
10.82
10.93
10.58
9.67
8.21
6.32
4.06
1.56
-0.98
-3.39
-5.55
-7.37
-8.85
-10.02
-10.92
-11.63
-12.18
-12.59
-12.86
-12.94
-12.76
-12.20
-11.20
-9.76
-8.03
-6.26
-4.73
-3.63
-3.04
-2.88
-2.95
-3.07
-3.12
-3.10
-3.04
-2.99
-3.00
-3.03
-3.02
-2.89
-2.63
-2.28
-1.92
-1.62
-1.44
-1.33
-1.26
-1.20
-1.18
-1.25
-1.49
-1.87
-2.32
-2.68
-2.86
-2.81
-2.60
-2.36
-2.19
-2.12
-2.16
-2.31
-2.55
-2.90
-3.34
-3.81
-4.19
-4.33
-4.14
-3.52
-2.50
-1.17
0.31
1.84
3.32
4.66
5.82
6.71
7.30
7.59
7.65
7.55
7.33
6.97
6.40
5.58
4.57
3.52
2.60
1.92
1.50
1.24
0.99
0.67
0.26
-0.22
-0.74
-1.34
-2.19
-3.42
-5.18
-7.49
-10.27
-13.33
-16.45
-19.34
-21.76
-23.47
-24.32
-24.26
-23.33
-21.70
-19.60
-17.21
-14.64
-11.84
-8.72
-5.16
-1.15
3.19
7.63
11.84
15.48
18.27
20.07
20.88
20.88
20.32
19.54
18.78
18.17
17.73
17.36
16.91
16.33
15.59
14.77
13.96
13.18
12.41
11.57
10.61
9.52
8.36
7.22
6.17
5.22
4.32
3.41
2.46
1.48
0.54
-0.33
-1.08
-1.75
-2.40
-3.13
-4.02
-5.09
-6.34
-7.68
-9.00
-10.17
-11.09
-11.69
-11.90
-11.68
-10.97
-9.73
-8.01
-5.90
-3.61
-1.38
0.62
2.32
3.78
5.05
6.21
7.22
7.97
8.38
8.44
8.22
7.85
7.44
6.98
6.43
5.75
4.95
4.12
3.41
2.90
2.58
2.34
1.99
1.40
0.53
-0.52
-1.59
-2.51
-3.20
-3.71
-4.16
-4.73
-5.51
-6.49
-7.57
-8.65
-9.61
-10.42
-11.09
-11.68
-12.25
-12.83
-13.39
-13.82
-13.93
-13.55
-12.56
-10.99
-8.98
-6.74
-4.43
-2.14
0.11
2.28
4.31
6.04
7.34
8.13
8.47
8.51
8.43
8.37
8.37
8.38
8.30
8.05
7.63
7.11
6.64
6.32
6.20
6.20
6.21
6.09
5.81
5.36
4.81
4.21
3.55
2.77
1.81
0.65
-0.67
-2.05
-3.40
-4.64
-5.76
-6.76
-7.68
-8.55
-9.41
-10.26
-11.04
-11.64
-11.90
-11.69
-10.92
-9.63
-7.93
-5.99
-3.92
-1.78
0.41
2.58
4.59
6.20
7.19
7.48
7.20
6.63
6.09
5.79
5.72
5.76
5.69
5.43
5.03
4.67
4.52
4.66
4.99
5.31
5.39
5.10
4.43
3.48
2.40
1.29
0.19
-0.94
-2.15
-3.46
-4.84
-6.23
-7.55
-8.75
-9.80
-10.61
-11.06
-10.94
-10.08
-8.40
-6.05
-3.34
-0.69
1.55
3.22
4.37
5.19
5.84
6.38
6.75
6.88
6.72
6.40
6.13
6.10
6.41
6.98
7.58
7.95
7.94
7.56
6.99
6.44
6.05
5.77
5.39
4.71
3.62
2.24
0.81
-0.45
-1.43
-2.20
-2.93
-3.71
-4.60
-5.54
-6.54
-7.68
-9.06
-10.67
-12.33
-13.67
-14.28
-13.87
-12.37
-9.99
-7.10
-4.11
-1.35
0.96
2.75
4.03
4.87
5.37
5.62
5.71
5.72
5.73
5.82
6.04
6.37
6.71
6.95
6.97
6.74
6.28
5.67
4.99
4.31
3.68
3.10
2.58
2.13
1.74
1.37
0.92
0.32
-0.49
-1.48
-2.59
-3.72
-4.87
-6.08
-7.46
-9.06
-10.85
-12.65
-14.22
-15.28
-15.64
-15.19
-13.95
-12.00
-9.51
-6.70
-3.81
-1.08
1.31
3.26
4.78
5.90
6.66
7.09
7.23
7.12
6.87
6.58
6.37
6.30
6.38
6.58
6.82
7.01
7.09
6.96
6.60
6.01
5.25
4.40
3.54
2.68
1.79
0.78
-0.43
-1.89
-3.58
-5.44
-7.36
-9.30
-11.22
-13.11
-15.02
-17.03
-19.22
-21.65
-24.34
-27.14
-29.82
-32.06
-33.59
-34.28
-34.17
-33.48
-32.49
-31.49
-30.67
-30.15
-29.92
-29.95
-30.10
-30.22
-30.15
-29.78
-29.05
-27.97
-26.53
-24.72
-22.43
-19.56
-16.00
-11.73
-6.82
-1.37
4.48
10.58
16.84
23.16
29.44
35.61
41.64
47.52
53.30
58.96
64.49
69.79
74.76
79.31
83.44
87.22
90.70
93.86
96.52
98.40
99.20
98.77
97.23
94.88
92.06
89.01
85.67
81.78
76.94
70.86
63.42
54.85
45.60
36.31
27.69
20.38
14.86
11.32
9.69
9.60
10.57
12.05
13.64
15.07
16.27
17.31
18.26
19.13
19.78
19.94
19.30
17.65
15.02
11.64
7.87
3.96
0.01
-4.10
-8.57
-13.54
-18.95
-24.58
-30.15
-35.39
-40.18
-44.53
-48.54
-52.33
-56.03
-59.70
-63.38
-67.11
-70.87
-74.53
-77.91
-80.75
-82.89
-84.40
-85.73
-87.58
-90.58
-94.92
-100.13
-105.14
-108.74
-110.11
-109.10
-106.22
-102.29
-97.94
-93.40
-88.50
-82.94
-76.56
-69.51
-62.19
-55.05
-48.39
-42.31
-36.65
-31.25
-25.96
-20.78
-15.85
-11.35
-7.42
-4.05
-1.15
1.41
3.67
5.57
7.01
7.91
8.34
8.51
8.67
9.05
9.78
10.86
12.15
13.47
14.59
15.36
15.74
15.84
15.86
16.02
16.43
17.04
17.71
18.27
18.64
18.79
18.70
18.26
17.23
15.29
12.22
8.03
3.10
-1.89
-6.00
-8.31
-8.01
-4.64
1.64
9.98
18.79
26.12
30.20
30.05
25.84
18.77
10.59
2.87
-3.44
-8.20
-11.72
-14.45
-16.59
-18.11
-18.87
-18.85
-18.16
-16.88
-14.89
-11.72
-6.74
0.59
10.36
22.08
34.69
46.99
57.89
66.79
73.52
78.24
81.14
82.32
81.75
79.45
75.66
70.92
65.91
61.28
57.40
54.27
51.63
49.15
46.61
43.95
41.30
38.81
36.61
34.80
33.42
32.47
31.91
31.62
31.37
30.90
29.99
28.58
26.77
24.82
23.07
21.85
21.43
21.96
23.43
25.67
28.37
31.17
33.76
35.99
37.86
39.47
40.94
42.31
43.48
44.24
44.28
43.26
40.89
37.00
31.56
24.72
16.94
8.88
1.31
-5.05
-9.84
-13.18
-15.65
-18.00
-20.92
-24.72
-29.32
-34.31
-39.23
-43.67
-47.31
-49.86
-51.00
-50.40
-47.83
-43.37
-37.41
-30.60
-23.69
-17.41
-12.28
-8.57
-6.31
-5.29
-5.10
-5.27
-5.26
-4.63
-3.13
-0.69
2.49
6.06
9.51
12.33
14.06
14.37
13.19
10.69
7.29
3.51
-0.15
-3.38
-6.08
-8.30
-10.12
-11.56
-12.57
-13.04
-12.98
-12.48
-11.69
-10.77
-9.82
-8.94
-8.23
-7.84
-7.90
-8.41
-9.25
-10.22
-11.15
-12.08
-13.19
-14.71
-16.75
-19.17
-21.68
-23.96
-25.82
-27.27
-28.38
-29.24
-29.78
-29.85
-29.32
-28.19
-26.66
-25.05
-23.65
-22.58
-21.78
-21.01
-20.06
-18.82
-17.36
-15.87
-14.53
-13.45
-12.64
-12.04
-11.63
-11.40
-11.37
-11.52
-11.80
-12.11
-12.41
-12.70
-13.04
-13.48
-14.00
-14.54
-14.99
-15.29
-15.40
-15.38
-15.32
-15.33
-15.48
-15.80
-16.19
-16.51
-16.55
-16.14
-15.21
-13.78
-11.96
-9.89
-7.76
-5.68
-3.77
-2.12
-0.75
0.36
1.26
2.00
2.61
3.08
3.40
3.55
3.56
3.48
3.39
3.36
3.43
3.57
3.73
3.81
3.73
3.43
2.95
2.33
1.61
0.82
-0.04
-0.91
-1.71
-2.33
-2.66
-2.77
-2.84
-3.16
-3.92
-5.16
-6.74
-8.40
-9.85
-10.87
-11.27
-10.93
-9.82
-8.04
-5.90
-3.82
-2.18
-1.20
-0.81
-0.77
-0.77
-0.66
-0.48
-0.37
-0.40
-0.54
-0.64
-0.64
-0.62
-0.75
-1.24
-2.14
-3.29
-4.43
-5.34
-5.94
-6.31
-6.58
-6.87
-7.22
-7.57
-7.88
-8.11
-8.25
-8.33
-8.42
-8.60
-8.93
-9.44
-10.04
-10.53
-10.62
-10.10
-8.90
-7.20
-5.30
-3.55
-2.12
-1.01
-0.06
0.91
1.95
2.96
3.74
4.12
4.06
3.72
3.31
3.08
3.10
3.30
3.50
3.49
3.18
2.61
1.92
1.32
0.93
0.78
0.76
0.72
0.50
0.06
-0.57
-1.33
-2.18
-3.16
-4.35
-5.78
-7.36
-8.88
-10.00
-10.46
-10.14
-9.10
-7.50
-5.54
-3.41
-1.22
0.92
2.85
4.41
5.40
5.77
5.59
5.06
4.47
4.02
3.79
3.72
3.68
3.57
3.40
3.20
3.05
2.95
2.85
2.65
2.27
1.67
0.88
-0.04
-1.02
-1.95
-2.76
-3.42
-4.00
-4.64
-5.47
-6.56
-7.85
-9.14
-10.18
-10.72
-10.60
-9.75
-8.18
-6.03
-3.47
-0.74
1.90
4.24
6.06
7.25
7.79
7.72
7.20
6.46
5.74
5.20
4.89
4.75
4.61
4.38
4.01
3.58
3.19
2.90
2.71
2.57
2.42
2.20
1.92
1.54
1.03
0.31
-0.65
-1.77
-2.95
-4.08
-5.08
-5.98
-6.81
-7.55
-8.06
-8.08
-7.37
-5.83
-3.58
-0.92
1.74
4.04
5.77
6.85
7.35
7.41
7.18
6.76
6.26
5.69
5.09
4.50
3.99
3.60
3.38
3.31
3.32
3.28
3.08
2.60
1.85
0.92
-0.02
-0.79
-1.26
-1.40
-1.33
-1.27
-1.47
-2.05
-3.02
-4.21
-5.40
-6.32
-6.84
-6.84
-6.31
-5.23
-3.63
-1.61
0.64
2.80
4.60
5.81
6.44
6.68
6.76
6.88
7.07
7.22
7.19
6.87
6.30
5.58
4.84
4.14
3.52
2.97
2.49
2.09
1.75
1.46
1.17
0.81
0.36
-0.20
-0.90
-1.74
-2.74
-3.84
-4.94
-5.91
-6.68
-7.29
-7.86
-8.49
-9.15
-9.65
-9.65
-8.88
-7.26
-4.97
-2.39
0.06
2.09
3.60
4.66
5.40
5.91
6.21
6.28
6.12
5.84
5.56
5.41
5.42
5.50
5.52
5.31
4.80
4.04
3.14
2.31
1.72
1.46
1.53
1.81
2.06
2.07
1.66
0.81
-0.36
-1.63
-2.76
-3.62
-4.20
-4.65
-5.14
-5.84
-6.79
-7.91
-9.02
-9.87
-10.24
-9.90
-8.76
-6.86
-4.38
-1.62
1.08
3.41
5.22
6.46
7.23
7.70
8.04
8.32
8.56
8.64
8.45
7.93
7.08
6.00
4.88
3.88
3.09
2.56
2.25
2.12
2.10
2.16
2.26
2.34
2.34
2.14
1.67
0.91
-0.10
-1.22
-2.30
-3.21
-3.88
-4.32
-4.60
-4.81
-5.03
-5.33
-5.79
-6.44
-7.29
-8.23
-9.03
-9.43
-9.18
-8.17
-6.52
-4.44
-2.23
-0.14
1.69
3.23
4.48
5.43
6.10
6.47
6.60
6.56
6.44
6.29
6.11
5.85
5.47
4.96
4.37
3.80
3.33
2.99
2.77
2.65
2.63
2.72
2.87
3.02
3.02
2.75
2.13
1.23
0.18
-0.81
-1.60
-2.16
-2.57
-2.99
-3.56
-4.32
-5.20
-6.07
-6.82
-7.37
-7.71
-7.86
-7.79
-7.43
-6.66
-5.41
-3.75
-1.83
0.09
1.76
3.00
3.78
4.17
4.32
4.36
4.37
4.37
4.36
4.29
4.16
3.95
3.68
3.39
3.14
2.97
2.93
3.01
3.15
3.24
3.19
2.93
2.44
1.76
0.96
0.09
-0.77
-1.58
-2.26
-2.73
-2.95
-2.95
-2.84
-2.83
-3.09
-3.73
-4.67
-5.68
-6.40
-6.51
-5.84
-4.41
-2.46
-0.29
1.82
3.65
5.11
6.15
6.74
6.89
6.60
5.93
4.99
3.93
2.90
2.04
1.40
1.00
0.84
0.85
1.01
1.25
1.49
1.65
1.62
1.32
0.72
-0.11
-1.00
-1.79
-2.36
-2.73
-3.00
-3.32
-3.84
-4.59
-5.54
-6.59
-7.60
-8.45
-8.96
-8.96
-8.35
-7.09
-5.26
-3.09
-0.89
1.06
2.53
3.45
3.84
3.84
3.62
3.32
3.08
2.96
2.97
3.06
3.16
3.20
3.11
2.88
2.56
2.23
1.98
1.85
1.85
1.90
1.92
1.83
1.56
1.09
0.45
-0.28
-1.01
-1.69
-2.29
-2.93
-3.74
-4.83
-6.19
-7.65
-8.92
-9.71
-9.79
-9.06
-7.57
-5.47
-2.98
-0.34
2.18
4.32
5.92
6.91
7.34
7.34
7.04
6.57
6.05
5.56
5.19
4.96
4.82
4.65
4.33
3.77
3.03
2.25
1.60
1.20
1.03
0.95
0.78
0.35
-0.36
-1.27
-2.25
-3.20
-4.05
-4.85
-5.66
-6.55
-7.59
-8.82
-10.20
-11.62
-12.84
-13.54
-13.39
-12.22
-10.14
-7.46
-4.64
-2.06
0.09
1.86
3.37
4.73
5.90
6.75
7.16
7.14
6.83
6.46
6.17
5.98
5.82
5.59
5.27
4.91
4.61
4.41
4.28
4.17
4.03
3.85
3.60
3.26
2.76
2.03
1.06
-0.07
-1.26
-2.42
-3.60
-4.88
-6.38
-8.10
-9.91
-11.56
-12.79
-13.39
-13.23
-12.30
-10.69
-8.56
-6.09
-3.50
-0.99
1.31
3.31
4.98
6.35
7.44
8.22
8.65
8.72
8.47
8.01
7.52
7.17
7.02
7.02
7.00
6.80
6.36
5.77
5.21
4.86
4.74
4.74
4.61
4.16
3.35
2.30
1.25
0.42
-0.18
-0.65
-1.21
-2.06
-3.27
-4.80
-6.54
-8.34
-10.02
-11.37
-12.12
-12.02
-10.94
-8.95
-6.33
-3.46
-0.72
1.63
3.50
4.94
6.05
6.97
7.76
8.46
9.00
9.32
9.34
9.03
8.45
7.74
7.06
6.58
6.32
6.23
6.17
6.07
5.92
5.76
5.62
5.46
5.21
4.76
4.10
3.31
2.50
1.74
0.97
0.05
-1.15
-2.66
-4.38
-6.13
-7.72
-9.06
-10.09
-10.75
-10.93
-10.47
-9.21
-7.12
-4.34
-1.19
1.93
4.65
6.70
8.01
8.68
8.87
8.77
8.46
8.01
7.44
6.84
6.34
6.07
6.12
6.44
6.86
7.18
7.25
7.01
6.52
5.85
5.10
4.28
3.41
2.46
1.43
0.38
-0.67
-1.64
-2.56
-3.47
-4.49
-5.71
-7.16
-8.72
-10.12
-10.97
-10.93
-9.84
-7.80
-5.09
-2.14
0.73
3.27
5.35
6.92
7.94
8.41
8.41
8.08
7.60
7.11
6.66
6.24
5.78
5.28
4.81
4.47
4.32
4.34
4.40
4.35
4.11
3.64
2.96
2.13
1.16
0.10
-1.02
-2.14
-3.17
-4.06
-4.81
-5.52
-6.29
-7.25
-8.47
-9.84
-11.14
-12.02
-12.13
-11.24
-9.31
-6.55
-3.35
-0.18
2.58
4.75
6.31
7.37
8.03
8.32
8.26
7.89
7.36
6.93
6.78
6.97
7.38
7.72
7.74
7.34
6.61
5.77
5.05
4.58
4.33
4.14
3.81
3.16
2.14
0.80
-0.69
-2.14
-3.39
-4.44
-5.35
-6.31
-7.46
-8.84
-10.36
-11.78
-12.84
-13.27
-12.95
-11.85
-10.09
-7.80
-5.14
-2.29
0.61
3.37
5.80
7.73
9.00
9.58
9.55
9.10
8.50
7.96
7.63
7.55
7.67
7.91
8.18
8.41
8.55
8.54
8.32
7.88
7.24
6.47
5.67
4.92
4.26
3.66
3.06
2.36
1.51
0.52
-0.54
-1.61
-2.68
-3.82
-5.15
-6.76
-8.59
-10.40
-11.94
-13.01
-13.55
-13.63
-13.33
-12.61
-11.31
-9.29
-6.57
-3.43
-0.27
2.52
4.75
6.43
7.71
8.68
9.35
9.65
9.55
9.09
8.43
7.78
7.34
7.25
7.54
8.14
8.86
9.45
9.71
9.52
8.90
8.04
7.12
6.29
5.60
5.05
4.55
4.02
3.37
2.53
1.45
0.17
-1.17
-2.40
-3.40
-4.22
-4.99
-5.90
-7.06
-8.41
-9.80
-11.05
-12.04
-12.67
-12.86
-12.47
-11.37
-9.48
-6.93
-4.03
-1.18
1.24
3.05
4.27
5.08
5.66
6.11
6.44
6.62
6.68
6.66
6.71
6.89
7.23
7.61
7.89
7.94
7.73
7.34
6.95
6.69
6.61
6.66
6.66
6.46
5.98
5.19
4.20
3.09
1.96
0.82
-0.28
-1.35
-2.39
-3.39
-4.38
-5.39
-6.44
-7.49
-8.49
-9.34
-9.99
-10.38
-10.44
-10.08
-9.24
-7.88
-6.06
-3.96
-1.82
0.16
1.89
3.39
4.76
6.00
7.00
7.56
7.52
6.93
6.02
5.17
4.65
4.55
4.72
4.90
4.90
4.67
4.31
3.99
3.78
3.68
3.60
3.45
3.20
2.81
2.33
1.74
1.06
0.29
-0.55
-1.45
-2.36
-3.24
-4.03
-4.69
-5.24
-5.78
-6.45
-7.39
-8.59
-9.85
-10.86
-11.26
-10.85
-9.58
-7.65
-5.35
-2.99
-0.81
1.11
2.76
4.19
5.40
6.36
7.01
7.29
7.24
6.94
6.53
6.08
5.63
5.15
4.62
4.06
3.56
3.25
3.19
3.34
3.60
3.77
3.73
3.41
2.83
2.08
1.28
0.52
-0.18
-0.84
-1.51
-2.28
-3.16
-4.12
-5.08
-5.93
-6.61
-7.18
-7.78
-8.59
-9.72
-11.10
-12.48
-13.52
-13.85
-13.29
-11.86
-9.75
-7.23
-4.56
-1.95
0.44
2.51
4.13
5.26
5.92
6.22
6.36
6.46
6.56
6.57
6.39
5.99
5.45
4.96
4.70
4.76
5.06
5.39
5.51
5.27
4.62
3.72
2.76
1.97
1.42
1.11
0.93
0.74
0.43
-0.05
-0.72
-1.55
-2.53
-3.61
-4.76
-5.95
-7.15
-8.36
-9.57
-10.76
-11.86
-12.73
-13.25
-13.27
-12.68
-11.44
-9.57
-7.21
-4.58
-1.97
0.33
2.13
3.36
4.11
4.58
4.94
5.30
5.66
5.94
6.07
6.03
5.90
5.79
5.77
5.86
5.92
5.82
5.47
4.88
4.22
3.70
3.49
3.57
3.80
3.93
3.75
3.14
2.13
0.79
-0.70
-2.20
-3.54
-4.61
-5.37
-5.86
-6.18
-6.53
-7.07
-7.92
-9.07
-10.37
-11.58
-12.42
-12.67
-12.19
-10.98
-9.16
-6.92
-4.52
-2.19
-0.10
1.66
3.08
4.19
5.04
5.63
5.97
6.04
5.90
5.61
5.30
5.04
4.84
4.72
4.63
4.59
4.64
4.80
5.00
5.10
4.90
4.26
3.21
1.92
0.68
-0.28
-0.84
-1.06
-1.15
-1.35
-1.86
-2.72
-3.88
-5.18
-6.49
-7.73
-8.87
-9.89
-10.73
-11.21
-11.17
-10.46
-9.05
-7.03
-4.66
-2.20
0.05
1.94
3.38
4.40
5.03
5.33
5.36
5.17
4.83
4.42
4.03
3.72
3.51
3.41
3.38
3.40
3.43
3.44
3.38
3.22
2.96
2.60
2.15
1.63
1.02
0.32
-0.51
-1.46
-2.54
-3.71
-4.94
-6.22
-7.51
-8.78
-9.96
-10.96
-11.63
-11.80
-11.33
-10.10
-8.15
-5.66
-2.93
-0.28
2.01
3.77
4.98
5.67
5.93
5.81
5.39
4.78
4.15
3.65
3.37
3.32
3.38
3.45
3.48
3.49
3.53
3.62
3.70
3.63
3.29
2.63
1.68
0.56
-0.62
-1.81
-2.99
-4.21
-5.53
-6.98
-8.61
-10.38
-12.17
-13.83
-15.12
-15.83
-15.78
-14.92
-13.26
-10.93
-8.16
-5.17
-2.25
0.39
2.60
4.31
5.55
6.38
6.89
7.15
7.25
7.24
7.21
7.22
7.30
7.47
7.69
7.88
7.96
7.86
7.49
6.84
5.91
4.81
3.60
2.40
1.26
0.22
-0.71
-1.58
-2.45
-3.40
-4.51
-5.85
-7.48
-9.41
-11.61
-13.92
-16.09
-17.76
-18.56
-18.24
-16.72
-14.15
-10.87
-7.32
-3.85
-0.72
1.95
4.14
5.86
7.23
8.34
9.30
10.16
10.93
11.56
12.00
12.28
12.45
12.55
12.56
12.40
11.99
11.32
10.50
9.70
9.11
8.77
8.55
8.25
7.65
6.70
5.46
3.99
2.40
0.69
-1.14
-3.08
-5.02
-6.86
-8.54
-10.07
-11.58
-13.15
-14.77
-16.25
-17.26
-17.46
-16.62
-14.71
-11.89
-8.52
-4.95
-1.52
1.58
4.26
6.53
8.43
10.02
11.32
12.30
12.92
13.13
12.94
12.42
11.72
11.04
10.55
10.36
10.49
10.82
11.21
11.50
11.59
11.43
11.02
10.38
9.55
8.53
7.37
6.10
4.75
3.40
2.07
0.82
-0.35
-1.43
-2.49
-3.60
-4.88
-6.47
-8.43
-10.73
-13.17
-15.45
-17.16
-17.93
-17.51
-15.84
-13.03
-9.40
-5.37
-1.40
2.10
4.85
6.76
7.88
8.39
8.49
8.41
8.29
8.24
8.32
8.51
8.81
9.14
9.44
9.63
9.65
9.45
9.07
8.60
8.15
7.82
7.62
7.47
7.22
6.72
5.89
4.76
3.39
1.91
0.38
-1.10
-2.49
-3.78
-5.02
-6.34
-7.86
-9.59
-11.28
-12.52
-12.88
-12.12
-10.24
-7.56
-4.49
-1.44
1.35
3.76
5.78
7.44
8.75
9.68
10.19
10.31
10.08
9.65
9.20
8.87
8.68
8.55
8.32
7.90
7.32
6.73
6.27
5.96
5.67
5.22
4.47
3.40
2.17
0.96
-0.10
-0.98
-1.72
-2.44
-3.25
-4.24
-5.48
-7.03
-8.92
-11.05
-13.25
-15.21
-16.56
-16.99
-16.30
-14.46
-11.71
-8.40
-4.96
-1.78
0.93
3.14
4.93
6.44
7.76
8.85
9.63
10.02
10.06
9.86
9.62
9.47
9.47
9.55
9.60
9.56
9.44
9.32
9.25
9.23
9.14
8.83
8.19
7.19
5.87
4.35
2.74
1.14
-0.39
-1.81
-3.07
-4.19
-5.19
-6.15
-7.20
-8.44
-9.93
-11.63
-13.44
-15.20
-16.70
-17.72
-17.98
-17.27
-15.50
-12.73
-9.25
-5.51
-1.94
1.10
3.47
5.21
6.49
7.47
8.25
8.82
9.14
9.25
9.24
9.29
9.51
9.88
10.23
10.31
9.95
9.22
8.34
7.66
7.38
7.48
7.72
7.77
7.37
6.49
5.29
4.00
2.79
1.74
0.82
-0.04
-0.92
-1.85
-2.88
-4.00
-5.25
-6.64
-8.17
-9.85
-11.68
-13.58
-15.43
-16.98
-17.92
-17.98
-17.03
-15.11
-12.42
-9.29
-6.06
-2.99
-0.26
2.07
3.99
5.54
6.71
7.51
7.97
8.17
8.26
8.35
8.52
8.75
8.98
9.20
9.42
9.68
9.97
10.21
10.26
10.03
9.51
8.83
8.17
7.59
7.06
6.47
5.71
4.75
3.62
2.39
1.06
-0.37
-1.87
-3.35
-4.63
-5.62
-6.28
-6.77
-7.33
-8.23
-9.63
-11.54
-13.71
-15.76
-17.20
-17.61
-16.75
-14.66
-11.60
-8.03
-4.43
-1.18
1.47
3.39
4.61
5.22
5.39
5.38
5.39
5.61
6.11
6.81
7.58
8.24
8.63
8.64
8.30
7.69
6.95
6.26
5.73
5.43
5.35
5.38
5.39
5.26
4.86
4.17
3.20
2.04
0.82
-0.34
-1.32
-2.12
-2.79
-3.45
-4.24
-5.29
-6.71
-8.47
-10.44
-12.30
-13.67
-14.16
-13.57
-11.93
-9.48
-6.62
-3.70
-0.96
1.45
3.42
4.86
5.72
6.01
5.89
5.58
5.34
5.32
5.53
5.89
6.27
6.51
6.52
6.26
5.75
5.12
4.51
4.12
4.01
4.14
4.34
4.37
4.03
3.23
1.98
0.44
-1.22
-2.82
-4.21
-5.34
-6.24
-7.02
-7.82
-8.76
-9.90
-11.23
-12.63
-13.91
-14.80
-15.04
-14.40
-12.82
-10.40
-7.39
-4.16
-1.06
1.62
3.67
5.02
5.71
5.90
5.77
5.53
5.32
5.18
5.15
5.24
5.47
5.88
6.38
6.81
6.98
6.77
6.21
5.45
4.72
4.15
3.75
3.40
2.95
2.30
1.40
0.24
-1.10
-2.53
-3.92
-5.14
-6.15
-7.01
-7.88
-8.95
-10.36
-12.08
-13.95
-15.65
-16.80
-17.10
-16.31
-14.42
-11.61
-8.24
-4.78
-1.64
0.90
2.76
4.06
4.96
5.62
6.15
6.57
6.86
7.03
7.06
7.02
6.98
7.01
7.16
7.40
7.65
7.81
7.82
7.64
7.28
6.79
6.18
5.49
4.72
3.87
2.92
1.86
0.67
-0.64
-1.99
-3.24
-4.28
-5.04
-5.64
-6.29
-7.27
-8.77
-10.80
-13.18
-15.51
-17.35
-18.26
-17.96
-16.37
-13.64
-10.13
-6.26
-2.53
0.71
3.22
4.94
5.96
6.47
6.70
6.84
7.03
7.34
7.70
8.01
8.14
8.02
7.70
7.31
7.04
6.99
7.18
7.50
7.79
7.90
7.76
7.36
6.78
6.05
5.22
4.26
3.18
1.98
0.71
-0.56
-1.74
-2.78
-3.65
-4.45
-5.30
-6.39
-7.87
-9.75
-11.87
-13.98
-15.71
-16.76
-16.89
-16.00
-14.14
-11.51
-8.41
-5.24
-2.34
0.05
1.87
3.21
4.22
5.04
5.72
6.26
6.64
6.87
6.98
7.05
7.08
7.04
6.90
6.63
6.29
5.96
5.77
5.75
5.88
6.04
6.11
6.00
5.66
5.11
4.34
3.37
2.17
0.77
-0.73
-2.19
-3.50
-4.64
-5.72
-6.96
-8.52
-10.40
-12.35
-13.94
-14.69
-14.28
-12.73
-10.29
-7.43
-4.56
-1.96
0.27
2.18
3.82
5.24
6.39
7.20
7.62
7.69
7.51
7.26
7.11
7.12
7.28
7.45
7.49
7.29
6.87
6.34
5.85
5.46
5.16
4.88
4.52
3.99
3.27
2.35
1.25
0.02
-1.27
-2.55
-3.77
-4.93
-6.08
-7.31
-8.70
-10.27
-11.95
-13.59
-14.94
-15.74
-15.76
-14.86
-13.07
-10.54
-7.61
-4.64
-1.95
0.29
2.04
3.35
4.35
5.13
5.73
6.15
6.38
6.47
6.50
6.59
6.75
6.97
7.13
7.17
7.05
6.80
6.53
6.31
6.18
6.13
6.10
5.95
5.57
4.86
3.81
2.48
1.02
-0.44
-1.80
-3.03
-4.19
-5.32
-6.51
-7.87
-9.52
-11.52
-13.76
-15.96
-17.66
-18.39
-17.87
-16.05
-13.25
-9.89
-6.47
-3.31
-0.57
1.71
3.58
5.10
6.34
7.33
8.11
8.67
9.02
9.19
9.23
9.21
9.19
9.19
9.22
9.23
9.22
9.19
9.15
9.06
8.87
8.52
7.97
7.28
6.56
5.93
5.44
5.04
4.55
3.78
2.60
1.02
-0.79
-2.62
-4.23
-5.56
-6.65
-7.66
-8.80
-10.18
-11.81
-13.56
-15.27
-16.71
-17.66
-17.93
-17.34
-15.82
-13.43
-10.37
-6.96
-3.58
-0.55
1.93
3.78
5.09
5.97
6.57
6.98
7.23
7.37
7.45
7.54
7.70
7.89
8.04
8.06
7.91
7.68
7.49
7.42
7.45
7.47
7.32
6.92
6.29
5.52
4.70
3.88
3.05
2.20
1.29
0.33
-0.71
-1.88
-3.16
-4.52
-5.88
-7.20
-8.50
-9.90
-11.52
-13.38
-15.28
-16.85
-17.61
-17.25
-15.69
-13.12
-9.91
-6.48
-3.18
-0.22
2.30
4.38
6.02
7.25
8.12
8.70
9.05
9.25
9.35
9.36
9.32
9.24
9.12
8.97
8.83
8.73
8.73
8.87
9.15
9.50
9.78
9.84
9.58
9.01
8.21
7.31
6.38
5.46
4.51
3.49
2.36
1.16
-0.09
-1.32
-2.53
-3.71
-4.87
-6.02
-7.18
-8.37
-9.63
-10.97
-12.35
-13.65
-14.61
-14.98
-14.51
-13.12
-10.92
-8.21
-5.34
-2.62
-0.24
1.72
3.27
4.44
5.22
5.64
5.79
5.82
5.91
6.16
6.54
6.92
7.14
7.12
6.91
6.62
6.38
6.24
6.19
6.15
6.02
5.78
5.42
4.96
4.40
3.72
2.87
1.85
0.67
-0.58
-1.75
-2.68
-3.32
-3.73
-4.13
-4.81
-5.96
-7.56
-9.36
-10.92
-11.79
-11.69
-10.59
-8.74
-6.45
-4.08
-1.84
0.19
2.01
3.60
4.92
5.92
6.55
6.86
6.94
6.88
6.75
6.54
6.20
5.75
5.23
4.76
4.45
4.35
4.41
4.53
4.62
4.62
4.52
4.31
3.95
3.34
2.42
1.20
-0.26
-1.77
-3.17
-4.31
-5.16
-5.85
-6.55
-7.50
-8.85
-10.59
-12.49
-14.22
-15.38
-15.66
-14.95
-13.34
-11.05
-8.38
-5.63
-3.01
-0.70
1.20
2.63
3.60
4.19
4.53
4.78
5.09
5.50
5.95
6.31
6.45
6.32
6.02
5.70
5.49
5.41
5.37
5.23
4.87
4.28
3.51
2.63
1.69
0.73
-0.24
-1.17
-2.02
-2.76
-3.41
-4.10
-4.96
-6.11
-7.60
-9.34
-11.16
-12.83
-14.09
-14.70
-14.47
-13.30
-11.22
-8.43
-5.30
-2.26
0.36
2.39
3.84
4.87
5.61
6.13
6.43
6.48
6.34
6.13
5.97
5.92
5.98
6.09
6.20
6.27
6.28
6.18
5.90
5.41
4.75
4.03
3.35
2.78
2.26
1.70
1.04
0.27
-0.55
-1.31
-2.01
-2.74
-3.67
-4.93
-6.61
-8.64
-10.77
-12.68
-13.97
-14.37
-13.71
-12.07
-9.67
-6.82
-3.87
-1.04
1.50
3.68
5.45
6.81
7.72
8.20
8.28
8.06
7.72
7.42
7.30
7.40
7.65
7.87
7.89
7.59
7.01
6.32
5.71
5.28
5.03
4.79
4.40
3.78
2.96
2.08
1.24
0.46
-0.33
-1.26
-2.40
-3.76
-5.23
-6.72
-8.19
-9.66
-11.12
-12.50
-13.61
-14.14
-13.85
-12.65
-10.67
-8.19
-5.58
-3.12
-0.93
1.00
2.70
4.17
5.34
6.09
6.40
6.33
6.04
5.77
5.64
5.70
5.85
5.95
5.91
5.74
5.57
5.49
5.55
5.68
5.69
5.39
4.71
3.72
2.62
1.60
0.76
0.05
-0.70
-1.67
-2.94
-4.50
-6.20
-7.89
-9.43
-10.72
-11.65
-12.10
-11.94
-11.10
-9.59
-7.56
-5.21
-2.77
-0.39
1.82
3.80
5.45
6.69
7.45
7.74
7.64
7.28
6.79
6.35
6.08
6.12
6.49
7.10
7.69
7.98
7.74
6.99
5.94
4.91
4.14
3.63
3.19
2.55
1.56
0.31
-1.01
-2.19
-3.11
-3.85
-4.59
-5.51
-6.75
-8.37
-10.32
-12.42
-14.37
-15.75
-16.20
-15.50
-13.69
-11.07
-8.08
-5.15
-2.57
-0.45
1.28
2.75
4.12
5.49
6.86
8.17
9.22
9.85
9.94
9.49
8.68
7.76
6.96
6.41
6.15
6.08
6.10
6.11
6.07
5.94
5.70
5.31
4.70
3.80
2.65
1.38
0.20
-0.67
-1.17
-1.38
-1.58
-2.09
-3.11
-4.65
-6.57
-8.62
-10.62
-12.45
-14.02
-15.21
-15.81
-15.63
-14.55
-12.65
-10.15
-7.40
-4.68
-2.16
0.13
2.22
4.14
5.85
7.25
8.22
8.69
8.70
8.44
8.11
7.90
7.86
7.93
7.97
7.87
7.65
7.38
7.19
7.10
7.06
6.92
6.59
6.04
5.38
4.70
4.09
3.53
2.90
2.13
1.17
0.06
-1.13
-2.36
-3.60
-4.85
-6.12
-7.36
-8.53
-9.58
-10.55
-11.49
-12.45
-13.38
-14.05
-14.19
-13.51
-11.92
-9.54
-6.69
-3.78
-1.16
0.99
2.63
3.86
4.79
5.52
6.11
6.55
6.85
6.96
6.90
6.73
6.53
6.39
6.34
6.37
6.42
6.41
6.31
6.14
5.93
5.72
5.44
5.02
4.38
3.52
2.47
1.35
0.26
-0.75
-1.65
-2.47
-3.20
-3.86
-4.44
-5.02
-5.67
-6.50
-7.61
-8.94
-10.34
-11.52
-12.17
-12.03
-10.97
-9.10
-6.63
-3.94
-1.37
0.83
2.53
3.74
4.57
5.11
5.46
5.66
5.73
5.71
5.59
5.43
5.28
5.23
5.35
5.63
5.99
6.26
6.29
5.99
5.44
4.80
4.24
3.87
3.66
3.52
3.36
3.11
2.75
2.20
1.36
0.12
-1.58
-3.58
-5.58
-7.23
-8.27
-8.68
-8.73
-8.83
-9.35
-10.43
-11.93
-13.45
-14.54
-14.81
-14.10
-12.47
-10.15
-7.46
-4.72
-2.19
-0.04
1.67
2.95
3.86
4.48
4.89
5.16
5.35
5.56
5.85
6.27
6.77
7.20
7.44
7.41
7.16
6.81
6.54
6.43
6.48
6.57
6.55
6.26
5.67
4.81
3.84
2.89
2.06
1.35
0.68
-0.06
-0.95
-1.97
-3.01
-3.89
-4.51
-4.85
-5.05
-5.32
-5.92
-7.00
-8.56
-10.41
-12.27
-13.82
-14.80
-15.03
-14.49
-13.25
-11.43
-9.20
-6.76
-4.29
-1.97
0.08
1.82
3.26
4.42
5.33
5.96
6.29
6.37
6.29
6.20
6.21
6.36
6.60
6.80
6.86
6.78
6.60
6.45
6.37
6.36
6.33
6.20
5.89
5.41
4.76
4.00
3.20
2.42
1.71
1.09
0.55
-0.02
-0.72
-1.62
-2.70
-3.87
-5.03
-6.14
-7.26
-8.49
-9.92
-11.49
-13.04
-14.28
-14.96
-14.92
-14.11
-12.64
-10.68
-8.40
-5.94
-3.43
-0.99
1.21
3.01
4.26
4.93
5.06
4.86
4.55
4.30
4.22
4.26
4.36
4.45
4.50
4.57
4.72
4.99
5.35
5.67
5.83
5.72
5.31
4.67
3.93
3.23
2.62
2.10
1.60
1.03
0.35
-0.42
-1.23
-2.03
-2.85
-3.76
-4.86
-6.20
-7.75
-9.31
-10.63
-11.39
-11.36
-10.43
-8.65
-6.22
-3.47
-0.71
1.74
3.66
4.93
5.55
5.64
5.44
5.19
5.09
5.18
5.35
5.44
5.34
5.10
4.85
4.76
4.88
5.11
5.25
5.16
4.82
4.39
4.04
3.84
3.74
3.56
3.16
2.49
1.64
0.72
-0.18
-1.09
-2.06
-3.17
-4.39
-5.64
-6.85
-8.01
-9.16
-10.41
-11.80
-13.27
-14.60
-15.53
-15.78
-15.23
-13.90
-12.00
-9.74
-7.37
-5.02
-2.76
-0.62
1.36
3.11
4.54
5.57
6.19
6.45
6.45
6.34
6.25
6.25
6.39
6.66
6.99
7.29
7.47
7.44
7.19
6.75
6.21
5.64
5.05
4.43
3.76
3.08
2.41
1.83
1.30
0.77
0.14
-0.68
-1.73
-2.99
-4.42
-5.99
-7.66
-9.41
-11.19
-12.91
-14.46
-15.70
-16.41
-16.43
-15.62
-13.98
-11.69
-9.07
-6.43
-4.02
-1.91
0.00
1.83
3.64
5.37
6.88
8.03
8.79
9.20
9.40
9.45
9.39
9.19
8.82
8.31
7.77
7.29
6.96
6.80
6.76
6.77
6.77
6.74
6.65
6.47
6.14
5.56
4.65
3.41
1.88
0.18
-1.54
-3.12
-4.46
-5.57
-6.55
-7.55
-8.74
-10.20
-11.88
-13.65
-15.27
-16.46
-16.95
-16.54
-15.13
-12.83
-9.91
-6.73
-3.61
-0.80
1.58
3.53
5.04
6.11
6.69
6.79
6.47
5.92
5.39
5.11
5.23
5.69
6.30
6.82
7.08
7.05
6.84
6.57
6.35
6.17
5.94
5.57
5.07
4.49
3.90
3.29
2.56
1.62
0.40
-1.06
-2.63
-4.20
-5.71
-7.22
-8.76
-10.35
-11.88
-13.10
-13.76
-13.62
-12.56
-10.64
-8.04
-5.07
-2.05
0.73
3.07
4.90
6.25
7.19
7.80
8.14
8.24
8.11
7.80
7.41
7.05
6.81
6.72
6.70
6.66
6.51
6.24
5.91
5.57
5.23
4.86
4.34
3.63
2.72
1.65
0.52
-0.61
-1.70
-2.74
-3.75
-4.79
-5.95
-7.33
-9.01
-10.98
-13.09
-15.02
-16.38
-16.81
-16.11
-14.32
-11.72
-8.71
-5.69
-2.93
-0.51
1.62
3.53
5.22
6.60
7.54
8.01
8.07
7.94
7.79
7.76
7.82
7.87
7.83
7.69
7.52
7.41
7.38
7.41
7.37
7.14
6.65
5.91
4.96
3.86
2.67
1.42
0.14
-1.18
-2.55
-4.02
-5.68
-7.61
-9.83
-12.25
-14.67
-16.78
-18.27
-18.86
-18.41
-16.94
-14.65
-11.81
-8.71
-5.58
-2.55
0.31
2.93
5.17
6.94
8.17
8.91
9.34
9.65
10.00
10.45
10.96
11.46
11.88
12.22
12.43
12.48
12.31
11.91
11.35
10.75
10.22
9.78
9.38
8.90
8.24
7.35
6.24
4.95
3.52
2.01
0.43
-1.16
-2.72
-4.21
-5.66
-7.16
-8.82
-10.69
-12.73
-14.81
-16.68
-18.03
-18.57
-18.08
-16.49
-13.91
-10.62
-7.03
-3.57
-0.53
1.93
3.86
5.36
6.57
7.53
8.26
8.78
9.19
9.61
10.13
10.76
11.40
11.93
12.27
12.43
12.48
12.44
12.27
11.93
11.41
10.82
10.29
9.88
9.59
9.29
8.83
8.07
7.01
5.68
4.18
2.61
1.05
-0.42
-1.77
-3.01
-4.20
-5.40
-6.73
-8.24
-9.98
-11.94
-14.02
-16.01
-17.62
-18.48
-18.34
-17.14
-15.00
-12.23
-9.13
-5.96
-2.87
0.03
2.64
4.85
6.56
7.77
8.51
8.90
9.03
9.01
8.88
8.71
8.57
8.57
8.78
9.23
9.86
10.53
11.05
11.27
11.08
10.47
9.56
8.48
7.42
6.50
5.76
5.13
4.46
3.56
2.32
0.77
-0.94
-2.57
-3.97
-5.13
-6.20
-7.43
-9.00
-10.96
-13.16
-15.28
-16.97
-17.93
-17.98
-17.09
-15.37
-13.00
-10.20
-7.18
-4.13
-1.25
1.28
3.26
4.59
5.30
5.55
5.55
5.53
5.62
5.85
6.26
6.81
7.50
8.28
9.09
9.85
10.48
10.94
11.18
11.19
10.95
10.45
9.74
8.91
8.09
7.37
6.75
6.19
5.58
4.85
4.04
3.20
2.40
1.65
0.92
0.10
-0.90
-2.18
-3.76
-5.63
-7.74
-10.03
-12.39
-14.69
-16.69
-18.09
-18.57
-17.93
-16.11
-13.33
-9.98
-6.52
-3.33
-0.62
1.62
3.48
5.06
6.41
7.46
8.14
8.45
8.45
8.31
8.20
8.27
8.58
9.15
9.92
10.76
11.54
12.12
12.40
12.38
12.10
11.69
11.24
10.81
10.39
9.94
9.45
8.89
8.29
7.66
6.98
6.23
5.37
4.37
3.25
2.04
0.77
-0.53
-1.88
-3.29
-4.78
-6.21
-7.38
-7.95
-7.59
-6.09
-3.44
0.04
3.87
7.56
10.76
13.40
15.58
17.38
18.80
19.69
19.88
19.35
18.27
16.99
15.83
14.96
14.36
13.88
13.40
12.98
12.77
12.97
13.58
14.41
15.13
15.44
15.14
14.26
12.95
11.37
9.57
7.53
5.17
2.46
-0.49
-3.50
-6.36
-8.95
-11.27
-13.46
-15.69
-18.07
-20.57
-23.04
-25.25
-26.94
-27.89
-28.02
-27.33
-25.95
-24.09
-22.02
-20.01
-18.27
-16.87
-15.80
-14.95
-14.17
-13.37
-12.52
-11.62
-10.67
-9.68
-8.65
-7.61
-6.59
-5.65
-4.79
-4.01
-3.27
-2.56
-1.87
-1.24
-0.70
-0.25
0.11
0.35
0.44
0.34
-0.02
-0.65
-1.48
-2.38
-3.22
-3.91
-4.46
-4.94
-5.49
-6.17
-6.97
-7.73
-8.25
-8.34
-7.88
-6.88
-5.44
-3.76
-2.02
-0.36
1.13
2.38
3.31
3.91
4.16
4.11
3.88
3.59
3.33
3.11
2.89
2.59
2.22
1.89
1.74
1.86
2.20
2.62
2.89
2.86
2.49
1.86
1.13
0.42
-0.21
-0.75
-1.27
-1.84
-2.54
-3.43
-4.54
-5.83
-7.20
-8.49
-9.50
-10.04
-10.01
-9.32
-8.01
-6.19
-4.07
-1.90
0.03
1.53
2.50
3.00
3.20
3.29
3.43
3.65
3.90
4.07
4.04
3.77
3.31
2.74
2.22
1.88
1.80
1.94
2.17
2.32
2.21
1.76
1.02
0.11
-0.81
-1.66
-2.44
-3.18
-3.98
-4.85
-5.83
-6.92
-8.10
-9.32
-10.44
-11.22
-11.40
-10.79
-9.40
-7.42
-5.17
-2.98
-1.08
0.46
1.63
2.48
3.07
3.46
3.74
4.02
4.36
4.76
5.13
5.31
5.18
4.73
4.08
3.42
2.95
2.77
2.85
3.05
3.19
3.10
2.72
2.06
1.17
0.18
-0.79
-1.62
-2.28
-2.81
-3.35
-4.11
-5.23
-6.70
-8.36
-9.88
-10.89
-11.11
-10.43
-8.94
-6.90
-4.64
-2.47
-0.60
0.91
2.08
3.04
3.86
4.53
4.99
5.17
5.07
4.78
4.45
4.22
4.17
4.30
4.55
4.83
5.05
5.15
5.09
4.95
4.78
4.59
4.38
4.08
3.63
3.04
2.35
1.65
0.95
0.19
-0.72
-1.86
-3.19
-4.63
-6.06
-7.41
-8.64
-9.70
-10.51
-10.91
-10.75
-9.96
-8.59
-6.78
-4.69
-2.48
-0.28
1.77
3.55
4.94
5.90
6.48
6.78
6.92
6.99
7.02
7.02
7.01
6.99
6.96
6.90
6.75
6.47
6.07
5.60
5.13
4.73
4.42
4.18
3.97
3.75
3.48
3.11
2.61
1.96
1.14
0.16
-0.96
-2.14
-3.27
-4.23
-4.91
-5.31
-5.54
-5.84
-6.41
-7.41
-8.79
-10.41
-11.94
-13.08
-13.53
-13.12
-11.81
-9.71
-7.06
-4.19
-1.42
1.01
2.97
4.44
5.47
6.16
6.60
6.85
7.00
7.16
7.38
7.74
8.20
8.71
9.15
9.41
9.44
9.27
9.01
8.79
8.68
8.64
8.55
8.28
7.75
6.98
6.11
5.26
4.48
3.75
2.98
2.10
1.13
0.17
-0.66
-1.29
-1.78
-2.28
-2.98
-3.98
-5.25
-6.68
-8.08
-9.30
-10.28
-11.05
-11.65
-12.05
-12.17
-11.84
-10.96
-9.52
-7.69
-5.72
-3.86
-2.26
-0.93
0.22
1.27
2.26
3.16
3.91
4.50
4.95
5.36
5.80
6.30
6.83
7.32
7.72
7.98
8.14
8.25
8.35
8.41
8.38
8.18
7.75
7.09
6.27
5.38
4.53
3.76
3.05
2.34
1.57
0.71
-0.21
-1.13
-1.98
-2.75
-3.45
-4.09
-4.73
-5.41
-6.16
-7.03
-8.01
-9.01
-9.91
-10.45
-10.40
-9.58
-7.96
-5.75
-3.29
-0.96
0.95
2.35
3.30
3.94
4.39
4.67
4.77
4.65
4.38
4.08
3.94
4.08
4.49
5.05
5.55
5.78
5.62
5.10
4.38
3.70
3.25
3.10
3.15
3.21
3.07
2.66
2.03
1.39
0.88
0.57
0.40
0.24
-0.06
-0.52
-1.11
-1.74
-2.39
-3.06
-3.80
-4.69
-5.76
-6.96
-8.17
-9.21
-9.86
-9.94
-9.40
-8.28
-6.78
-5.12
-3.54
-2.20
-1.15
-0.35
0.29
0.90
1.51
2.14
2.74
3.25
3.62
3.83
3.91
3.89
3.81
3.68
3.50
3.33
3.24
3.34
3.66
4.13
4.60
4.86
4.76
4.25
3.41
2.43
1.51
0.82
0.41
0.23
0.17
0.09
-0.09
-0.41
-0.89
-1.55
-2.41
-3.44
-4.56
-5.62
-6.46
-7.02
-7.39
-7.72
-8.21
-8.89
-9.58
-9.99
-9.83
-8.99
-7.56
-5.80
-3.99
-2.35
-0.93
0.22
1.12
1.77
2.17
2.39
2.53
2.75
3.14
3.68
4.26
4.70
4.89
4.76
4.38
3.85
3.33
2.92
2.67
2.62
2.73
2.98
3.30
3.61
3.83
3.84
3.56
2.99
2.17
1.25
0.38
-0.35
-0.94
-1.42
-1.90
-2.38
-2.84
-3.18
-3.34
-3.38
-3.41
-3.61
-4.13
-5.00
-6.14
-7.31
-8.25
-8.70
-8.54
-7.75
-6.46
-4.85
-3.14
-1.51
-0.10
0.98
1.68
2.01
2.07
2.04
2.10
2.35
2.82
3.41
3.93
4.23
4.25
4.04
3.70
3.37
3.16
3.09
3.17
3.35
3.52
3.54
3.29
2.72
1.86
0.83
-0.21
-1.06
-1.63
-1.87
-1.86
-1.73
-1.65
-1.73
-2.05
-2.62
-3.42
-4.40
-5.54
-6.79
-8.04
-9.09
-9.73
-9.75
-9.09
-7.85
-6.27
-4.62
-3.13
-1.88
-0.87
-0.07
0.58
1.11
1.56
1.96
2.33
2.65
2.88
2.96
2.87
2.71
2.56
2.54
2.69
2.97
3.23
3.35
3.25
2.93
2.48
2.01
1.61
1.31
1.11
0.99
0.94
0.93
0.90
0.74
0.37
-0.26
-1.12
-2.07
-3.01
-3.85
-4.62
-5.38
-6.20
-7.11
-8.01
-8.80
-9.35
-9.60
-9.52
-9.13
-8.49
-7.60
-6.51
-5.29
-4.04
-2.89
-1.94
-1.25
-0.82
-0.60
-0.49
-0.40
-0.26
0.01
0.43
1.01
1.70
2.44
3.13
3.68
4.04
4.17
4.11
3.89
3.56
3.18
2.77
2.35
1.96
1.61
1.30
1.04
0.80
0.50
0.10
-0.46
-1.13
-1.85
-2.55
-3.15
-3.67
-4.19
-4.77
-5.50
-6.38
-7.36
-8.26
-8.92
-9.13
-8.78
-7.89
-6.59
-5.12
-3.68
-2.42
-1.36
-0.45
0.38
1.14
1.79
2.25
2.47
2.48
2.43
2.49
2.80
3.34
3.96
4.39
4.46
4.12
3.55
3.02
2.72
2.73
2.96
3.21
3.36
3.33
3.16
2.87
2.47
1.96
1.30
0.52
-0.34
-1.19
-1.97
-2.65
-3.28
-3.94
-4.73
-5.67
-6.74
-7.83
-8.82
-9.63
-10.17
-10.40
-10.22
-9.55
-8.34
-6.66
-4.71
-2.76
-1.02
0.39
1.53
2.47
3.30
3.98
4.45
4.66
4.63
4.51
4.44
4.55
4.90
5.42
6.01
6.48
6.71
6.59
6.14
5.46
4.71
4.06
3.60
3.37
3.32
3.36
3.39
3.33
3.15
2.85
2.47
1.99
1.41
0.72
-0.08
-0.91
-1.68
-2.35
-2.92
-3.49
-4.22
-5.18
-6.36
-7.67
-8.89
-9.83
-10.32
-10.29
-9.70
-8.64
-7.26
-5.72
-4.21
-2.79
-1.50
-0.30
0.80
1.77
2.55
3.09
3.43
3.63
3.78
3.94
4.10
4.22
4.30
4.37
4.51
4.77
5.14
5.55
5.89
6.03
5.96
5.70
5.34
4.98
4.60
4.18
3.67
3.04
2.33
1.63
1.04
0.59
0.22
-0.24
-0.90
-1.85
-3.02
-4.23
-5.33
-6.23
-6.94
-7.52
-8.00
-8.32
-8.33
-7.86
-6.87
-5.44
-3.77
-2.09
-0.59
0.67
1.67
2.47
3.11
3.60
3.95
4.15
4.21
4.18
4.11
4.07
4.10
4.21
4.37
4.55
4.72
4.85
4.93
4.95
4.87
4.66
4.35
4.00
3.68
3.46
3.30
3.12
2.78
2.25
1.55
0.82
0.17
-0.36
-0.84
-1.38
-2.08
-2.97
-4.00
-5.05
-6.02
-6.79
-7.26
-7.29
-6.77
-5.65
-3.97
-1.91
0.27
2.26
3.80
4.73
5.09
5.01
4.74
4.44
4.24
4.15
4.14
4.20
4.33
4.54
4.82
5.07
5.20
5.12
4.86
4.51
4.18
3.94
3.80
3.70
3.60
3.48
3.36
3.23
3.05
2.75
2.25
1.56
0.71
-0.19
-1.08
-1.95
-2.80
-3.68
-4.58
-5.52
-6.46
-7.42
-8.38
-9.31
-10.08
-10.50
-10.41
-9.73
-8.55
-7.09
-5.60
-4.23
-3.01
-1.84
-0.64
0.57
1.65
2.42
2.82
2.94
3.00
3.22
3.68
4.29
4.83
5.13
5.14
4.97
4.84
4.91
5.25
5.76
6.32
6.75
6.94
6.81
6.38
5.74
4.99
4.27
3.67
3.22
2.87
2.58
2.26
1.82
1.20
0.34
-0.76
-2.02
-3.26
-4.28
-4.97
-5.36
-5.68
-6.19
-7.08
-8.33
-9.73
-10.92
-11.57
-11.50
-10.70
-9.32
-7.56
-5.68
-3.89
-2.35
-1.09
-0.03
0.94
1.92
2.86
3.70
4.29
4.63
4.80
4.91
5.03
5.09
4.98
4.63
4.12
3.68
3.53
3.83
4.49
5.32
6.06
6.52
6.61
6.36
5.85
5.20
4.51
3.91
3.46
3.16
2.90
2.56
2.03
1.31
0.45
-0.47
-1.36
-2.19
-2.91
-3.49
-3.90
-4.16
-4.38
-4.77
-5.51
-6.65
-8.04
-9.30
-10.06
-10.00
-9.11
-7.55
-5.67
-3.77
-2.07
-0.66
0.47
1.34
2.00
2.50
2.86
3.14
3.35
3.56
3.79
4.07
4.41
4.80
5.18
5.51
5.75
5.92
6.03
6.15
6.28
6.38
6.42
6.35
6.18
5.93
5.61
5.23
4.76
4.17
3.47
2.77
2.14
1.66
1.33
1.07
0.78
0.41
-0.03
-0.49
-0.96
-1.50
-2.22
-3.18
-4.34
-5.58
-6.72
-7.67
-8.45
-9.07
-9.58
-9.89
-9.87
-9.44
-8.59
-7.39
-6.00
-4.54
-3.11
-1.76
-0.54
0.50
1.34
1.99
2.46
2.81
3.05
3.20
3.29
3.37
3.48
3.64
3.84
4.05
4.22
4.38
4.55
4.73
4.93
5.11
5.22
5.26
5.26
5.28
5.33
5.37
5.31
5.02
4.42
3.48
2.32
1.08
-0.02
-0.84
-1.31
-1.52
-1.64
-1.88
-2.41
-3.26
-4.35
-5.50
-6.50
-7.21
-7.51
-7.35
-6.72
-5.64
-4.17
-2.44
-0.66
0.92
2.11
2.75
2.86
2.57
2.09
1.64
1.36
1.33
1.55
2.02
2.69
3.53
4.45
5.29
5.91
6.22
6.24
6.07
5.87
5.76
5.80
5.92
6.04
6.10
6.05
5.85
5.49
4.96
4.23
3.34
2.33
1.30
0.37
-0.41
-1.00
-1.46
-1.86
-2.27
-2.76
-3.35
-4.07
-4.92
-5.90
-6.93
-7.92
-8.74
-9.31
-9.62
-9.73
-9.75
-9.70
-9.49
-8.95
-7.97
-6.54
-4.83
-3.07
-1.48
-0.19
0.83
1.61
2.20
2.60
2.80
2.83
2.77
2.71
2.74
2.90
3.16
3.51
3.90
4.27
4.53
4.63
4.59
4.47
4.42
4.50
4.71
4.93
5.00
4.82
4.37
3.70
2.91
2.09
1.31
0.59
-0.05
-0.61
-1.11
-1.59
-2.05
-2.45
-2.77
-3.05
-3.42
-4.09
-5.18
-6.68
-8.36
-9.93
-11.05
-11.56
-11.44
-10.79
-9.74
-8.42
-6.98
-5.56
-4.25
-3.14
-2.21
-1.38
-0.55
0.30
1.12
1.87
2.49
2.94
3.25
3.45
3.60
3.72
3.84
3.99
4.20
4.49
4.85
5.23
5.57
5.80
5.87
5.73
5.41
4.96
4.45
3.92
3.42
2.93
2.47
2.06
1.73
1.44
1.08
0.57
-0.18
-1.14
-2.17
-3.13
-3.87
-4.34
-4.58
-4.74
-4.95
-5.42
-6.25
-7.44
-8.84
-10.14
-11.02
-11.23
-10.70
-9.50
-7.83
-5.91
-3.90
-1.96
-0.28
0.99
1.72
1.91
1.73
1.46
1.38
1.65
2.23
2.98
3.68
4.18
4.42
4.43
4.32
4.16
4.02
3.94
3.95
4.07
4.31
4.57
4.72
4.59
4.08
3.19
2.08
0.98
0.15
-0.31
-0.42
-0.35
-0.33
-0.50
-0.96
-1.70
-2.68
-3.83
-5.07
-6.29
-7.35
-8.10
-8.40
-8.14
-7.30
-5.98
-4.35
-2.66
-1.17
-0.04
0.70
1.17
1.55
2.01
2.61
3.28
3.89
4.36
4.65
4.79
4.78
4.61
4.28
3.82
3.35
3.02
2.95
3.19
3.63
4.12
4.55
4.80
4.86
4.74
4.45
4.02
3.50
2.99
2.57
2.29
2.12
2.01
1.87
1.57
1.04
0.28
-0.67
-1.71
-2.70
-3.49
-4.04
-4.35
-4.57
-4.89
-5.46
-6.37
-7.57
-8.91
-10.15
-11.09
-11.55
-11.42
-10.71
-9.49
-7.88
-6.05
-4.17
-2.41
-0.91
0.23
1.04
1.59
2.05
2.54
3.12
3.79
4.46
5.05
5.53
5.92
6.23
6.45
6.59
6.65
6.68
6.76
6.94
7.19
7.37
7.32
6.91
6.13
5.10
4.01
2.99
2.04
1.11
0.10
-1.02
-2.15
-3.14
-3.86
-4.33
-4.67
-5.11
-5.85
-6.95
-8.34
-9.83
-11.23
-12.38
-13.15
-13.44
-13.11
-12.07
-10.34
-8.05
-5.48
-2.99
-0.83
0.84
2.02
2.76
3.22
3.48
3.65
3.78
3.91
4.04
4.15
4.21
4.22
4.18
4.14
4.11
4.12
4.15
4.19
4.24
4.28
4.30
4.27
4.15
3.91
3.55
3.12
2.61
2.04
1.38
0.62
-0.25
-1.21
-2.18
-3.08
-3.89
-4.65
-5.43
-6.38
-7.54
-8.90
-10.36
-11.72
-12.78
-13.36
-13.36
-12.74
-11.58
-10.03
-8.26
-6.44
-4.69
-3.09
-1.67
-0.42
0.62
1.42
1.97
2.29
2.46
2.60
2.79
3.09
3.46
3.80
4.06
4.24
4.42
4.69
5.11
5.62
6.05
6.24
6.09
5.62
4.95
4.24
3.62
3.10
2.60
2.04
1.36
0.62
-0.11
-0.72
-1.23
-1.71
-2.32
-3.21
-4.42
-5.87
-7.39
-8.82
-10.00
-10.87
-11.41
-11.59
-11.38
-10.71
-9.61
-8.13
-6.44
-4.70
-3.06
-1.61
-0.36
0.73
1.67
2.49
3.18
3.68
4.00
4.19
4.35
4.62
5.09
5.77
6.55
7.29
7.86
8.25
8.50
8.71
8.92
9.13
9.24
9.16
8.84
8.28
7.51
6.60
5.62
4.60
3.61
2.68
1.84
1.09
0.36
-0.43
-1.37
-2.51
-3.80
-5.16
-6.47
-7.59
-8.41
-8.84
-8.76
-8.13
-6.98
-5.40
-3.58
-1.70
0.06
1.58
2.80
3.72
4.36
4.79
5.07
5.25
5.35
5.41
5.45
5.53
5.72
6.01
6.35
6.62
6.69
6.54
6.26
5.99
5.87
5.91
6.01
6.05
5.93
5.67
5.29
4.86
4.35
3.74
2.99
2.13
1.22
0.34
-0.44
-1.14
-1.80
-2.51
-3.35
-4.35
-5.53
-6.81
-8.11
-9.29
-10.20
-10.65
-10.49
-9.63
-8.09
-6.04
-3.77
-1.60
0.20
1.57
2.59
3.44
4.27
5.13
5.92
6.45
6.66
6.55
6.30
6.09
6.09
6.33
6.72
7.11
7.39
7.51
7.50
7.43
7.32
7.11
6.71
6.09
5.27
4.37
3.53
2.83
2.27
1.76
1.22
0.58
-0.16
-0.94
-1.74
-2.57
-3.49
-4.57
-5.84
-7.28
-8.78
-10.20
-11.39
-12.18
-12.44
-12.14
-11.29
-9.99
-8.39
-6.62
-4.78
-2.91
-1.02
0.86
2.69
4.38
5.80
6.83
7.42
7.61
7.51
7.31
7.19
7.26
7.57
8.04
8.59
9.09
9.45
9.62
9.60
9.40
9.10
8.73
8.35
7.96
7.52
7.01
6.44
5.87
5.35
4.89
4.42
3.78
2.88
1.70
0.36
-0.91
-1.92
-2.61
-3.09
-3.59
-4.34
-5.47
-6.96
-8.64
-10.28
-11.69
-12.69
-13.16
-13.01
-12.20
-10.76
-8.85
-6.70
-4.60
-2.77
-1.27
-0.06
1.00
2.01
2.99
3.85
4.52
4.98
5.31
5.61
5.97
6.38
6.74
6.95
6.96
6.80
6.59
6.47
6.52
6.72
6.99
7.20
7.26
7.12
6.82
6.44
6.03
5.64
5.25
4.80
4.22
3.49
2.67
1.86
1.19
0.71
0.36
-0.03
-0.65
-1.62
-2.94
-4.46
-6.01
-7.44
-8.72
-9.85
-10.79
-11.41
-11.53
-11.00
-9.81
-8.11
-6.17
-4.25
-2.50
-0.94
0.50
1.89
3.23
4.44
5.43
6.09
6.42
6.47
6.35
6.15
5.94
5.71
5.50
5.36
5.38
5.63
6.11
6.71
7.25
7.55
7.50
7.11
6.44
5.61
4.70
3.84
3.14
2.71
2.55
2.58
2.56
2.24
1.47
0.31
-1.01
-2.18
-2.98
-3.41
-3.62
-3.88
-4.38
-5.17
-6.17
-7.23
-8.27
-9.21
-10.00
-10.55
-10.71
-10.33
-9.35
-7.84
-6.05
-4.23
-2.62
-1.28
-0.19
0.76
1.61
2.36
2.97
3.41
3.73
4.00
4.28
4.61
4.93
5.21
5.40
5.52
5.61
5.67
5.67
5.58
5.36
5.05
4.69
4.33
4.01
3.69
3.34
2.93
2.45
1.93
1.39
0.80
0.13
-0.67
-1.62
-2.72
-3.91
-5.16
-6.38
-7.49
-8.36
-8.89
-9.01
-8.73
-8.10
-7.20
-6.07
-4.77
-3.38
-2.01
-0.74
0.34
1.23
1.96
2.58
3.13
3.59
3.95
4.21
4.38
4.47
4.52
4.51
4.46
4.42
4.44
4.54
4.65
4.67
4.52
4.20
3.79
3.42
3.16
2.99
2.84
2.66
2.42
2.12
1.76
1.29
0.64
-0.22
-1.22
-2.22
-3.08
-3.73
-4.20
-4.64
-5.18
-5.91
-6.82
-7.83
-8.84
-9.73
-10.38
-10.64
-10.42
-9.67
-8.44
-6.86
-5.15
-3.47
-1.98
-0.73
0.28
1.06
1.64
2.04
2.29
2.47
2.60
2.72
2.85
3.01
3.22
3.50
3.82
4.11
4.28
4.24
4.00
3.61
3.20
2.85
2.62
2.50
2.43
2.37
2.29
2.14
1.85
1.36
0.65
-0.21
-1.09
-1.89
-2.57
-3.18
-3.82
-4.58
-5.44
-6.34
-7.19
-7.94
-8.58
-9.09
-9.37
-9.32
-8.81
-7.84
-6.53
-5.08
-3.68
-2.42
-1.23
-0.06
1.10
2.15
2.90
3.22
3.07
2.62
2.11
1.73
1.62
1.74
1.99
2.27
2.57
2.91
3.35
3.89
4.43
4.83
4.94
4.68
4.11
3.40
2.68
2.08
1.59
1.11
0.57
-0.07
-0.76
-1.40
-1.91
-2.27
-2.56
-2.90
-3.38
-4.05
-4.88
-5.82
-6.83
-7.88
-8.89
-9.74
-10.24
-10.21
-9.57
-8.36
-6.77
-5.05
-3.40
-1.97
-0.81
0.13
0.85
1.41
1.84
2.18
2.48
2.76
3.02
3.21
3.32
3.35
3.34
3.35
3.43
3.58
3.74
3.86
3.88
3.82
3.68
3.53
3.35
3.11
2.77
2.31
1.80
1.30
0.89
0.56
0.22
-0.23
-0.81
-1.47
-2.09
-2.60
-3.06
-3.59
-4.37
-5.47
-6.81
-8.19
-9.37
-10.15
-10.42
-10.16
-9.36
-8.07
-6.38
-4.48
-2.62
-1.06
0.05
0.72
1.13
1.51
2.04
2.79
3.67
4.50
5.10
5.38
5.34
5.11
4.88
4.78
4.89
5.17
5.50
5.78
5.93
5.96
5.89
5.77
5.57
5.28
4.88
4.39
3.83
3.24
2.65
2.05
1.45
0.84
0.20
-0.49
-1.28
-2.16
-3.05
-3.85
-4.46
-4.88
-5.23
-5.64
-6.24
-7.06
-8.03
-8.99
-9.80
-10.32
-10.46
-10.21
-9.60
-8.67
-7.48
-6.09
-4.56
-3.00
-1.53
-0.25
0.75
1.43
1.83
2.02
2.07
2.04
2.01
2.07
2.30
2.74
3.35
3.97
4.47
4.79
4.94
5.03
5.12
5.20
5.23
5.13
4.90
4.57
4.17
3.71
3.17
2.56
1.91
1.30
0.77
0.31
-0.17
-0.69
-1.25
-1.76
-2.11
-2.35
-2.60
-3.08
-3.96
-5.25
-6.80
-8.38
-9.76
-10.77
-11.27
-11.22
-10.57
-9.38
-7.77
-5.95
-4.12
-2.44
-1.02
0.15
1.07
1.81
2.41
2.89
3.29
3.57
3.70
3.65
3.43
3.08
2.71
2.44
2.39
2.61
3.10
3.75
4.38
4.80
4.85
4.49
3.86
3.17
2.66
2.40
2.37
2.35
2.20
1.81
1.24
0.59
-0.06
-0.68
-1.33
-2.06
-2.91
-3.87
-4.91
-5.98
-7.01
-7.91
-8.57
-8.85
-8.66
-7.96
-6.78
-5.23
-3.49
-1.77
-0.27
0.87
1.64
2.17
2.63
3.16
3.79
4.42
4.90
5.11
5.05
4.79
4.42
4.04
3.71
3.47
3.42
3.61
4.04
4.62
5.16
5.49
5.50
5.17
4.62
3.96
3.30
2.65
2.00
1.30
0.53
-0.33
-1.21
-2.04
-2.75
-3.35
-3.91
-4.58
-5.48
-6.60
-7.82
-8.93
-9.72
-10.07
-9.96
-9.39
-8.39
-7.02
-5.32
-3.46
-1.64
-0.05
1.16
2.02
2.61
3.04
3.38
3.63
3.76
3.77
3.70
3.64
3.66
3.79
4.04
4.37
4.72
5.01
5.13
5.05
4.78
4.42
4.14
4.04
4.15
4.35
4.46
4.32
3.84
3.07
2.09
1.00
-0.15
-1.30
-2.41
-3.41
-4.22
-4.85
-5.36
-5.87
-6.49
-7.25
-8.08
-8.83
-9.33
-9.45
-9.10
-8.28
-6.99
-5.34
-3.49
-1.63
0.01
1.32
2.28
2.93
3.38
3.68
3.85
3.87
3.75
3.57
3.38
3.30
3.34
3.47
3.65
3.82
3.93
3.98
3.97
3.94
3.95
4.03
4.17
4.32
4.34
4.12
3.61
2.83
1.92
0.99
0.16
-0.57
-1.22
-1.86
-2.51
-3.18
-3.86
-4.60
-5.50
-6.57
-7.78
-8.92
-9.71
-9.85
-9.19
-7.79
-5.91
-3.91
-2.07
-0.55
0.65
1.64
2.52
3.31
3.95
4.38
4.55
4.50
4.35
4.25
4.31
4.58
4.98
5.43
5.81
6.07
6.23
6.33
6.42
6.51
6.51
6.39
6.13
5.77
5.35
4.90
4.37
3.73
2.98
2.22
1.56
1.04
0.63
0.14
-0.61
-1.70
-3.05
-4.46
-5.70
-6.69
-7.46
-8.15
-8.91
-9.79
-10.72
-11.52
-11.96
-11.81
-10.96
-9.41
-7.33
-5.01
-2.78
-0.93
0.38
1.17
1.56
1.75
1.88
2.02
2.23
2.52
2.95
3.52
4.16
4.75
5.12
5.18
4.94
4.57
4.27
4.18
4.35
4.66
4.91
4.92
4.61
4.02
3.32
2.64
2.08
1.61
1.16
0.61
-0.09
-0.92
-1.85
-2.82
-3.87
-5.06
-6.42
-7.90
-9.30
-10.41
-11.00
-10.95
-10.25
-8.99
-7.38
-5.61
-3.89
-2.37
-1.12
-0.12
0.74
1.56
2.39
3.20
3.91
4.42
4.74
4.95
5.18
5.52
5.96
6.41
6.75
6.87
6.76
6.46
6.09
5.77
5.55
5.42
5.34
5.22
5.01
4.71
4.34
3.96
3.61
3.28
2.93
2.48
1.84
1.03
0.07
-0.93
-1.88
-2.72
-3.43
-4.06
-4.72
-5.48
-6.46
-7.65
-9.01
-10.38
-11.53
-12.17
-12.07
-11.16
-9.55
-7.58
-5.63
-4.02
-2.84
-1.99
-1.23
-0.33
0.79
2.05
3.25
4.21
4.85
5.16
5.21
5.10
4.90
4.70
4.56
4.53
4.64
4.83
5.04
5.24
5.42
5.57
5.68
5.71
5.56
5.19
4.60
3.88
3.17
2.56
2.06
1.58
0.97
0.10
-1.04
-2.33
-3.61
-4.72
-5.62
-6.37
-7.07
-7.72
-8.18
-8.20
-7.58
-6.27
-4.45
-2.47
-0.68
0.71
1.69
2.39
2.95
3.45
3.88
4.20
4.39
4.50
4.63
4.82
5.06
5.31
5.49
5.58
5.58
5.53
5.48
5.46
5.51
5.62
5.74
5.78
5.63
5.24
4.60
3.83
3.05
2.37
1.79
1.24
0.62
-0.14
-1.03
-1.95
-2.84
-3.65
-4.45
-5.33
-6.36
-7.52
-8.68
-9.63
-10.17
-10.15
-9.53
-8.37
-6.82
-5.09
-3.37
-1.85
-0.62
0.30
0.99
1.59
2.23
2.98
3.81
4.61
5.24
5.61
5.70
5.58
5.36
5.15
5.01
4.94
4.94
4.99
5.10
5.29
5.54
5.77
5.89
5.75
5.29
4.53
3.61
2.69
1.90
1.30
0.81
0.36
-0.13
-0.65
-1.19
-1.69
-2.13
-2.54
-2.95
-3.45
-4.07
-4.87
-5.87
-7.11
-8.50
-9.89
-11.05
-11.72
-11.73
-11.02
-9.66
-7.84
-5.80
-3.78
-2.00
-0.60
0.36
0.94
1.26
1.47
1.70
1.99
2.33
2.72
3.14
3.61
4.10
4.57
4.93
5.10
5.05
4.86
4.63
4.49
4.50
4.65
4.85
5.01
5.02
4.81
4.38
3.75
3.00
2.18
1.37
0.62
-0.04
-0.59
-1.06
-1.48
-1.92
-2.44
-3.12
-3.97
-4.99
-6.13
-7.32
-8.49
-9.49
-10.20
-10.46
-10.14
-9.21
-7.75
-5.98
-4.19
-2.64
-1.49
-0.74
-0.24
0.20
0.74
1.42
2.16
2.81
3.27
3.49
3.59
3.65
3.78
3.96
4.14
4.24
4.21
4.11
4.02
4.00
4.05
4.09
4.05
3.89
3.60
3.25
2.86
2.46
2.05
1.66
1.29
0.91
0.49
-0.05
-0.72
-1.52
-2.38
-3.26
-4.12
-4.99
-5.89
-6.78
-7.58
-8.18
-8.47
-8.41
-7.97
-7.18
-6.03
-4.57
-2.92
-1.25
0.22
1.34
2.02
2.34
2.40
2.38
2.37
2.45
2.61
2.83
3.03
3.18
3.26
3.29
3.32
3.40
3.51
3.60
3.62
3.54
3.40
3.25
3.13
3.02
2.86
2.57
2.11
1.51
0.86
0.22
-0.37
-0.92
-1.50
-2.14
-2.88
-3.71
-4.58
-5.47
-6.30
-6.98
-7.38
-7.37
-6.86
-5.87
-4.53
-3.06
-1.71
-0.63
0.18
0.80
1.34
1.88
2.40
2.86
3.18
3.35
3.40
3.38
3.28
3.13
2.93
2.75
2.67
2.76
3.04
3.45
3.90
4.25
4.41
4.36
4.11
3.71
3.22
2.68
2.13
1.56
0.97
0.35
-0.29
-0.92
-1.52
-2.14
-2.82
-3.69
-4.83
-6.25
-7.86
-9.43
-10.65
-11.27
-11.11
-10.23
-8.82
-7.19
-5.64
-4.33
-3.25
-2.29
-1.33
-0.31
0.69
1.48
1.92
1.94
1.64
1.24
0.98
1.01
1.32
1.80
2.25
2.53
2.65
2.68
2.76
2.95
3.19
3.31
3.13
2.55
1.58
0.42
-0.72
-1.63
-2.25
-2.65
-2.96
-3.32
-3.84
-4.55
-5.45
-6.52
-7.71
-8.92
-10.05
-10.92
-11.38
-11.29
-10.61
-9.41
-7.84
-6.11
-4.43
-2.90
-1.56
-0.36
0.72
1.68
2.49
3.08
3.48
3.72
3.92
4.16
4.47
4.85
5.25
5.64
5.94
6.11
6.06
5.78
5.30
4.74
4.19
3.70
3.25
2.76
2.20
1.55
0.86
0.17
-0.57
-1.44
-2.53
-3.83
-5.22
-6.56
-7.76
-8.89
-10.11
-11.62
-13.45
-15.46
-17.41
-18.95
-19.84
-19.96
-19.38
-18.29
-16.95
-15.60
-14.39
-13.34
-12.46
-11.73
-11.20
-10.94
-11.01
-11.33
-11.70
-11.86
-11.64
-10.99
-10.08
-9.18
-8.55
-8.39
-8.78
-9.69
-11.03
-12.66
-14.43
-16.23
-17.96
-19.56
-21.01
-22.29
-23.38
-24.26
-24.89
-25.26
-25.38
-25.30
-25.07
-24.81
-24.72
-25.01
-25.87
-27.38
-29.45
-31.91
-34.58
-37.27
-39.82
-41.94
-43.24
-43.27
-41.67
-38.32
-33.35
-27.09
-19.91
-12.17
-4.15
3.86
11.63
19.04
26.09
32.95
39.85
46.96
54.31
61.86
69.48
77.11
84.67
92.03
98.97
105.21
110.42
114.33
116.78
117.60
116.63
113.72
108.81
102.02
93.72
84.48
74.96
65.75
57.30
49.83
43.38
37.87
33.09
28.85
24.91
21.07
17.21
13.31
9.48
5.96
3.04
0.87
-0.51
-1.30
-1.83
-2.41
-3.23
-4.28
-5.40
-6.39
-7.14
-7.68
-8.16
-8.78
-9.70
-10.99
-12.63
-14.52
-16.44
-18.18
-19.54
-20.41
-20.82
-20.85
-20.64
-20.23
-19.60
-18.74
-17.70
-16.62
-15.71
-15.06
-14.58
-14.06
-13.24
-11.97
-10.27
-8.35
-6.46
-4.83
-3.58
-2.69
-2.11
-1.67
-1.18
-0.49
0.43
1.35
1.79
1.07
-1.36
-5.78
-11.95
-19.19
-26.55
-33.09
-38.15
-41.42
-43.01
-43.24
-42.53
-41.26
-39.72
-38.10
-36.50
-34.93
-33.36
-31.72
-29.95
-27.98
-25.83
-23.53
-21.16
-18.83
-16.67
-14.86
-13.63
-13.14
-13.51
-14.72
-16.58
-18.80
-21.08
-23.20
-25.04
-26.65
-28.10
-29.50
-30.91
-32.25
-33.41
-34.20
-34.46
-34.11
-33.14
-31.58
-29.50
-26.96
-24.05
-20.82
-17.35
-13.65
-9.60
-4.97
0.51
7.02
14.48
22.48
30.38
37.50
43.39
47.89
51.15
53.48
55.12
56.19
56.64
56.37
55.35
53.66
51.46
48.90
46.10
43.14
40.12
37.21
34.69
32.80
31.71
31.41
31.72
32.30
32.85
33.12
33.01
32.53
31.81
30.93
30.01
29.03
27.89
26.41
24.38
21.65
18.18
14.07
9.54
4.87
0.43
-3.43
-6.39
-8.29
-9.21
-9.52
-9.77
-10.45
-11.81
-13.70
-15.76
-17.60
-18.98
-19.94
-20.59
-21.00
-21.09
-20.73
-19.90
-18.80
-17.77
-17.13
-16.92
-16.87
-16.52
-15.46
-13.59
-11.23
-9.05
-7.80
-8.02
-9.83
-12.88
-16.50
-19.97
-22.83
-24.92
-26.35
-27.34
-28.00
-28.35
-28.36
-28.04
