1520861190.00
64.000000
-0.00
-0.00
-0.00
-0.00
-0.00
-0.00
-0.00
-0.00
-0.00
-0.00
0.00
0.01
0.01
-0.00
-0.03
-0.05
-0.05
0.00
0.13
0.36
0.66
1.01
1.37
1.72
2.06
2.40
2.79
3.24
3.80
4.42
5.06
5.66
6.20
6.68
7.15
7.68
8.31
9.14
10.09
11.04
11.88
12.56
13.14
13.76
14.65
15.96
17.91
20.32
22.90
25.38
27.58
29.57
31.68
34.32
37.81
42.54
48.15
54.10
59.83
64.97
69.58
74.14
79.34
85.71
93.76
103.00
112.62
121.73
129.77
136.75
143.30
150.75
157.77
166.64
177.95
191.79
206.97
220.57
228.25
225.36
208.53
176.87
132.76
80.05
23.07
-34.94
-92.44
-149.16
-205.23
-260.37
-313.74
-363.87
-409.83
-450.91
-486.50
-515.74
-537.23
-549.22
-549.96
-538.37
-514.21
-478.67
-433.88
-382.45
-327.02
-269.84
-212.63
-156.66
-102.95
-52.37
-5.90
35.58
71.43
101.35
125.50
144.38
158.69
169.15
176.37
180.75
182.57
182.07
179.51
175.23
169.65
163.18
156.15
148.81
141.30
133.69
126.02
118.33
110.69
103.16
95.80
88.68
81.83
75.25
68.95
62.95
57.25
51.86
46.78
42.03
37.59
33.45
29.61
26.07
22.81
19.83
17.11
14.67
12.48
10.54
8.83
7.35
6.07
4.97
4.05
3.27
2.62
2.09
1.65
1.30
1.01
0.79
0.61
0.47
0.37
0.29
0.23
0.18
0.16
0.14
0.13
0.14
0.15
0.17
0.19
0.23
0.26
0.30
0.34
0.39
0.43
0.48
0.53
0.58
0.63
0.68
0.74
0.80
0.87
0.94
1.03
1.11
1.22
1.33
1.46
1.60
1.75
1.93
2.13
2.35
2.59
2.86
3.16
3.49
3.85
4.24
4.66
5.12
5.62
6.16
6.74
7.35
8.01
8.72
9.47
10.26
11.10
11.98
12.91
13.88
14.92
16.02
17.19
18.40
19.66
20.93
22.14
23.24
24.11
24.65
24.71
24.20
23.01
21.10
18.46
15.14
11.22
6.87
2.29
-2.30
-6.70
-10.69
-14.10
-16.82
-18.76
-19.92
-20.32
-20.06
-19.25
-18.00
-16.42
-14.61
-12.66
-10.63
-8.58
-6.54
-4.57
-2.71
-0.93
0.78
2.50
4.24
6.06
7.96
9.99
12.04
14.07
16.10
18.19
20.39
22.78
25.37
28.21
31.33
34.49
37.60
40.68
43.85
47.22
50.91
54.95
59.29
63.94
68.43
72.58
76.45
80.25
84.27
88.66
93.36
98.15
102.79
106.41
108.59
109.28
108.65
106.83
103.54
97.77
87.44
74.62
59.37
41.81
22.49
2.17
-18.28
-38.21
-57.42
-76.04
-94.51
-114.14
-136.18
-161.54
-190.31
-221.11
-250.80
-274.95
-289.04
-289.90
-277.39
-253.95
-223.64
-190.83
-158.88
-129.67
-103.83
-81.39
-62.19
-46.43
-33.95
-24.14
-16.05
-8.76
-1.71
5.16
11.57
17.13
21.47
24.60
26.81
28.58
30.36
32.44
34.81
37.14
38.89
39.41
38.32
35.63
31.89
27.98
24.82
22.97
22.42
22.71
23.18
23.39
23.32
23.35
24.08
25.87
28.70
32.08
35.31
37.73
38.97
38.97
37.73
35.15
31.04
25.19
17.72
9.07
-0.18
-9.68
-19.58
-30.33
-42.21
-54.76
-66.81
-76.92
-84.34
-89.52
-93.98
-99.63
-107.79
-118.69
-131.49
-144.82
-157.17
-167.23
-173.99
-176.72
-174.96
-168.74
-158.77
-146.55
-134.14
-123.46
-115.61
-110.33
-106.08
-100.67
-92.19
-79.89
-64.56
-48.21
-33.18
-21.26
-13.06
-8.09
-5.31
-3.57
-1.85
0.79
5.29
12.47
22.65
35.41
49.58
63.68
76.38
87.17
96.50
105.47
115.29
126.68
139.67
153.76
168.35
183.00
197.37
211.00
223.13
232.70
238.75
240.85
239.33
235.23
229.87
224.29
218.92
213.52
207.47
200.11
191.14
180.63
168.97
156.58
143.87
131.25
119.27
108.71
100.41
94.97
92.22
91.13
89.93
86.77
80.34
70.35
57.45
42.81
27.52
12.18
-3.10
-18.51
-34.07
-49.40
-63.77
-76.26
-86.04
-92.67
-96.11
-96.60
-94.47
-89.95
-83.08
-73.88
-62.43
-49.11
-34.52
-19.38
-4.26
10.54
24.95
38.87
51.95
63.44
72.34
77.68
78.95
76.22
70.16
61.72
51.82
41.09
29.77
17.94
5.73
-6.48
-18.10
-28.44
-37.05
-43.77
-48.71
-52.09
-54.02
-54.44
-53.12
-49.78
-44.16
-36.03
-25.23
-12.01
2.82
17.57
29.89
37.33
38.21
32.27
20.85
6.40
-8.47
-21.83
-32.88
-41.76
-48.96
-54.83
-59.46
-62.92
-65.62
-68.56
-73.01
-80.17
-90.63
-104.21
-120.25
-137.93
-156.72
-176.20
-195.98
-215.06
-231.82
-244.21
-250.29
-248.90
-239.97
-224.50
-204.07
-180.37
-154.80
-128.41
-102.06
-76.61
-53.02
-32.14
-14.51
-0.12
11.52
21.21
29.69
37.34
44.10
49.58
53.36
55.28
55.54
54.68
53.27
51.70
49.98
47.70
44.32
39.44
33.06
25.63
17.89
10.60
4.35
-0.53
-3.91
-5.67
-5.77
-4.20
-1.11
3.16
8.08
13.07
17.61
21.39
24.29
26.33
27.58
28.11
28.01
27.42
26.49
25.46
24.52
23.85
23.45
23.20
22.84
22.16
21.01
19.42
17.50
15.42
13.27
11.08
8.74
6.14
3.08
-0.56
-4.80
-9.50
-14.32
-18.69
-21.95
-23.45
-22.81
-20.06
-15.68
-10.42
-5.02
-0.09
4.15
7.65
10.42
12.43
13.58
13.79
13.19
12.13
11.06
10.39
10.26
10.50
10.78
10.75
10.21
9.12
7.66
6.01
4.29
2.52
0.66
-1.33
-3.52
-5.94
-8.64
-11.70
-15.17
-19.00
-22.88
-26.31
-28.54
-28.94
-27.09
-23.10
-17.48
-11.06
-4.72
0.90
5.41
8.76
11.03
12.33
12.71
12.20
10.94
9.24
7.56
6.37
5.94
6.23
6.89
7.41
7.34
6.42
4.70
2.46
0.03
-2.34
-4.60
-6.82
-9.22
-11.99
-15.26
-19.07
-23.37
-27.97
-32.52
-36.50
-39.23
-40.00
-38.29
-33.99
-27.45
-19.44
-10.90
-2.72
4.48
10.41
15.06
18.54
20.97
22.51
23.28
23.45
23.28
23.02
22.85
22.85
22.93
22.95
22.71
22.09
21.01
19.45
17.44
15.03
12.29
9.35
6.27
3.08
-0.28
-3.96
-8.10
-12.75
-17.81
-22.99
-27.79
-31.57
-33.68
-33.55
-30.92
-25.83
-18.69
-10.22
-1.23
7.42
15.03
21.09
25.35
27.86
28.93
29.02
28.58
27.98
27.43
27.01
26.73
26.56
26.44
26.29
25.97
25.28
24.03
22.17
19.69
16.74
13.49
10.16
6.87
3.62
0.27
-3.41
-7.68
-12.62
-18.10
-23.71
-28.80
-32.62
-34.51
-33.94
-30.68
-24.81
-16.80
-7.44
2.26
11.30
18.90
24.61
28.43
30.55
31.30
30.95
29.79
28.12
26.39
25.08
24.54
24.88
25.83
26.87
27.48
27.31
26.33
24.68
22.55
20.02
17.09
13.75
10.08
6.30
2.56
-1.12
-4.96
-9.31
-14.41
-20.14
-25.98
-31.05
-34.38
-35.15
-32.99
-28.03
-20.83
-12.25
-3.19
5.51
13.22
19.50
24.02
26.69
27.61
27.09
25.63
23.80
22.13
20.94
20.37
20.33
20.59
20.86
20.85
20.32
19.19
17.55
15.62
13.63
11.70
9.81
7.82
5.59
3.02
0.04
-3.43
-7.48
-12.14
-17.28
-22.50
-27.15
-30.48
-31.76
-30.55
-26.69
-20.41
-12.35
-3.44
5.26
12.84
18.69
22.65
24.94
26.00
26.27
26.08
25.61
24.94
24.18
23.46
22.91
22.62
22.54
22.50
22.26
21.58
20.32
18.42
15.96
13.05
9.79
6.29
2.64
-1.05
-4.67
-8.15
-11.52
-14.94
-18.59
-22.57
-26.69
-30.38
-32.87
-33.28
-31.03
-26.02
-18.70
-9.98
-0.95
7.36
14.23
19.27
22.45
23.92
23.98
22.93
21.08
18.80
16.48
14.50
13.17
12.64
12.79
13.27
13.62
13.45
12.62
11.21
9.43
7.49
5.43
3.19
0.67
-2.20
-5.38
-8.83
-12.55
-16.56
-20.83
-25.05
-28.73
-31.16
-31.68
-29.91
-25.83
-19.84
-12.60
-4.96
2.27
8.36
12.83
15.50
16.47
16.05
14.71
12.93
11.12
9.63
8.68
8.37
8.66
9.37
10.13
10.50
10.12
8.81
6.64
3.94
1.10
-1.52
-3.83
-5.94
-8.21
-10.94
-14.36
-18.48
-23.06
-27.64
-31.60
-34.17
-34.63
-32.54
-27.86
-21.07
-13.06
-4.88
2.55
8.66
13.18
16.09
17.47
17.46
16.32
14.44
12.36
10.62
9.63
9.50
10.02
10.80
11.40
11.47
10.77
9.25
6.95
4.04
0.73
-2.74
-6.18
-9.48
-12.70
-16.00
-19.60
-23.64
-28.08
-32.56
-36.54
-39.32
-40.26
-38.89
-35.04
-28.89
-20.97
-12.11
-3.27
4.72
11.25
16.05
19.16
20.79
21.21
20.66
19.43
17.82
16.20
14.88
14.02
13.55
13.19
12.59
11.51
9.89
7.85
5.58
3.28
0.99
-1.34
-3.84
-6.62
-9.74
-13.25
-17.21
-21.67
-26.57
-31.67
-36.41
-39.97
-41.48
-40.29
-36.23
-29.66
-21.40
-12.47
-3.75
4.08
10.67
15.87
19.63
21.98
22.99
22.82
21.76
20.22
18.68
17.54
17.02
17.10
17.58
18.18
18.61
18.64
18.13
17.05
15.38
13.08
10.16
6.72
2.94
-0.93
-4.73
-8.46
-12.33
-16.64
-21.58
-27.01
-32.35
-36.72
-39.08
-38.68
-35.19
-28.88
-20.47
-10.97
-1.48
7.07
13.99
18.97
22.07
23.59
23.99
23.69
23.01
22.15
21.24
20.40
19.78
19.46
19.46
19.57
19.47
18.77
17.19
14.73
11.61
8.23
4.96
1.93
-0.88
-3.73
-6.91
-10.59
-14.85
-19.64
-24.86
-30.24
-35.34
-39.48
-41.87
-41.75
-38.74
-32.98
-25.13
-16.23
-7.36
0.63
7.26
12.39
16.09
18.48
19.66
19.81
19.17
18.12
17.13
16.55
16.56
17.11
17.94
18.69
19.09
18.97
18.27
16.99
15.17
12.85
10.14
7.16
4.04
0.85
-2.44
-5.99
-10.05
-14.78
-20.15
-25.79
-31.00
-34.89
-36.59
-35.52
-31.57
-25.15
-17.11
-8.49
-0.29
6.73
12.18
15.99
18.31
19.43
19.65
19.18
18.21
16.92
15.50
14.25
13.39
13.09
13.30
13.79
14.20
14.21
13.57
12.21
10.17
7.54
4.41
0.86
-3.04
-7.23
-11.64
-16.24
-20.98
-25.77
-30.38
-34.31
-36.93
-37.53
-35.61
-31.04
-24.16
-15.70
-6.61
2.12
9.64
15.31
18.81
20.15
19.66
17.89
15.50
13.07
11.00
9.54
8.75
8.59
8.93
9.45
9.70
9.20
7.71
5.26
2.22
-0.92
-3.84
-6.52
-9.23
-12.39
-16.27
-20.95
-26.22
-31.69
-36.84
-41.09
-43.81
-44.39
-42.38
-37.62
-30.40
-21.39
-11.55
-1.89
6.76
13.84
19.13
22.62
24.42
24.72
23.71
21.77
19.41
17.25
15.83
15.46
16.06
17.22
18.34
18.84
18.34
16.71
14.07
10.70
6.90
2.97
-0.90
-4.69
-8.56
-12.84
-17.90
-23.87
-30.49
-37.09
-42.64
-46.08
-46.57
-43.70
-37.61
-28.93
-18.68
-7.94
2.20
10.98
17.92
22.86
25.92
27.38
27.62
27.08
26.25
25.51
25.21
25.45
26.12
26.94
27.48
27.43
26.57
24.93
22.62
19.87
16.82
13.56
10.09
6.33
2.20
-2.38
-7.49
-13.17
-19.41
-26.02
-32.63
-38.60
-43.09
-45.23
-44.34
-40.12
-32.83
-23.23
-12.41
-1.59
8.22
16.33
22.47
26.66
29.14
30.23
30.30
29.69
28.73
27.68
26.74
26.01
25.56
25.40
25.42
25.46
25.26
24.52
23.02
20.62
17.38
13.49
9.23
4.92
0.78
-3.13
-6.97
-11.05
-15.69
-21.11
-27.18
-33.33
-38.67
-42.13
-42.78
-40.10
-34.15
-25.55
-15.35
-4.74
5.14
13.47
19.75
23.83
25.82
26.03
24.97
23.24
21.40
19.93
19.03
18.67
18.66
18.80
18.94
18.96
18.73
18.06
16.71
14.45
11.27
7.39
3.19
-0.91
-4.65
-8.10
-11.57
-15.41
-19.84
-24.80
-29.89
-34.46
-37.82
-39.31
-38.44
-34.94
-28.84
-20.51
-10.66
-0.32
9.39
17.51
23.50
27.23
29.01
29.31
28.63
27.38
25.90
24.44
23.25
22.56
22.49
23.01
23.86
24.57
24.65
23.64
21.37
17.93
13.71
9.21
4.91
1.06
-2.37
-5.65
-9.16
-13.28
-18.21
-23.91
-30.04
-35.94
-40.69
-43.29
-42.88
-39.02
-31.87
-22.27
-11.44
-0.76
8.63
16.08
21.35
24.56
25.93
25.69
24.14
21.75
19.15
17.07
16.06
16.28
17.46
18.99
20.22
20.65
20.14
18.74
16.62
13.94
10.78
7.26
3.56
-0.21
-3.95
-7.76
-11.85
-16.45
-21.66
-27.25
-32.66
-37.04
-39.45
-39.10
-35.60
-29.10
-20.36
-10.56
-1.00
7.23
13.52
17.70
19.99
20.67
20.03
18.34
15.96
13.40
11.22
9.91
9.69
10.41
11.63
12.78
13.36
13.02
11.68
9.48
6.71
3.70
0.69
-2.21
-5.12
-8.29
-12.05
-16.59
-21.85
-27.37
-32.36
-35.83
-36.87
-34.88
-29.78
-22.04
-12.62
-2.71
6.54
14.27
20.04
23.79
25.78
26.35
25.85
24.52
22.66
20.58
18.73
17.50
17.13
17.51
18.20
18.60
18.19
16.79
14.52
11.70
8.63
5.46
2.14
-1.51
-5.63
-10.32
-15.54
-21.19
-27.06
-32.78
-37.78
-41.32
-42.62
-41.04
-36.36
-28.87
-19.36
-8.89
1.42
10.67
18.26
23.85
27.37
28.79
28.23
25.98
22.60
18.80
15.43
13.07
11.94
11.81
12.13
12.27
11.80
10.53
8.55
6.03
3.21
0.21
-2.88
-6.07
-9.43
-13.08
-17.20
-21.93
-27.29
-33.05
-38.63
-43.17
-45.69
-45.32
-41.59
-34.67
-25.27
-14.54
-3.78
5.86
13.60
19.07
22.25
23.43
23.09
21.72
19.91
18.13
16.74
15.95
15.79
16.15
16.79
17.37
17.60
17.18
16.03
14.24
12.04
9.71
7.43
5.16
2.68
-0.39
-4.40
-9.59
-15.84
-22.70
-29.31
-34.67
-37.73
-37.78
-34.57
-28.46
-20.25
-10.96
-1.60
6.97
14.14
19.54
23.01
24.60
24.56
23.37
21.57
19.77
18.40
17.68
17.56
17.78
17.93
17.66
16.74
15.16
13.09
10.82
8.60
6.52
4.53
2.35
-0.36
-3.93
-8.57
-14.23
-20.61
-27.08
-32.79
-36.81
-38.31
-36.82
-32.38
-25.54
-17.19
-8.37
0.01
7.28
13.05
17.14
19.53
20.32
19.71
18.07
15.89
13.71
12.02
11.07
10.87
11.18
11.66
11.95
11.82
11.20
10.10
8.66
6.95
5.06
2.92
0.35
-2.94
-7.21
-12.54
-18.67
-24.93
-30.34
-33.86
-34.68
-32.42
-27.27
-19.91
-11.31
-2.49
5.62
12.32
17.16
19.97
20.78
19.81
17.54
14.53
11.39
8.72
6.90
6.08
6.13
6.68
7.28
7.49
7.00
5.74
3.83
1.50
-1.05
-3.77
-6.83
-10.55
-15.21
-20.85
-27.10
-33.17
-37.99
-40.50
-39.97
-36.22
-29.68
-21.29
-12.21
-3.53
3.93
9.70
13.60
15.69
16.12
15.15
13.16
10.66
8.20
6.27
5.19
4.99
5.43
6.10
6.57
6.55
5.97
4.95
3.71
2.35
0.81
-1.19
-4.01
-7.95
-13.01
-18.87
-24.80
-29.85
-33.00
-33.42
-30.66
-24.79
-16.41
-6.57
3.51
12.64
19.96
24.99
27.67
28.27
27.25
25.23
22.81
20.49
18.57
17.10
15.92
14.75
13.36
11.62
9.53
7.17
4.60
1.79
-1.38
-5.13
-9.69
-15.23
-21.70
-28.82
-35.89
-41.97
-46.02
-47.17
-45.08
-39.96
-32.53
-23.75
-14.59
-5.85
1.92
8.33
13.09
16.02
17.09
16.51
14.76
12.47
10.30
8.66
7.65
7.04
6.42
5.39
3.76
1.53
-1.10
-3.92
-6.86
-10.03
-13.70
-18.18
-23.67
-30.20
-37.57
-45.26
-52.43
-58.01
-60.91
-60.27
-55.80
-47.87
-37.41
-25.69
-13.93
-3.05
6.44
14.30
20.51
25.10
28.16
29.86
30.49
30.43
30.01
29.53
29.13
28.83
28.51
28.06
27.32
26.21
24.62
22.46
19.60
15.98
11.58
6.51
1.07
-4.44
-9.81
-15.05
-20.42
-26.28
-32.94
-40.44
-48.44
-56.20
-62.67
-66.68
-67.24
-63.78
-56.36
-45.67
-32.93
-19.47
-6.52
5.07
14.89
22.86
29.10
33.75
36.97
38.95
39.93
40.24
40.22
40.09
39.96
39.81
39.58
39.26
38.88
38.46
37.97
37.19
35.79
33.41
29.84
25.10
19.50
13.44
7.37
1.59
-3.76
-8.74
-13.60
-18.74
-24.58
-31.41
-39.17
-47.26
-54.52
-59.47
-60.76
-57.64
-50.24
-39.51
-26.88
-13.83
-1.52
9.41
18.69
26.31
32.32
36.77
39.77
41.53
42.38
42.71
42.91
43.23
43.78
44.43
44.94
45.00
44.45
43.29
41.71
39.96
38.12
36.08
33.52
30.12
25.73
20.49
14.77
9.02
3.61
-1.33
-5.89
-10.35
-15.04
-20.31
-26.43
-33.51
-41.32
-49.23
-56.20
-60.97
-62.36
-59.63
-52.73
-42.32
-29.65
-16.20
-3.35
7.89
17.01
23.94
28.85
32.05
33.88
34.66
34.75
34.55
34.39
34.56
35.14
36.02
36.95
37.56
37.53
36.74
35.23
33.25
31.04
28.75
26.32
23.54
20.22
16.30
11.94
7.43
3.12
-0.78
-4.26
-7.48
-10.73
-14.41
-18.84
-24.23
-30.51
-37.25
-43.54
-48.23
-50.14
-48.44
-42.92
-34.02
-22.80
-10.60
1.26
11.70
20.03
25.95
29.47
30.89
30.63
29.24
27.32
25.41
24.00
23.36
23.56
24.44
25.63
26.76
27.48
27.60
27.10
26.08
24.64
22.83
20.61
17.84
14.41
10.32
5.74
1.01
-3.52
-7.55
-11.02
-14.16
-17.34
-21.03
-25.57
-31.01
-37.01
-42.83
-47.43
-49.72
-48.81
-44.33
-36.52
-26.21
-14.65
-3.14
7.19
15.62
21.82
25.80
27.78
28.14
27.31
25.84
24.29
23.18
22.84
23.33
24.38
25.56
26.39
26.58
26.12
25.17
23.96
22.61
21.05
19.04
16.35
12.84
8.63
4.02
-0.56
-4.68
-8.11
-10.84
-13.15
-15.46
-18.25
-21.87
-26.45
-31.82
-37.47
-42.60
-46.22
-47.32
-45.18
-39.60
-31.07
-20.67
-9.77
0.36
8.83
15.25
19.58
21.95
22.54
21.57
19.43
16.71
14.19
12.57
12.21
13.07
14.68
16.43
17.77
18.40
18.26
17.45
16.17
14.53
12.63
10.47
7.99
5.14
1.92
-1.53
-4.97
-8.16
-10.98
-13.47
-15.93
-18.67
-21.98
-25.99
-30.62
-35.54
-40.23
-43.92
-45.71
-44.79
-40.70
-33.58
-24.25
-13.97
-4.06
4.42
10.93
15.37
17.95
19.00
18.85
17.86
16.36
14.77
13.45
12.66
12.49
12.85
13.49
14.13
14.51
14.47
13.95
13.00
11.61
9.76
7.38
4.44
0.96
-2.85
-6.68
-10.23
-13.28
-15.81
-18.02
-20.30
-23.05
-26.62
-31.04
-35.97
-40.69
-44.23
-45.61
-44.15
-39.67
-32.57
-23.74
-14.27
-5.25
2.51
8.54
12.73
15.19
16.23
16.16
15.34
14.08
12.68
11.43
10.56
10.25
10.47
11.05
11.68
12.06
11.96
11.34
10.25
8.77
6.97
4.82
2.34
-0.40
-3.23
-5.98
-8.54
-10.97
-13.49
-16.33
-19.67
-23.51
-27.67
-31.82
-35.48
-38.10
-39.06
-37.82
-34.11
-27.98
-19.96
-10.96
-2.05
5.75
11.73
15.58
17.36
17.41
16.19
14.22
12.01
10.00
8.51
7.67
7.44
7.67
8.21
8.89
9.58
10.08
10.08
9.24
7.32
4.35
0.68
-3.18
-6.76
-9.84
-12.57
-15.22
-18.13
-21.47
-25.19
-29.12
-33.00
-36.48
-39.09
-40.24
-39.31
-35.91
-30.08
-22.39
-13.81
-5.43
1.78
7.23
10.74
12.45
12.66
11.79
10.23
8.34
6.50
5.02
4.15
4.03
4.60
5.67
6.86
7.77
8.02
7.40
5.92
3.72
1.02
-1.96
-5.11
-8.35
-11.69
-15.13
-18.74
-22.70
-27.17
-32.18
-37.45
-42.33
-45.86
-47.04
-45.23
-40.32
-32.88
-23.93
-14.66
-6.09
1.04
6.33
9.67
11.12
10.94
9.51
7.36
5.06
3.11
1.85
1.40
1.63
2.28
3.00
3.53
3.64
3.19
2.13
0.40
-2.02
-5.09
-8.71
-12.72
-16.92
-21.22
-25.66
-30.45
-35.80
-41.73
-47.83
-53.29
-57.04
-58.03
-55.64
-49.78
-40.98
-30.24
-18.77
-7.75
1.94
9.70
15.33
18.96
20.90
21.62
21.49
20.89
20.07
19.30
18.75
18.61
18.90
19.56
20.34
20.90
20.84
19.79
17.59
14.27
10.14
5.64
1.19
-2.98
-6.92
-10.89
-15.21
-20.15
-25.87
-32.34
-39.40
-46.66
-53.41
-58.60
-61.04
-59.69
-54.15
-44.75
-32.68
-19.52
-6.84
4.21
13.03
19.54
23.93
26.52
27.68
27.82
27.40
26.94
26.92
27.58
28.90
30.57
32.14
33.21
33.58
33.23
32.31
30.91
29.00
26.39
22.89
18.45
13.27
7.73
2.25
-2.88
-7.63
-12.28
-17.30
-23.14
-30.03
-37.79
-45.73
-52.70
-57.36
-58.47
-55.26
-47.73
-36.65
-23.36
-9.48
3.52
14.58
23.15
29.17
32.92
34.88
35.60
35.63
35.48
35.54
36.04
37.05
38.45
40.00
41.40
42.38
42.76
42.46
41.53
40.07
38.15
35.81
32.92
29.36
25.00
19.89
14.29
8.67
3.49
-0.95
-4.69
-8.18
-12.09
-17.09
-23.58
-31.43
-39.97
-48.10
-54.45
-57.70
-56.91
-51.73
-42.57
-30.50
-17.00
-3.64
8.31
18.06
25.41
30.49
33.74
35.64
36.64
37.15
37.50
37.99
38.83
40.07
41.62
43.25
44.64
45.45
45.47
44.65
43.10
41.01
38.56
35.82
32.72
29.12
24.94
20.20
15.06
9.77
4.61
-0.22
-4.66
-8.82
-13.02
-17.71
-23.32
-30.08
-37.83
-45.89
-53.15
-58.24
-59.93
-57.42
-50.66
-40.34
-27.68
-14.19
-1.23
10.15
19.39
26.33
31.12
34.05
35.50
35.91
35.74
35.49
35.63
36.41
37.86
39.75
41.67
43.18
43.96
43.88
42.99
41.49
39.60
37.41
34.90
31.88
28.14
23.54
18.15
12.26
6.31
0.75
-4.16
-8.46
-12.45
-16.64
-21.52
-27.44
-34.39
-42.01
-49.56
-55.91
-59.84
-60.22
-56.40
-48.46
-37.24
-24.13
-10.67
1.79
12.45
21.00
27.42
31.86
34.47
35.50
35.37
34.69
34.15
34.35
35.50
37.42
39.58
41.40
42.41
42.45
41.58
40.02
38.00
35.65
33.05
30.14
26.85
23.08
18.76
13.89
8.55
2.91
-2.74
-8.07
-12.76
-16.71
-20.04
-23.21
-26.85
-31.54
-37.51
-44.50
-51.67
-57.87
-61.88
-62.67
-59.67
-52.81
-42.58
-30.01
-16.46
-3.47
7.64
16.01
21.43
24.23
25.07
24.72
23.81
22.90
22.42
22.67
23.82
25.75
28.06
30.19
31.61
32.02
31.50
30.32
28.84
27.28
25.58
23.51
20.77
17.18
12.80
7.96
3.09
-1.42
-5.32
-8.64
-11.64
-14.72
-18.37
-22.96
-28.60
-35.01
-41.44
-46.78
-49.85
-49.66
-45.76
-38.35
-28.21
-16.49
-4.48
6.71
16.23
23.55
28.43
30.98
31.54
30.72
29.21
27.72
26.76
26.61
27.26
28.50
29.99
31.30
32.11
32.21
31.54
30.19
28.29
25.88
22.90
19.17
14.54
9.09
3.11
-2.86
-8.32
-12.99
-17.01
-20.78
-24.89
-29.79
-35.66
-42.30
-49.17
-55.46
-60.18
-62.27
-60.94
-55.80
-47.11
-35.81
-23.27
-10.93
0.05
9.05
15.91
20.76
23.86
25.46
25.86
25.45
24.73
24.18
24.11
24.60
25.45
26.38
27.08
27.38
27.20
26.57
25.59
24.29
22.66
20.61
17.94
14.47
10.15
5.13
-0.27
-5.66
-10.69
-15.26
-19.47
-23.55
-27.85
-32.68
-38.26
-44.59
-51.33
-57.67
-62.40
-64.19
-62.00
-55.49
-45.23
-32.53
-19.06
-6.32
4.62
13.27
19.61
23.90
26.47
27.71
27.94
27.50
26.80
26.18
25.98
26.40
27.36
28.60
29.67
30.14
29.75
28.59
26.92
25.06
23.18
21.21
18.90
15.97
12.28
7.95
3.29
-1.35
-5.69
-9.67
-13.43
-17.22
-21.31
-25.92
-31.17
-37.03
-43.29
-49.41
-54.47
-57.33
-56.84
-52.38
-44.04
-32.77
-20.14
-7.78
3.02
11.67
18.08
22.57
25.48
27.07
27.59
27.33
26.74
26.25
26.17
26.50
27.00
27.28
27.09
26.42
25.44
24.39
23.37
22.28
20.84
18.81
16.03
12.54
8.50
4.14
-0.32
-4.73
-8.95
-12.92
-16.65
-20.31
-24.26
-28.92
-34.58
-41.09
-47.80
-53.55
-57.03
-57.11
-53.27
-45.76
-35.48
-23.71
-11.75
-0.67
8.83
16.43
22.01
25.64
27.46
27.74
26.84
25.29
23.66
22.50
22.14
22.60
23.62
24.76
25.58
25.77
25.24
24.10
22.52
20.62
18.41
15.77
12.53
8.60
4.06
-0.84
-5.75
-10.29
-14.26
-17.72
-21.05
-24.77
-29.41
-35.22
-41.99
-49.04
-55.32
-59.65
-61.04
-58.94
-53.32
-44.68
-33.98
-22.36
-11.02
-0.91
7.31
13.36
17.24
19.22
19.65
19.03
17.90
16.83
16.24
16.32
16.99
17.94
18.84
19.46
19.76
19.80
19.58
18.96
17.69
15.52
12.35
8.35
3.86
-0.68
-4.91
-8.64
-11.94
-15.08
-18.48
-22.55
-27.49
-33.12
-38.84
-43.67
-46.46
-46.23
-42.41
-35.12
-25.09
-13.58
-2.02
8.27
16.39
21.95
25.08
26.21
25.92
24.73
23.04
21.19
19.41
17.95
17.00
16.64
16.84
17.39
17.96
18.20
17.78
16.50
14.30
11.29
7.64
3.57
-0.67
-4.92
-9.07
-13.15
-17.35
-21.90
-27.06
-32.91
-39.23
-45.41
-50.51
-53.47
-53.29
-49.45
-41.99
-31.64
-19.59
-7.28
3.96
13.15
19.80
23.94
25.93
26.34
25.78
24.76
23.68
22.79
22.20
21.96
22.00
22.20
22.46
22.67
22.73
22.50
21.79
20.34
17.96
14.57
10.23
5.17
-0.27
-5.76
-11.05
-16.00
-20.73
-25.48
-30.64
-36.55
-43.24
-50.28
-56.76
-61.43
-63.06
-60.80
-54.49
-44.71
-32.64
-19.73
-7.39
3.32
11.79
17.90
21.83
23.97
24.76
24.64
23.99
23.21
22.60
22.43
22.74
23.44
24.27
24.94
25.19
24.89
24.01
22.58
20.57
17.94
14.60
10.57
5.98
1.14
-3.62
-8.01
-11.97
-15.72
-19.74
-24.54
-30.51
-37.64
-45.37
-52.61
-57.98
-60.14
-58.19
-51.98
-42.20
-30.15
-17.43
-5.51
4.63
12.50
18.08
21.63
23.56
24.29
24.30
24.09
24.09
24.61
25.73
27.27
28.92
30.34
31.34
31.91
32.09
31.91
31.28
29.96
27.72
24.42
20.12
15.10
9.72
4.42
-0.53
-5.00
-9.12
-13.23
-17.81
-23.35
-30.07
-37.74
-45.57
-52.20
-56.07
-55.85
-50.94
-41.70
-29.42
-15.96
-3.15
7.65
15.82
21.40
24.81
26.58
27.13
26.80
25.90
24.79
23.85
23.40
23.58
24.25
25.08
25.69
25.81
25.35
24.42
23.14
21.55
19.52
16.83
13.33
9.08
4.40
-0.27
-4.59
-8.55
-12.50
-16.90
-22.27
-28.75
-36.12
-43.66
-50.28
-54.73
-55.81
-52.73
-45.44
-34.78
-22.28
-9.83
1.01
9.39
15.24
19.06
21.45
22.81
23.26
22.86
21.82
20.60
19.78
19.79
20.69
22.18
23.72
24.78
25.01
24.23
22.47
19.85
16.61
13.02
9.36
5.82
2.37
-1.19
-5.20
-9.96
-15.65
-22.24
-29.41
-36.50
-42.52
-46.33
-46.81
-43.33
-35.98
-25.63
-13.75
-1.93
8.54
16.96
23.19
27.53
30.36
32.02
32.77
32.80
32.36
31.73
31.22
31.02
31.17
31.51
31.74
31.56
30.71
29.01
26.38
22.83
18.43
13.37
7.95
2.55
-2.55
-7.28
-11.85
-16.61
-22.05
-28.48
-35.98
-44.20
-52.32
-59.08
-63.09
-63.13
-58.62
-49.84
-37.95
-24.56
-11.33
0.47
10.16
17.54
22.79
26.25
28.34
29.53
30.27
30.90
31.58
32.29
32.85
33.08
32.82
32.06
30.90
29.43
27.73
25.77
23.43
20.49
16.79
12.30
7.19
1.81
-3.44
-8.31
-12.81
-17.26
-22.16
-27.98
-34.87
-42.49
-49.98
-56.06
-59.38
-58.86
-54.02
-45.20
-33.45
-20.29
-7.28
4.34
13.89
21.16
26.34
29.76
31.78
32.72
32.98
32.92
32.92
33.22
33.90
34.77
35.57
36.00
35.88
35.21
