1520862806.00
64.000000
-0.00
-0.00
-0.00
-0.00
-0.00
-0.00
-0.00
-0.00
-0.00
-0.00
0.00
0.01
0.01
-0.00
-0.03
-0.05
-0.05
0.00
0.13
0.36
0.66
1.01
1.37
1.72
2.06
2.40
2.79
3.24
3.80
4.42
5.06
5.66
6.20
6.68
7.15
7.68
8.31
9.14
10.09
11.04
11.88
12.56
13.14
13.76
14.65
15.96
17.91
20.32
22.90
25.38
27.58
29.57
31.68
34.32
37.81
42.54
48.15
54.10
59.83
64.97
69.58
74.14
79.34
85.71
93.76
103.00
112.62
121.73
129.77
136.75
143.30
150.75
157.77
166.64
177.95
191.79
206.97
220.57
228.25
225.36
208.53
176.87
132.76
80.05
23.07
-34.94
-92.44
-149.16
-205.23
-260.37
-313.74
-363.87
-409.83
-450.91
-486.50
-515.74
-537.23
-549.22
-549.96
-538.37
-514.21
-478.67
-433.88
-382.45
-327.02
-269.84
-212.63
-156.66
-102.95
-52.37
-5.90
35.58
71.43
101.35
125.50
144.38
158.69
169.15
176.37
180.75
182.57
182.07
179.51
175.23
169.65
163.18
156.15
148.81
141.30
133.69
126.02
118.33
110.69
103.16
95.80
88.68
81.83
75.25
68.95
62.95
57.25
51.86
46.78
42.03
37.59
33.45
29.61
26.07
22.81
19.83
17.11
14.67
12.48
10.54
8.83
7.35
6.07
4.97
4.05
3.27
2.62
2.09
1.65
1.30
1.01
0.79
0.61
0.47
0.37
0.28
0.22
0.18
0.15
0.13
0.12
0.12
0.12
0.14
0.15
0.18
0.21
0.24
0.28
0.32
0.36
0.40
0.45
0.49
0.54
0.59
0.64
0.69
0.75
0.81
0.88
0.95
1.04
1.13
1.23
1.35
1.48
1.63
1.81
2.01
2.22
2.43
2.65
2.88
3.12
3.40
3.73
4.11
4.55
5.02
5.52
6.03
6.55
7.10
7.69
8.35
9.09
9.88
10.71
11.55
12.38
13.20
14.06
14.99
16.04
17.21
18.45
19.63
20.59
21.19
21.32
20.94
20.06
18.72
16.91
14.57
11.59
7.85
3.38
-1.64
-6.89
-11.91
-16.29
-19.77
-22.33
-24.17
-25.56
-26.73
-27.77
-28.53
-28.74
-28.22
-26.90
-25.02
-22.94
-21.09
-19.80
-19.37
-19.93
-21.40
-23.30
-24.67
-24.23
-20.90
-14.30
-5.09
5.11
14.40
21.39
25.66
27.68
28.40
28.72
29.15
29.82
30.56
31.37
32.39
33.80
35.76
38.25
41.20
44.47
47.86
50.89
53.26
54.81
55.54
55.58
55.09
54.22
53.20
52.27
51.46
51.03
51.37
52.82
55.49
59.14
63.01
65.69
68.02
69.44
69.49
68.02
65.34
61.94
58.21
54.31
50.19
45.84
41.09
36.30
32.02
28.69
26.40
24.85
23.60
22.27
20.75
18.88
16.70
14.24
11.41
8.12
4.35
0.25
-3.84
-7.55
-10.82
-13.66
-16.22
-18.66
-21.04
-23.35
-25.49
-27.41
-29.22
-31.23
-33.79
-37.22
-41.53
-46.42
-51.25
-55.16
-57.23
-56.78
-53.54
-47.78
-40.20
-31.76
-23.39
-15.76
-9.23
-4.06
-0.49
1.22
0.97
-0.97
-3.87
-6.69
-8.47
-8.68
-7.43
-5.36
-3.28
-1.84
-1.33
-1.64
-2.50
-3.60
-4.67
-5.69
-6.69
-7.83
-9.21
-10.99
-13.18
-15.77
-18.64
-21.57
-24.30
-26.63
-28.58
-30.50
-32.94
-36.41
-41.06
-46.48
-51.69
-55.44
-56.68
-54.78
-49.81
-42.36
-33.34
-23.73
-14.51
-6.45
-0.08
4.36
6.96
8.04
8.08
7.59
7.02
6.67
6.76
7.30
8.20
9.29
10.30
11.01
11.27
11.04
10.45
9.69
8.92
8.16
7.22
5.77
3.48
0.18
-4.06
-8.89
-13.83
-18.37
-22.20
-25.15
-27.40
-29.31
-31.32
-33.89
-37.26
-41.48
-46.40
-51.60
-56.48
-60.25
-62.02
-61.03
-56.87
-49.76
-40.53
-30.32
-20.30
-11.31
-3.75
2.24
6.64
9.41
10.61
10.51
9.66
8.76
8.41
8.93
10.27
12.09
13.90
15.33
16.14
16.31
15.99
15.43
14.87
14.46
14.23
14.03
13.65
12.84
11.38
8.98
5.52
0.93
-4.61
-10.65
-16.64
-22.00
-26.46
-30.06
-33.28
-36.67
-40.77
-45.74
-51.39
-57.07
-61.90
-64.82
-64.93
-61.63
-54.89
-45.29
-33.88
-22.08
-11.14
-1.95
5.23
10.58
14.45
17.14
18.79
19.52
19.61
19.56
19.90
20.95
22.59
24.31
25.48
25.78
25.29
24.49
23.92
23.78
23.89
23.79
23.00
21.26
18.57
15.21
11.48
7.68
3.85
-0.07
-4.17
-8.53
-13.02
-17.40
-21.33
-24.65
-27.48
-30.18
-33.32
-37.41
-42.67
-48.91
-55.40
-61.07
-64.77
-65.52
-62.81
-56.70
-47.82
-37.12
-25.72
-14.77
-5.34
1.74
6.10
7.91
7.98
7.37
7.06
7.52
8.64
9.92
10.85
11.03
10.40
9.10
7.32
5.21
2.85
0.33
-2.16
-4.36
-6.02
-7.03
-7.37
-7.25
-7.05
-7.40
-8.95
-12.35
-17.88
-25.32
-33.97
-42.73
-50.41
-56.00
-58.98
-59.51
-58.38
-56.83
-56.09
-57.05
-60.00
-64.46
-69.27
-72.93
-73.90
-71.13
-64.26
-53.80
-40.87
-26.88
-13.01
-0.03
11.66
21.89
30.48
37.19
41.81
44.37
45.24
45.06
44.64
44.60
45.23
46.50
48.11
49.64
50.66
50.90
50.28
48.95
47.18
45.26
43.29
41.20
38.84
36.15
33.24
30.22
27.09
23.64
19.54
14.59
8.94
3.15
-2.07
-6.16
-9.09
-11.26
-13.41
-16.20
-20.07
-25.14
-31.28
-38.15
-45.22
-51.66
-56.38
-58.25
-56.45
-50.78
-41.89
-31.11
-19.97
-9.80
-1.25
5.67
11.38
16.28
20.50
23.78
25.81
26.46
26.09
25.35
25.05
25.64
27.20
29.40
31.70
33.76
35.41
36.62
37.42
37.73
37.51
36.68
35.37
33.71
31.86
29.90
27.73
25.24
22.31
18.89
15.02
10.78
6.24
1.46
-3.49
-8.47
-13.29
-17.81
-22.06
-26.38
-31.20
-36.93
-43.50
-50.21
-55.74
-58.62
-57.71
-52.71
-44.27
-33.67
-22.36
-11.55
-2.02
5.85
11.89
16.07
18.51
19.36
18.99
17.89
16.60
15.64
15.30
15.57
16.21
16.85
17.18
17.15
16.91
16.59
16.16
15.31
13.68
11.01
7.39
3.05
-1.79
-7.00
-12.45
-17.66
-21.72
-23.38
-21.56
-15.75
-6.34
5.45
17.98
29.70
39.60
47.43
53.76
59.71
66.74
76.11
88.60
104.15
121.69
139.11
153.51
161.76
161.37
151.49
133.35
110.21
86.34
65.50
49.83
39.44
33.07
29.10
26.41
24.58
23.44
22.48
20.86
17.60
12.26
5.22
-2.53
-9.85
-16.02
-20.86
-24.65
-27.80
-30.62
-33.31
-35.99
-38.83
-42.10
-46.17
-51.40
-58.06
-66.13
-75.11
-84.01
-91.54
-96.51
-98.14
-96.32
-91.37
-83.91
-74.54
-63.86
-52.60
-41.66
-32.03
-24.42
-19.05
-15.64
-13.64
-12.58
-12.28
-12.78
-14.07
-15.89
-17.78
-19.30
-20.16
-20.69
-21.28
-22.01
-22.58
-22.44
-21.14
-18.51
-14.82
-10.58
-6.94
-4.82
-4.66
-6.32
-9.20
-12.66
-16.21
-19.72
-23.35
-28.16
-34.70
-42.31
-49.20
-53.30
-53.22
-48.69
-40.59
-30.26
-21.37
-16.29
-15.15
-16.19
-17.47
-18.09
-18.12
-17.93
-17.23
-20.02
-28.70
-42.40
-57.51
-70.50
-79.65
-84.73
-86.31
-84.47
-86.79
-98.64
-119.66
-144.48
-167.27
-185.11
-198.04
-208.03
-216.35
-233.97
-268.19
-318.48
-377.74
-438.52
-497.35
-554.23
-611.16
-614.34
-537.51
-394.33
-229.21
-81.83
31.50
112.07
168.19
200.28
220.95
228.36
219.60
196.45
165.37
132.35
99.50
69.64
43.21
23.18
5.35
-11.93
-26.06
-32.23
-27.77
-14.15
5.02
26.02
48.12
66.54
78.39
83.99
86.04
87.20
88.78
91.20
94.27
98.52
101.11
99.34
91.99
79.79
64.71
49.17
35.56
25.42
19.45
15.91
12.50
7.60
0.86
-7.12
-15.34
-22.79
-28.58
-31.77
-31.73
-28.18
-21.36
-12.19
-1.99
8.05
17.31
25.93
34.61
44.14
54.96
66.92
79.35
91.34
102.08
111.21
119.02
126.36
134.36
143.94
155.46
168.58
182.46
196.11
208.83
220.30
230.65
240.41
250.53
262.08
275.83
291.58
307.60
320.84
327.77
325.79
314.22
294.61
269.97
243.43
217.20
192.14
168.13
144.88
122.36
100.95
81.20
63.45
47.87
34.59
23.86
16.08
11.60
10.49
12.36
16.30
21.10
25.52
28.60
29.81
29.09
26.66
22.87
18.05
12.51
6.65
1.03
-3.71
-6.98
-8.54
-8.57
-7.64
-6.68
-6.67
-8.46
-12.64
-19.30
-28.00
-37.62
-46.62
-53.46
-57.17
-57.80
-56.56
-55.47
-56.59
-61.31
-69.87
-81.36
-94.16
-106.63
-117.48
-126.20
-132.89
-138.16
-142.82
-147.49
-152.30
-156.58
-158.90
-157.29
-149.94
-135.98
-115.87
-91.51
-65.60
-40.87
-19.30
-1.77
11.74
21.79
29.02
33.96
37.11
39.02
40.40
41.95
44.13
46.99
50.13
52.91
54.75
55.36
54.85
53.65
52.24
50.94
49.76
48.45
46.67
44.14
40.88
37.08
33.06
29.06
25.16
21.28
17.27
13.02
8.54
3.90
-0.81
-5.58
-10.51
-15.74
-21.38
-27.40
-33.55
-39.35
-44.12
-47.11
-47.61
-45.12
-39.55
-31.29
-21.18
-10.35
0.09
9.31
16.93
22.97
27.69
31.41
34.29
36.43
37.87
38.71
39.14
39.39
39.65
40.04
40.66
41.62
43.00
44.85
47.06
49.47
51.84
54.07
56.15
58.21
60.30
62.29
63.87
64.72
64.69
63.94
62.92
62.18
62.07
62.59
63.33
63.67
62.94
60.73
56.96
52.02
46.67
41.93
38.83
38.19
40.36
45.08
51.54
58.52
64.79
69.35
71.69
71.79
69.94
66.61
62.29
57.36
52.22
47.21
42.57
38.46
34.77
31.29
27.75
23.97
19.99
16.03
12.30
8.87
5.60
2.14
-1.90
-6.66
-12.07
-17.78
-23.31
-28.29
-32.59
-36.34
-39.89
-43.66
-47.99
-52.98
-58.46
-63.89
-68.50
-71.41
-71.81
-69.27
-63.88
-56.25
-47.39
-38.39
-30.13
-23.13
-17.52
-13.18
-9.92
-7.63
-6.20
-5.50
-5.27
-5.16
-4.81
-4.04
-2.89
-1.62
-0.53
0.11
0.22
-0.18
-0.98
-2.06
-3.36
-4.88
-6.69
-8.88
-11.53
-14.61
-17.94
-21.24
-24.26
-26.90
-29.30
-31.85
-35.02
-39.06
-43.86
-48.83
-53.00
-55.32
-55.02
-51.82
-46.05
-38.50
-30.17
-21.96
-14.50
-8.10
-2.89
1.12
3.93
5.59
6.32
6.41
6.24
6.08
6.01
5.97
5.74
5.11
3.96
2.30
0.25
-2.00
-4.22
-6.29
-8.19
-10.07
-12.20
-14.81
-18.02
-21.70
-25.56
-29.31
-32.74
-35.81
-38.60
-41.27
-43.96
-46.84
-50.04
-53.59
-57.32
-60.70
-62.99
-63.33
-61.17
-56.40
-49.46
-41.18
-32.45
-24.01
-16.29
-9.46
-3.56
1.43
5.51
8.70
11.07
12.76
14.00
15.02
16.00
17.01
18.04
19.02
19.84
20.43
20.75
20.75
20.35
19.49
18.18
16.50
14.56
12.36
9.83
6.79
3.10
-1.17
-5.81
-10.44
-14.69
-18.37
-21.54
-24.43
-27.41
-30.86
-35.07
-40.12
-45.75
-51.31
-55.86
-58.37
-58.06
-54.68
-48.57
-40.53
-31.58
-22.63
-14.33
-6.99
-0.72
4.48
8.67
11.89
14.22
15.85
17.02
18.04
19.16
20.48
21.95
23.39
24.62
25.48
25.90
25.90
25.50
24.72
23.56
21.99
20.01
17.70
15.14
12.44
9.64
6.67
3.46
-0.09
-3.93
-7.94
-11.90
-15.61
-19.01
-22.17
-25.35
-28.86
-32.99
-37.88
-43.28
-48.64
-53.07
-55.60
-55.47
-52.33
-46.39
-38.35
-29.18
-19.86
-11.22
-3.79
2.17
6.71
10.09
12.68
14.88
16.90
18.81
20.50
21.88
22.90
23.61
24.13
24.55
24.87
25.04
25.00
24.68
24.07
23.26
22.30
21.26
20.15
18.86
17.26
15.23
12.69
9.71
6.48
3.18
-0.12
-3.48
-7.03
-10.82
-14.76
-18.64
-22.32
-25.86
-29.60
-33.87
-38.81
-44.05
-48.76
-51.83
-52.30
-49.72
-44.26
-36.63
-27.80
-18.72
-10.18
-2.63
3.68
8.72
12.55
15.31
17.13
18.17
18.59
18.60
18.45
18.38
18.57
19.10
19.96
21.10
22.36
23.50
24.24
24.32
23.56
22.03
19.98
17.75
15.55
13.45
11.29
8.86
6.03
2.85
-0.51
-3.85
-7.07
-10.12
-13.08
-16.02
-19.06
-22.38
-26.12
-30.38
-35.07
-39.83
-44.02
-46.81
-47.42
-45.34
-40.57
-33.62
-25.42
-16.97
-9.16
-2.46
2.96
7.22
10.46
12.76
14.14
14.66
14.51
14.05
13.71
13.86
14.64
15.92
17.36
18.64
19.52
19.99
20.17
20.18
19.96
19.32
18.01
15.86
12.92
9.45
5.82
2.36
-0.76
-3.55
-6.18
-8.86
-11.85
-15.30
-19.34
-23.91
-28.82
-33.66
-37.84
-40.67
-41.45
-39.73
-35.38
-28.73
-20.50
-11.59
-2.94
4.77
11.09
15.89
19.17
21.09
21.80
21.53
20.56
19.24
17.99
17.17
17.01
17.49
18.42
19.41
20.14
20.37
20.07
19.29
18.08
16.38
14.03
10.95
7.13
2.83
-1.60
-5.78
-9.51
-12.73
-15.53
-18.01
-20.24
-22.29
-24.27
-26.41
-29.05
-32.46
-36.70
-41.43
-45.93
-49.25
-50.44
-48.86
-44.41
-37.53
-29.12
-20.24
-11.84
-4.51
1.54
6.44
10.47
13.78
16.39
18.22
19.19
19.43
19.30
19.25
19.65
20.67
22.14
23.72
25.03
25.83
26.06
25.83
25.24
24.38
23.22
21.71
19.81
17.55
15.04
12.35
9.51
6.52
3.39
0.17
-3.00
-5.99
-8.79
-11.60
-14.76
-18.56
-23.12
-28.15
-32.96
-36.64
-38.29
-37.31
-33.64
-27.67
-20.20
-12.16
-4.40
2.47
8.17
12.69
16.14
18.69
20.41
21.33
21.50
21.08
20.39
19.83
19.80
20.50
21.83
23.44
24.85
25.62
25.55
24.69
23.25
21.47
19.45
17.13
14.43
11.30
7.85
4.32
0.97
-2.04
-4.71
-7.18
-9.60
-12.10
-14.75
-17.62
-20.82
-24.44
-28.44
-32.51
-36.00
-38.09
-38.01
-35.30
-30.06
-22.88
-14.73
-6.66
0.45
6.10
10.19
12.90
14.55
15.41
15.67
15.45
14.86
14.11
13.47
13.26
13.63
14.56
15.81
17.00
17.75
17.86
17.33
16.35
15.15
13.87
12.45
10.64
8.20
5.08
1.45
-2.30
-5.77
-8.74
-11.24
-13.50
-15.81
-18.39
-21.37
-24.81
-28.69
-32.89
-37.03
-40.47
-42.41
-42.07
-39.08
-33.61
-26.36
-18.34
-10.51
-3.57
2.16
6.65
10.04
12.50
14.16
15.17
15.71
16.00
16.21
16.45
16.73
16.98
17.11
17.05
16.82
16.43
15.90
15.16
14.07
12.51
10.40
7.83
5.00
2.14
-0.60
-3.19
-5.71
-8.34
-11.24
-14.54
-18.37
-22.70
-27.37
-31.94
-35.73
-37.90
-37.74
-34.90
-29.62
-22.63
-14.88
-7.30
-0.47
5.33
10.05
13.64
16.08
17.38
17.72
17.45
17.02
16.84
17.07
17.65
18.29
18.73
18.79
18.49
17.95
17.26
16.46
15.41
13.97
11.98
9.37
6.21
2.71
-0.87
-4.23
-7.23
-9.93
-12.58
-15.55
-19.14
-23.48
-28.44
-33.60
-38.25
-41.55
-42.73
-41.21
-36.89
-30.18
-21.94
-13.28
-5.17
1.78
7.37
11.79
15.30
18.07
20.18
21.62
22.47
22.92
23.26
23.69
24.32
25.02
25.58
25.78
25.48
24.71
23.61
22.30
20.81
19.04
16.82
14.07
10.78
7.10
3.30
-0.39
-3.81
-6.97
-9.94
-12.93
-16.12
-19.76
-24.06
-29.06
-34.55
-39.96
-44.45
-47.15
-47.38
-44.86
-39.82
-32.82
-24.65
-16.13
-7.92
-0.51
5.87
11.20
15.60
19.23
22.19
24.48
26.11
27.13
27.72
28.17
28.71
29.45
30.33
31.21
31.95
32.43
32.62
32.45
31.78
30.49
28.49
25.82
22.65
19.18
15.64
12.15
8.74
5.36
1.97
-1.52
-5.08
-8.59
-11.93
-15.06
-18.07
-21.26
-25.02
-29.67
-35.20
-41.15
-46.61
-50.50
-51.87
-50.23
-45.70
-38.90
-30.74
-22.08
-13.57
-5.64
1.48
7.59
12.54
16.24
18.77
20.37
21.37
22.16
22.98
24.00
25.27
26.78
28.45
30.13
31.64
32.79
33.41
33.46
32.91
31.78
30.08
27.84
25.12
22.09
18.94
15.93
13.17
10.66
8.25
5.72
2.89
-0.25
-3.59
-6.90
-9.97
-12.77
-15.39
-18.03
-20.93
-24.26
-28.16
-32.68
-37.77
-43.17
-48.27
-52.17
-53.83
-52.44
-47.78
-40.34
-31.14
-21.43
-12.22
-4.05
2.91
8.75
13.52
17.20
19.78
21.35
22.16
22.61
23.10
23.86
24.88
26.06
27.19
28.13
28.77
29.10
29.19
29.07
28.76
28.17
27.17
25.59
23.35
20.52
17.35
14.17
11.23
8.59
6.11
3.51
0.61
-2.62
-6.04
-9.39
-12.47
-15.20
-17.67
-20.16
-22.98
-26.44
-30.69
-35.63
-40.81
-45.44
-48.58
-49.31
-47.13
-42.02
-34.58
-25.82
-16.87
-8.66
-1.73
3.87
8.35
12.00
15.02
17.38
19.00
19.87
20.19
20.35
20.74
21.63
23.02
24.65
26.20
27.39
28.13
28.44
28.35
27.88
26.93
25.37
23.16
20.37
17.27
14.22
11.58
9.49
7.86
6.42
4.71
2.43
-0.56
-4.12
-7.88
-11.45
-14.53
-17.06
-19.30
-21.76
-24.95
-29.13
-34.04
-38.88
-42.41
-43.44
-41.28
-36.04
-28.59
-20.17
-11.93
-4.55
1.85
7.48
12.64
17.46
21.89
25.84
29.27
32.23
34.73
36.65
37.67
37.45
35.78
32.72
28.62
23.93
19.06
14.26
9.66
5.31
1.28
-2.31
-5.43
-8.10
-10.45
-12.63
-14.80
-17.07
-19.64
-22.83
-27.03
-32.61
-39.68
-47.89
-56.47
-64.45
-71.04
-75.80
-78.81
-80.44
-81.04
-80.65
-79.02
-75.68
-70.13
-62.12
-51.62
-38.89
-24.46
-9.09
6.22
20.37
32.37
41.59
47.96
51.85
53.92
54.79
54.91
54.51
53.80
53.06
52.65
52.85
53.70
54.89
55.84
56.00
55.06
53.04
50.21
46.90
43.25
39.23
34.71
29.60
24.03
18.28
12.70
7.47
2.53
-2.42
-7.80
-13.86
-20.56
-27.44
-33.73
-38.47
-40.82
-40.29
-36.93
-31.34
-24.56
-17.72
-11.78
-7.26
-4.19
-2.22
-0.86
0.31
1.57
3.06
4.85
6.96
9.31
11.69
13.82
15.45
16.50
17.09
17.47
17.89
18.40
18.79
18.70
17.74
15.62
12.33
8.11
3.39
-1.33
-5.60
-9.20
-12.18
-14.86
-17.66
-20.93
-24.72
-28.79
-32.52
-35.18
-36.07
-34.72
-31.04
-25.37
-18.38
-10.88
-3.73
2.43
7.10
10.06
11.35
11.23
10.26
9.04
8.17
7.99
8.54
9.59
10.74
11.61
11.94
11.59
10.53
8.82
6.57
3.90
0.92
-2.24
-5.46
-8.64
-11.71
-14.61
-17.37
-20.18
-23.37
-27.33
-32.31
-38.35
-45.10
-51.92
-57.97
-62.39
-64.48
-63.78
-60.10
-53.67
-44.97
-34.83
-24.18
-13.98
-4.95
2.53
8.40
12.86
16.18
18.63
20.35
21.52
22.28
22.82
23.23
23.38
22.96
21.55
18.92
15.18
10.84
6.58
2.97
0.10
-2.43
-5.37
-9.38
-14.67
-20.83
-27.02
-32.33
-36.30
-39.14
-41.67
-44.99
-49.97
-56.92
-65.39
-74.29
-82.16
-87.54
-89.24
-86.53
-79.20
-67.62
-52.57
-35.25
-17.04
0.69
16.78
30.44
41.28
49.28
54.68
57.83
59.08
58.74
57.03
54.14
50.29
45.79
41.02
36.41
32.27
28.65
25.36
21.97
18.04
13.34
7.94
2.13
-3.76
-9.54
-15.31
-21.37
-28.16
-36.24
-46.16
-58.37
-72.78
-88.37
-102.88
-113.11
-115.88
-109.22
-93.32
-70.71
-45.45
-21.63
-2.03
12.49
22.64
29.75
34.87
38.27
39.73
39.07
36.71
33.67
31.27
30.46
31.54
33.95
36.65
38.63
39.28
38.56
36.87
34.71
32.44
30.12
27.53
24.39
20.46
15.64
9.92
3.21
-4.64
-13.77
-23.89
-34.05
-42.52
-47.27
-46.67
-40.27
-29.12
-15.44
-1.81
9.83
18.72
25.14
29.93
33.68
36.54
38.24
38.53
37.55
35.85
34.18
33.07
32.63
32.52
32.17
31.06
28.94
25.85
22.09
17.99
13.83
9.66
5.39
0.77
-4.48
-10.58
-17.67
-25.77
-34.74
-44.11
-52.91
-59.79
-63.19
-61.94
-55.74
-45.39
-32.59
-19.35
-7.25
2.97
11.38
18.43
24.49
29.52
33.18
35.13
35.34
34.25
32.61
31.14
30.30
30.10
30.16
29.93
28.96
27.03
24.25
20.92
17.30
13.53
9.53
5.06
-0.13
-6.21
-13.23
-21.18
-30.08
-39.92
-50.46
-60.99
-70.16
-76.21
-77.51
-73.19
-63.67
-50.56
-36.10
-22.30
-10.25
0.01
9.10
17.68
25.90
33.44
39.78
44.71
48.49
51.76
55.08
58.62
62.05
64.75
66.12
65.99
64.63
62.67
60.76
59.30
58.21
56.99
54.96
51.56
46.64
40.54
33.91
27.46
21.59
16.26
11.02
5.27
-1.48
-9.45
-18.56
-28.47
-38.51
-47.74
-54.91
-58.75
-58.35
-53.55
-45.09
-34.39
-23.06
-12.31
-2.68
5.92
13.89
21.56
28.94
35.81
41.88
47.04
51.44
55.31
58.90
62.24
65.16
67.41
68.80
69.42
69.59
69.68
69.94
70.27
70.27
69.46
67.52
64.50
60.74
56.75
52.91
49.31
45.77
41.99
37.68
32.75
27.38
21.84
16.44
11.31
6.37
1.30
-4.35
-10.98
-18.86
-27.92
-37.65
-47.07
-54.78
-59.34
-59.68
-55.53
-47.60
-37.38
-26.57
-16.55
-7.94
-0.67
5.64
11.36
16.62
21.29
25.29
28.66
31.59
34.36
37.11
39.83
42.39
44.63
46.42
47.71
48.54
48.98
49.13
49.08
48.88
48.51
47.89
46.93
45.55
43.71
41.50
39.09
36.66
34.32
32.06
29.68
26.88
23.41
19.17
14.31
9.23
4.38
0.11
-3.47
-6.54
-9.50
-12.86
-17.09
-22.48
-29.02
-36.33
-43.64
-49.88
-53.90
-54.77
-52.07
-46.06
-37.64
-28.10
-18.76
-10.63
-4.12
0.86
4.74
7.97
10.81
13.31
15.41
17.11
18.52
19.86
21.29
22.82
24.34
25.69
26.79
27.66
28.40
29.09
29.68
30.07
30.12
29.68
28.72
27.27
25.38
23.22
20.93
18.65
16.42
14.18
11.76
9.04
5.99
2.69
-0.66
-3.91
-6.97
-9.85
-12.67
-15.62
-18.94
-22.83
-27.36
-32.34
-37.23
-41.19
-43.37
-43.18
-40.55
-35.94
-30.15
-24.00
-18.09
-12.71
-7.95
-3.81
-0.36
2.32
4.21
5.45
6.33
7.25
8.51
10.18
12.14
14.11
15.81
17.11
18.01
18.66
19.23
19.85
20.53
21.14
21.43
21.17
20.18
18.48
16.25
13.72
11.11
8.48
5.76
2.86
-0.26
-3.46
-6.51
-9.18
-11.35
-13.13
-14.72
-16.43
-18.51
-21.22
-24.68
-28.91
-33.63
-38.29
-42.09
-44.17
-43.85
-40.90
-35.69
-29.05
-22.00
-15.47
-9.98
-5.67
-2.38
0.12
2.01
3.33
4.07
4.34
4.35
4.45
4.94
5.95
7.38
8.94
10.29
11.16
11.49
11.36
10.94
10.38
9.81
9.24
8.61
7.88
6.96
5.85
4.52
2.97
1.21
-0.73
-2.87
-5.14
-7.45
-9.74
-11.93
-14.12
-16.49
-19.30
-22.71
-26.62
-30.54
-33.73
-35.39
-35.01
-32.56
-28.46
-23.41
-18.08
-12.96
-8.29
-4.16
-0.63
2.23
4.36
5.75
6.49
6.71
6.64
6.43
6.25
6.21
6.38
6.77
7.39
8.14
8.93
9.65
10.19
10.45
10.35
9.83
8.88
7.55
5.88
3.91
1.69
-0.74
-3.31
-5.87
-8.29
-10.50
-12.60
-14.82
-17.44
-20.69
-24.59
-28.91
-33.18
-36.79
-39.13
-39.67
-38.16
-34.65
-29.50
-23.37
-17.00
-11.06
-6.03
-2.12
0.72
2.69
4.00
4.85
5.38
5.70
5.97
6.33
6.89
7.68
8.59
9.51
10.25
10.72
10.91
10.85
10.59
10.17
9.61
8.91
8.03
6.94
5.54
3.77
1.63
-0.78
-3.22
-5.46
-7.37
-9.00
-10.62
-12.60
-15.22
-18.56
-22.50
-26.71
-30.75
-34.20
-36.59
-37.51
-36.67
-33.96
-29.60
-24.08
-18.14
-12.49
-7.65
-3.84
-0.97
1.25
3.06
4.57
5.80
6.66
7.16
7.42
7.65
8.08
8.76
9.60
10.38
10.88
11.02
10.91
10.72
10.60
10.56
10.44
10.03
9.12
7.65
5.66
3.32
0.84
-1.60
-3.86
-5.90
-7.75
-9.54
-11.45
-13.68
-16.36
-19.63
-23.47
-27.67
-31.78
-35.07
-36.76
-36.23
-33.31
-28.39
-22.32
-16.06
-10.41
-5.74
-2.04
0.91
3.30
5.20
6.60
7.48
7.93
8.20
8.57
9.23
10.27
11.55
12.84
13.87
14.43
14.50
14.18
13.67
13.10
12.49
11.74
10.65
9.12
7.19
5.02
2.84
0.82
-1.00
-2.75
-4.66
-6.95
-9.75
-13.07
-16.83
-20.87
-24.98
-28.88
-32.17
-34.39
-35.12
-34.04
-31.17
-26.83
-21.57
-16.04
-10.77
-6.09
-2.08
1.27
4.01
6.16
7.71
8.68
9.20
9.53
9.95
10.73
11.97
13.55
15.17
16.51
17.32
17.53
17.26
16.70
16.02
15.30
14.52
13.60
12.44
10.95
9.12
7.01
4.74
2.44
0.17
-2.01
-4.19
-6.45
-8.90
-11.69
-14.89
-18.55
-22.64
-26.94
-30.98
-34.14
-35.74
-35.31
-32.74
-28.35
-22.78
-16.74
-10.84
-5.49
-0.85
2.94
5.81
7.70
8.62
8.75
8.47
8.22
8.41
9.21
10.52
12.01
13.33
14.20
14.59
14.61
14.42
14.12
13.73
13.12
12.17
10.80
8.98
6.79
4.35
1.84
-0.56
-2.72
-4.62
-6.39
-8.33
-10.76
-13.94
-17.91
-22.48
-27.22
-31.50
-34.64
-36.03
-35.28
-32.35
-27.61
-21.69
-15.40
-9.40
-4.18
0.05
3.25
5.47
6.82
7.45
7.59
7.53
7.56
7.85
8.41
9.12
9.84
10.44
10.84
11.07
11.15
11.08
10.77
10.13
9.08
7.51
5.43
2.94
0.22
-2.51
-5.05
-7.32
-9.42
-11.62
-14.27
-17.61
-21.69
-26.21
-30.59
-34.11
-36.04
-35.91
-33.55
-29.21
-23.44
-16.96
-10.48
-4.51
0.61
4.78
7.97
10.21
11.54
12.12
12.20
12.15
12.32
12.91
13.93
15.15
16.26
16.96
17.16
16.91
16.42
15.88
15.36
14.76
13.80
12.18
9.68
6.34
2.42
-1.67
-5.53
-8.91
-11.83
-14.52
-17.36
-20.77
-24.99
-29.97
-35.32
-40.30
-43.98
-45.53
-44.41
-40.58
-34.48
-26.94
-18.94
-11.36
-4.81
0.49
4.62
7.88
10.56
12.87
14.83
16.44
17.73
18.84
19.98
21.29
22.72
23.98
24.78
24.93
24.46
23.63
22.74
21.97
21.26
20.40
19.11
17.25
14.78
11.85
8.63
5.24
1.76
-1.76
-5.31
-8.87
-12.49
-16.30
-20.53
-25.33
-30.67
-36.15
-41.04
-44.41
-45.45
-43.75
-39.41
-33.02
-25.44
-17.51
-9.89
-2.98
3.01
7.96
11.79
14.51
16.24
17.28
18.06
18.95
20.18
21.71
23.31
24.70
25.73
26.38
26.74
26.85
26.71
26.22
25.34
24.11
22.67
21.17
19.61
17.86
15.70
12.92
9.54
5.79
2.00
-1.52
-4.61
-7.36
-9.98
-12.77
-16.02
-19.94
-24.57
-29.80
-35.23
-40.19
-43.80
-45.13
-43.56
-39.01
-32.01
-23.58
-14.88
-6.86
-0.09
5.31
9.55
12.92
15.65
17.91
19.79
21.37
22.77
24.11
25.46
26.80
28.04
29.10
29.88
30.39
30.64
30.65
30.39
29.82
28.91
27.65
26.10
24.31
22.38
20.33
18.17
15.89
13.46
10.86
8.05
5.03
1.85
-1.41
-4.59
-7.63
-10.58
-13.70
-17.37
-21.90
-27.28
-33.00
-38.17
-41.67
-42.59
-40.56
-35.80
-29.07
-21.36
-13.60
-6.48
-0.38
4.57
8.42
11.30
13.40
14.91
16.02
16.90
17.69
18.50
19.46
20.67
22.14
23.75
25.27
26.36
26.78
26.48
25.64
24.59
23.66
22.96
22.40
21.69
20.50
18.67
16.28
13.53
10.65
7.82
5.06
2.37
-0.28
-2.89
-5.43
-8.01
-10.83
-14.20
-18.36
-23.32
-28.65
-33.55
-37.01
-38.11
-36.37
-31.91
-25.42
-17.90
-10.39
-3.67
1.83
5.99
8.91
10.75
11.72
12.07
12.11
12.17
12.55
13.41
14.69
16.21
17.67
18.80
19.48
19.73
19.67
19.43
19.09
18.61
17.89
16.78
15.15
12.95
10.23
7.18
4.05
1.11
-1.45
-3.57
-5.40
-7.19
-9.31
-12.08
-15.69
-20.11
-24.98
-29.67
-33.35
-35.19
-34.58
-31.33
-25.78
-18.67
-11.01
-3.72
2.53
7.46
11.09
13.62
15.25
16.09
16.23
15.84
15.25
14.88
15.08
15.98
17.40
18.95
20.19
20.88
20.99
20.68
20.09
19.33
18.41
17.25
15.79
14.03
12.01
9.78
7.40
4.88
2.24
-0.51
-3.35
-6.25
-9.16
-12.12
-15.18
-18.47
-22.12
-26.19
-30.46
-34.46
-37.46
-38.72
-37.69
-34.31
-28.98
-22.41
-15.48
-8.87
-3.04
1.80
5.64
8.56
10.68
12.17
13.26
14.13
14.93
15.74
16.58
17.46
18.41
19.42
20.43
21.26
21.69
21.63
21.10
20.28
19.41
18.58
17.76
16.76
15.41
13.60
11.39
8.97
6.52
4.14
1.82
-0.50
-2.92
-5.48
-8.22
-11.21
-14.59
-18.52
-23.07
-28.10
-33.15
-37.47
-40.25
-40.82
-38.96
-34.92
-29.35
-23.02
-16.63
-10.65
-5.28
-0.58
3.45
6.81
9.47
11.43
12.74
13.53
14.01
14.40
14.92
15.67
16.64
17.69
18.68
19.50
20.09
20.49
20.70
20.64
20.19
19.25
17.85
16.14
14.37
12.71
11.18
9.65
7.91
5.79
3.27
0.47
-2.39
-5.13
-7.61
-9.91
-12.23
-14.90
-18.26
-22.49
-27.47
-32.68
-37.31
-40.40
-41.17
-39.29
-34.95
-28.81
-21.81
-14.87
-8.62
-3.41
0.71
3.84
6.08
7.57
8.46
9.00
9.46
10.08
10.98
12.13
13.36
14.49
15.42
16.15
16.78
17.40
18.04
18.60
18.91
18.79
18.12
16.91
15.30
13.48
11.66
9.99
8.49
7.11
5.73
4.19
2.39
0.31
-2.02
-4.49
-6.99
-9.48
-12.08
-15.01
-18.52
-22.73
-27.41
-32.05
-35.88
-38.12
-38.20
-35.96
-31.66
-25.93
-19.57
-13.31
-7.67
-2.91
0.97
4.09
6.54
8.39
9.62
10.20
10.26
9.98
9.65
9.47
9.58
9.99
10.70
11.65
12.76
13.93
14.93
15.53
15.50
14.78
13.43
11.67
9.74
7.84
6.08
4.49
3.03
1.61
0.13
-1.52
-3.37
-5.44
-7.68
-10.07
-12.65
-15.53
-18.84
-22.67
-26.92
-31.28
-35.19
-37.99
-39.01
-37.88
-34.60
-29.60
-23.61
-17.42
-11.60
-6.47
-2.08
1.62
4.61
6.73
7.81
7.79
6.87
5.49
4.25
3.62
3.83
4.79
6.14
7.52
8.65
9.49
10.19
10.95
11.84
12.75
13.37
13.38
12.57
10.90
8.53
5.70
2.69
-0.31
-3.13
-5.73
-8.12
-10.50
-13.18
-16.55
-20.85
-25.96
-31.30
-35.86
-38.53
-38.42
-35.23
-29.37
-21.78
-13.55
-5.64
1.36
7.25
12.03
15.77
18.44
20.02
20.57
20.35
19.77
19.32
19.30
19.78
20.57
21.35
21.83
21.93
21.69
21.28
20.81
20.33
19.74
18.89
17.65
15.97
13.83
11.30
8.50
5.56
2.61
-0.25
-2.98
-5.63
-8.29
-11.07
-14.01
-17.11
-20.34
-23.69
-27.16
-30.79
-34.48
-37.94
-40.65
-41.92
-41.12
-37.97
-32.65
-25.80
-18.29
-10.97
-4.44
1.00
5.31
8.54
10.81
12.22
12.96
13.26
13.41
13.69
14.31
15.42
17.11
19.38
22.08
24.93
27.53
29.45
30.33
30.04
28.62
26.33
23.52
20.59
17.89
15.63
13.83
12.27
10.55
8.15
4.68
0.06
-5.41
-11.02
-15.93
-19.47
-21.39
-21.95
-21.81
-21.76
-22.36
-23.75
-25.54
-27.02
-27.33
-25.76
-21.97
-16.06
-8.57
-0.25
8.06
15.63
21.91
26.64
29.77
31.50
32.10
31.96
31.39
30.61
29.70
28.67
27.52
26.31
25.11
24.01
23.08
22.30
21.56
20.72
19.64
18.19
16.35
14.16
11.78
9.40
7.16
5.11
3.16
1.17
-0.95
-3.18
-5.36
-7.36
-9.09
-10.67
-12.33
-14.36
-16.99
-20.28
-24.17
-28.40
-32.64
-36.42
-39.19
-40.41
-39.64
-36.76
-32.05
-26.19
-20.08
-14.57
-10.25
-7.25
-5.35
-4.10
-3.05
-1.94
-0.73
0.53
1.80
3.13
4.63
6.37
8.27
10.10
11.62
12.67
13.33
13.77
14.20
14.64
14.87
14.50
13.23
10.93
7.82
4.34
1.08
-1.53
-3.33
-4.48
-5.45
-6.79
-8.96
-12.14
-16.17
-20.63
-24.95
-28.50
-30.74
-31.28
-29.86
-26.48
-21.38
-15.09
-8.31
-1.82
3.65
7.64
10.04
11.05
11.08
10.58
9.86
9.08
8.23
7.34
6.54
6.05
6.07
6.68
7.71
8.83
9.66
9.98
9.71
8.88
7.54
5.72
3.46
0.84
-1.91
-4.52
-6.78
-8.65
-10.36
-12.33
-14.95
-18.45
-22.73
-27.28
-31.30
-33.93
-34.44
-32.47
-28.17
-22.08
-15.08
-8.05
-1.75
3.36
7.10
9.53
10.82
11.22
11.02
10.51
9.96
9.57
9.39
9.35
9.30
9.11
8.72
8.19
7.60
7.00
6.38
5.60
4.52
2.97
0.89
-1.69
-4.56
-7.47
-10.12
-12.35
-14.21
-16.03
-18.26
-21.27
-25.22
-29.82
-34.43
-38.18
-40.23
-39.95
-37.13
-32.03
-25.32
-17.91
-10.76
-4.57
0.30
3.92
6.55
8.55
10.15
11.44
12.48
13.35
14.17
15.06
16.02
16.98
17.78
18.28
18.43
18.22
17.67
16.73
15.26
13.07
10.07
6.32
2.06
-2.30
-6.41
-10.05
-13.27
-16.35
-19.69
-23.65
-28.32
-33.54
-38.75
-43.19
-46.00
-46.49
-44.31
-39.60
-32.92
-25.15
-17.18
-9.69
-3.07
2.64
7.53
11.71
15.21
17.99
20.05
21.47
22.44
23.15
23.76
24.31
24.76
25.04
25.10
24.95
24.62
24.09
23.30
22.15
20.56
18.44
15.81
12.67
9.05
5.03
0.79
-3.40
-7.22
-10.50
-13.31
-16.01
-19.15
-23.16
-28.21
-34.05
-40.11
-45.56
-49.51
-51.17
-49.96
-45.69
-38.67
-29.71
-19.93
-10.47
-2.16
4.63
10.04
14.45
18.21
21.52
24.33
26.51
27.98
28.79
29.18
29.44
29.85
30.54
31.49
32.52
33.38
33.77
33.51
32.52
30.90
28.85
26.59
24.29
21.99
19.63
17.08
14.24
11.09
7.67
4.09
0.42
-3.26
-6.86
-10.27
-13.44
-16.46
-19.65
-23.46
-28.31
-34.24
-40.80
-47.04
-51.76
-53.86
-52.70
-48.29
-41.18
-32.34
-22.84
-13.60
-5.27
1.82
7.62
12.27
15.91
18.73
20.90
22.60
24.06
25.48
26.92
28.30
29.41
30.09
30.27
30.08
29.70
29.30
28.90
28.36
27.48
26.15
24.38
22.27
19.96
17.49
14.85
12.01
8.96
5.74
2.45
-0.80
-3.93
-6.89
-9.77
-12.68
-15.86
-19.57
-23.98
-29.09
-34.61
-39.93
-44.17
-46.47
-46.16
-42.98
-37.16
-29.41
-20.61
-11.70
-3.46
3.62
9.25
13.36
16.00
17.34
17.70
17.46
17.05
16.83
17.04
17.70
18.76
19.97
21.08
21.83
22.07
21.81
21.16
20.27
19.23
17.97
16.28
13.95
10.87
7.13
3.06
-0.95
-4.61
-7.77
-10.48
-12.92
-15.40
-18.25
-21.76
-26.11
-31.25
-36.80
-42.07
-46.14
-48.08
-47.21
-43.26
-36.48
-27.62
-17.73
-7.89
1.01
8.40
14.11
18.20
20.84
22.28
22.81
22.78
22.61
22.70
23.28
24.36
25.75
27.17
28.37
29.25
29.80
30.06
30.05
29.74
29.07
27.94
26.27
23.98
21.12
17.80
14.28
10.78
7.44
4.22
0.98
-2.44
-6.07
-9.82
-13.54
-17.13
-20.71
-24.58
-29.05
-34.27
-40.05
-45.85
-50.90
-54.32
-55.36
-53.57
-48.85
-41.55
-32.36
-22.19
-11.99
-2.58
5.51
12.01
16.91
20.34
22.53
23.72
24.27
24.58
25.03
25.89
27.24
28.95
30.72
32.29
33.41
33.96
33.94
33.39
32.35
30.82
28.79
26.26
23.34
20.18
16.97
13.85
10.86
7.93
4.92
1.71
-1.73
-5.30
-8.80
-12.04
-14.90
-17.49
-20.14
-23.31
-27.41
-32.54
-38.35
-44.03
-48.50
-50.72
-50.03
-46.30
-39.93
-31.69
-22.47
-13.08
-4.18
3.77
10.48
15.79
19.67
22.20
23.64
24.31
24.59
24.84
25.29
26.01
26.96
27.96
28.91
29.77
30.59
31.43
32.21
32.68
32.54
31.53
29.65
27.14
24.37
21.68
19.21
16.89
14.53
11.95
9.12
6.09
2.95
-0.26
-3.50
-6.74
-9.90
-12.94
-15.95
-19.13
-22.82
-27.22
-32.28
-37.63
-42.58
-46.30
-48.04
-47.29
-43.91
-38.18
-30.70
-22.28
-13.75
-5.82
1.07
6.70
11.07
14.25
16.39
17.68
18.40
18.87
19.41
20.22
21.32
22.55
23.74
24.73
25.45
25.94
26.24
26.35
26.20
25.68
24.69
23.22
21.34
19.21
16.97
14.67
12.29
9.74
6.93
3.88
0.74
-2.29
-5.06
-7.52
-9.77
-11.98
-14.38
-17.14
-20.43
-24.33
-28.77
-33.49
-37.99
-41.56
-43.39
-42.86
-39.68
-34.11
-26.82
-18.74
-10.81
-3.70
2.24
6.96
10.56
13.12
14.72
15.42
15.44
15.06
14.72
14.79
15.43
16.57
17.99
19.38
20.50
21.24
21.55
21.45
20.97
20.11
18.90
17.35
15.53
13.47
11.21
8.72
5.95
2.85
-0.56
-4.17
-7.81
-11.25
-14.35
-17.12
-19.76
-22.62
-26.06
-30.24
-34.98
-39.77
-43.79
-46.20
-46.32
-43.86
-38.97
-32.18
-24.25
-15.95
-7.98
-0.82
5.20
9.93
13.39
15.70
17.13
18.01
18.68
19.43
20.40
21.59
22.86
24.05
25.06
25.87
26.52
27.03
27.34
27.35
26.95
26.03
24.58
22.62
20.22
17.49
14.57
11.63
8.84
6.23
3.72
1.14
-1.70
-4.84
-8.10
-11.19
-13.88
-16.23
-18.58
-21.47
-25.30
-30.10
-35.45
-40.61
-44.74
-47.15
-47.44
-45.52
-41.50
-35.70
-28.60
-20.79
-12.93
-5.65
0.63
5.72
9.65
12.63
14.90
16.66
18.05
19.16
20.07
20.85
21.59
22.34
23.14
23.96
24.72
25.37
25.92
26.38
26.77
26.97
26.78
25.92
24.16
21.55
18.36
15.08
12.15
9.79
7.84
5.93
3.63
0.72
-2.65
-6.08
-9.17
-11.71
-13.87
-16.09
-18.89
-22.58
-27.14
-32.17
-37.05
-41.11
-43.72
-44.45
-43.03
-39.43
-33.87
-26.86
-19.15
-11.55
-4.77
0.77
4.95
7.96
10.08
11.60
12.72
13.64
14.54
15.61
16.98
18.69
20.57
22.40
23.94
25.04
25.72
26.04
26.09
25.85
25.25
24.17
22.54
20.40
17.93
15.38
12.98
10.87
9.01
7.19
5.17
2.81
0.14
-2.65
-5.32
-7.72
-9.89
-12.09
-14.69
-17.98
-22.12
-27.01
-32.26
-37.21
-41.10
-43.17
-42.89
-40.12
-35.15
-28.62
-21.30
-13.93
-7.06
-1.02
4.01
7.94
10.74
12.49
13.39
13.80
14.11
14.71
15.76
17.27
19.09
21.00
22.84
24.50
25.90
26.97
27.57
27.56
26.88
25.54
23.69
21.56
19.31
17.08
14.91
12.75
10.49
8.07
5.41
2.53
-0.41
-3.22
-5.68
-7.74
-9.53
-11.42
-13.85
-17.19
-21.52
-26.61
-31.92
-36.77
-40.45
-42.41
-42.30
-40.03
-35.79
-30.07
-23.51
-16.81
-10.55
-5.13
-0.77
2.51
4.77
6.14
6.83
7.09
7.23
7.49
8.01
8.75
9.53
10.10
10.35
10.29
10.15
10.25
10.86
12.10
13.88
15.89
17.81
19.33
20.31
20.78
20.78
20.38
19.60
18.43
16.90
15.09
13.12
11.01
8.68
5.91
2.51
-1.52
-5.92
-10.24
-13.95
-16.63
-18.10
-18.32
-17.37
-15.34
-12.37
-8.69
-4.67
-0.75
2.65
5.25
7.04
8.19
9.02
9.80
10.74
11.89
13.26
14.77
16.28
17.66
18.72
19.38
19.61
19.44
18.97
18.27
17.38
16.23
14.75
12.83
10.40
7.48
4.18
0.69
-2.74
-5.93
-8.76
-11.29
-13.65
-16.06
-18.76
-21.93
-25.70
-30.04
-34.74
-39.35
-43.22
-45.67
-46.14
-44.43
-40.74
-35.57
-29.62
-23.54
-17.81
-12.72
-8.31
-4.52
-1.31
1.36
3.45
4.94
5.91
6.55
7.14
7.96
9.15
10.69
12.38
13.95
15.14
15.84
16.03
15.85
15.42
14.84
14.13
13.21
11.98
10.34
8.23
5.68
2.84
-0.15
-3.11
-5.89
-8.43
-10.81
-13.30
-16.23
-19.85
-24.16
-28.78
-33.02
-36.07
-37.30
-36.42
-33.60
-29.26
-23.98
-18.30
-12.65
-7.37
-2.69
1.24
4.42
6.91
8.89
10.49
11.81
12.86
13.67
14.27
14.80
15.45
16.31
17.34
18.31
18.93
18.96
18.33
17.22
15.86
14.48
13.18
11.87
10.43
8.74
6.79
4.65
2.41
0.15
-2.12
-4.45
-6.87
-9.45
-12.26
-15.38
-18.86
-22.74
-26.98
-31.41
-35.73
-39.41
-41.86
-42.47
-40.82
-36.87
-31.01
-24.06
-16.93
-10.40
-4.91
-0.46
3.20
6.37
9.20
11.71
13.82
15.51
16.82
17.90
18.89
19.86
20.81
21.67
22.42
22.98
23.32
23.36
23.04
22.32
21.24
19.89
18.38
16.76
15.04
13.19
11.17
9.00
6.69
4.33
1.96
-0.34
-2.56
-4.70
-6.81
-9.07
-11.75
-15.13
-19.39
-24.41
-29.74
-34.62
-38.20
-39.73
-38.84
-35.63
-30.58
-24.48
-18.11
-12.09
-6.79
-2.34
1.26
4.06
6.05
7.24
7.71
7.68
7.48
7.48
7.97
9.03
10.54
12.21
13.66
14.58
14.84
14.49
13.70
12.67
11.52
10.24
8.70
6.73
4.23
1.24
-2.10
-5.55
-8.89
-12.00
-14.91
-17.75
-20.80
-24.35
-28.65
-33.77
-39.52
-45.38
-50.58
-54.23
-55.56
-54.11
-49.93
-43.54
-35.86
-27.92
-20.60
-14.41
-9.41
-5.34
-1.82
1.46
4.60
7.58
10.40
13.14
16.03
19.34
23.26
27.84
32.93
38.24
43.39
48.00
51.72
54.35
55.83
56.20
55.56
53.99
51.49
48.15
44.20
40.06
36.21
33.04
30.62
28.71
26.84
24.50
21.36
17.29
12.33
6.57
0.06
-7.12
-14.74
-22.33
-29.13
-34.24
-36.86
-36.54
-33.35
-27.89
-21.07
-13.83
-6.95
-0.88
4.29
8.65
12.34
15.52
18.24
20.56
22.51
24.14
25.51
26.65
27.56
28.22
28.69
29.00
29.19
29.23
29.04
28.45
27.37
25.70
23.55
21.11
18.62
16.27
14.14
12.14
10.13
7.95
5.53
2.94
0.37
-2.02
-4.22
-6.34
-8.67
-11.50
-15.06
-19.43
-24.54
-30.19
-36.01
-41.44
-45.72
-48.12
-48.02
-45.24
-40.05
-33.13
-25.33
-17.39
-9.84
-2.95
3.09
8.13
12.00
14.60
15.99
16.46
16.44
16.38
16.67
17.45
18.71
20.30
22.01
23.57
24.80
25.56
25.79
25.55
24.94
23.98
22.67
20.94
18.77
16.27
13.66
11.17
8.91
6.81
4.66
2.23
-0.57
-3.59
-6.59
-9.30
-11.62
-13.69
-15.87
-18.57
-22.11
-26.56
-31.69
-36.94
-41.52
-44.58
-45.41
-43.65
-39.37
-33.10
-25.62
-17.82
-10.45
-3.96
1.42
5.72
9.05
11.59
13.47
14.90
16.05
17.07
18.11
19.21
20.35
21.47
22.49
23.40
24.15
24.70
24.98
24.89
24.32
23.26
21.76
19.94
17.92
15.76
13.46
10.98
8.26
5.33
2.23
-0.95
-4.14
-7.24
-10.22
-13.07
-15.86
-18.80
-22.17
-26.21
-30.91
-35.94
-40.61
-44.07
-45.51
-44.48
-40.91
-35.15
-27.87
-19.89
-12.03
-4.98
0.81
5.19
8.24
10.20
11.33
11.80
11.79
11.47
11.13
11.04
11.40
12.16
13.11
