1520863577.00
64.000000
-0.00
-0.00
-0.00
-0.00
-0.00
-0.00
-0.00
-0.00
-0.00
-0.00
0.00
0.01
0.01
-0.00
-0.03
-0.05
-0.05
0.00
0.13
0.36
0.66
1.01
1.37
1.72
2.06
2.40
2.79
3.24
3.80
4.42
5.06
5.66
6.20
6.68
7.15
7.68
8.31
9.14
10.09
11.04
11.88
12.56
13.14
13.76
14.65
15.96
17.91
20.32
22.90
25.38
27.58
29.57
31.68
34.32
37.81
42.54
48.15
54.10
59.83
64.97
69.58
74.14
79.34
85.71
93.76
103.00
112.62
121.73
129.77
136.75
143.30
150.75
157.77
166.64
177.95
191.79
206.97
220.57
228.25
225.36
208.53
176.87
132.76
80.05
23.07
-34.94
-92.44
-149.16
-205.23
-260.37
-313.74
-363.87
-409.83
-450.91
-486.50
-515.74
-537.23
-549.22
-549.96
-538.37
-514.21
-478.67
-433.88
-382.45
-327.02
-269.84
-212.63
-156.66
-102.95
-52.37
-5.90
35.58
71.43
101.35
125.50
144.38
158.69
169.15
176.37
180.75
182.57
182.07
179.51
175.23
169.65
163.18
156.15
148.81
141.30
133.69
126.02
118.33
110.69
103.16
95.80
88.68
81.83
75.25
68.95
62.95
57.25
51.86
46.78
42.03
37.59
33.45
29.61
26.07
22.81
19.83
17.11
14.67
12.48
10.54
8.83
7.35
6.07
4.97
4.05
3.27
2.62
2.09
1.65
1.30
1.01
0.79
0.61
0.47
0.37
0.29
0.23
0.19
0.16
0.15
0.14
0.15
0.17
0.19
0.21
0.25
0.29
0.33
0.37
0.41
0.46
0.50
0.55
0.60
0.66
0.71
0.77
0.84
0.91
0.99
1.08
1.17
1.28
1.40
1.54
1.69
1.86
2.05
2.26
2.49
2.75
3.03
3.35
3.69
4.06
4.47
4.92
5.40
5.92
6.48
7.08
7.72
8.41
9.14
9.92
10.74
11.61
12.52
13.48
14.50
15.59
16.73
17.95
19.20
20.48
21.73
22.90
23.89
24.59
24.88
24.63
23.76
22.19
19.90
16.91
13.30
9.21
4.82
0.32
-4.06
-8.11
-11.64
-14.51
-16.62
-17.97
-18.59
-18.61
-18.14
-17.32
-16.23
-14.96
-13.53
-11.97
-10.31
-8.57
-6.81
-5.10
-3.44
-1.77
-0.04
1.85
3.92
6.21
8.67
11.12
13.41
15.48
17.41
19.30
21.33
23.59
26.12
28.86
31.37
33.36
34.79
35.81
36.76
38.04
39.87
42.29
45.08
47.41
48.68
48.73
47.84
46.64
45.83
45.86
46.72
48.03
48.40
46.82
42.78
36.38
27.97
17.84
5.51
-10.69
-28.31
-47.53
-69.07
-93.83
-122.49
-154.99
-189.74
-223.32
-250.89
-267.42
-270.32
-259.80
-239.19
-213.87
-189.34
-169.49
-155.83
-147.80
-143.85
-142.94
-144.24
-146.93
-149.88
-151.51
-150.21
-144.91
-135.51
-122.85
-108.85
-95.20
-82.95
-72.27
-62.63
-53.31
-43.76
-33.90
-23.99
-14.56
-5.90
2.09
9.70
17.29
24.94
32.40
39.20
44.75
48.52
50.26
50.06
48.29
45.44
42.07
38.59
35.23
32.01
28.85
25.58
22.02
17.82
12.53
5.62
-3.34
-14.51
-27.55
-41.54
-55.07
-66.49
-74.27
-77.29
-75.20
-68.43
-58.05
-45.42
-31.77
-17.95
-4.44
8.46
20.31
30.55
38.61
44.14
47.31
48.80
49.58
50.57
52.34
55.00
58.27
61.64
64.59
66.76
67.98
68.25
67.79
66.83
65.48
63.65
61.06
57.37
52.33
45.97
38.61
30.76
22.92
15.35
8.00
0.49
-7.55
-16.31
-25.61
-34.79
-42.86
-48.67
-51.15
-49.60
-43.87
-34.33
-21.78
-7.26
8.18
23.56
37.99
50.69
60.99
68.49
73.21
75.67
76.78
77.54
78.68
80.43
82.56
84.64
86.37
87.72
88.92
90.24
91.79
93.29
94.18
93.80
91.62
87.49
81.67
74.75
67.42
60.27
53.55
47.09
40.42
32.86
23.80
12.93
0.34
-13.39
-27.17
-39.59
-49.12
-54.49
-54.93
-50.47
-41.87
-30.42
-17.64
-4.95
6.58
16.32
24.03
29.77
33.82
36.50
38.10
38.82
38.80
38.20
37.27
36.36
35.82
35.83
36.30
36.88
37.02
36.25
34.30
31.16
27.00
21.99
16.28
9.86
2.69
-5.32
-14.20
-23.99
-34.66
-46.05
-57.68
-68.60
-77.45
-82.70
-83.01
-77.73
-67.11
-52.23
-34.75
-16.39
1.39
17.68
32.04
44.40
54.82
63.33
69.96
74.77
77.90
79.67
80.47
80.69
80.57
80.19
79.47
78.27
76.43
73.90
70.68
66.76
62.10
56.58
49.96
41.97
32.37
21.00
7.84
-6.89
-22.69
-38.72
-53.81
-66.65
-75.99
-80.93
-81.08
-76.71
-68.57
-57.77
-45.44
-32.60
-20.08
-8.45
1.94
10.94
18.59
25.06
30.59
35.50
40.11
44.61
49.07
53.32
57.03
59.74
61.15
61.11
59.75
57.32
54.10
50.24
45.77
40.59
34.59
27.72
19.96
11.32
1.91
-8.00
-17.81
-26.63
-33.37
-37.03
-36.97
-33.13
-26.08
-16.81
-6.51
3.72
13.05
20.92
27.06
31.37
33.91
34.85
34.51
33.30
31.68
30.08
28.81
27.96
27.40
26.80
25.75
23.91
21.15
17.58
13.54
9.39
5.34
1.38
-2.83
-7.72
-13.72
-21.07
-29.68
-39.12
-48.63
-57.17
-63.58
-66.74
-65.88
-60.77
-51.87
-40.20
-27.12
-13.98
-1.85
8.61
17.14
23.77
28.64
31.97
33.99
34.94
35.14
34.94
34.64
34.47
34.50
34.65
34.71
34.42
33.55
31.96
29.60
26.49
22.66
18.15
12.97
7.14
0.66
-6.51
-14.43
-23.18
-32.70
-42.67
-52.41
-60.93
-67.04
-69.68
-68.16
-62.45
-53.10
-41.14
-27.80
-14.27
-1.50
9.88
19.47
27.18
33.07
37.39
40.48
42.66
44.26
45.44
46.29
46.81
47.01
46.84
46.31
45.42
44.25
42.88
41.36
39.63
37.44
34.45
30.31
24.90
18.38
11.21
3.94
-3.03
-9.67
-16.31
-23.54
-31.91
-41.73
-52.85
-64.60
-75.82
-85.06
-90.75
-91.62
-86.97
-76.92
-62.43
-45.05
-26.53
-8.45
8.08
22.45
34.49
44.23
51.80
57.35
61.10
63.33
64.41
64.76
64.69
64.44
64.04
63.43
62.47
61.14
59.55
57.86
56.25
54.67
52.93
50.66
47.62
43.73
39.15
34.10
28.80
23.34
17.67
11.72
5.49
-0.92
-7.39
-13.84
-20.34
-27.12
-34.52
-42.88
-52.39
-62.91
-73.86
-84.16
-92.37
-96.99
-96.80
-91.30
-80.86
-66.67
-50.43
-33.85
-18.23
-4.26
7.98
18.75
28.33
36.90
44.51
51.21
57.21
62.86
68.62
74.82
81.51
88.51
95.46
101.96
107.72
112.64
116.73
120.15
123.12
125.94
129.00
132.60
136.81
141.12
144.33
144.58
139.89
128.75
110.84
87.21
60.18
32.55
6.88
-15.12
-32.80
-46.37
-56.55
-64.17
-70.12
-75.21
-80.21
-85.65
-91.59
-97.48
-102.23
-104.57
-103.60
-99.10
-91.67
-82.47
-72.81
-63.72
-55.76
-49.04
-43.39
-38.55
-34.28
-30.37
-26.57
-22.55
-17.93
-12.26
-5.20
3.38
13.23
23.70
33.80
42.50
49.00
53.00
54.69
54.66
53.55
51.88
49.94
47.88
45.90
44.33
43.60
44.12
46.09
49.42
53.82
58.85
64.10
69.14
73.50
76.57
77.63
75.99
71.15
63.00
51.89
38.57
24.07
9.58
-3.66
-14.48
-21.87
-25.23
-24.54
-20.47
-14.20
-7.08
-0.26
5.59
10.27
13.98
17.03
19.70
22.21
24.71
27.30
29.89
32.06
33.15
32.26
28.68
22.11
12.81
1.44
-11.19
-24.30
-37.31
-49.75
-61.21
-71.37
-80.06
-87.41
-93.78
-99.57
-105.04
-110.06
-114.24
-117.15
-118.52
-118.35
-116.88
-114.45
-111.38
-107.93
-104.33
-100.72
-97.18
-93.58
-89.75
-85.42
-80.41
-74.61
-68.00
-60.58
-52.42
-43.80
-35.21
-27.36
-20.92
-16.32
-13.54
-12.14
-11.49
-11.00
-10.38
-9.65
-9.10
-9.12
-9.96
-11.68
-14.04
-16.72
-19.40
-21.95
-24.46
-27.13
-30.14
-33.49
-37.01
-40.42
-43.44
-45.93
-47.88
-49.39
-50.67
-51.87
-53.05
-54.06
-54.52
-53.94
-51.93
-48.35
-43.49
-37.91
-32.34
-27.43
-23.65
-21.36
-20.73
-21.80
-24.28
-27.54
-30.60
-32.45
-32.33
-30.02
-25.85
-20.46
-14.60
-8.92
-3.90
0.12
2.93
4.43
4.72
4.11
3.04
1.90
0.93
0.18
-0.40
-0.84
-1.01
-0.73
0.13
1.53
3.22
4.78
5.76
5.91
5.20
3.93
2.54
1.53
1.23
1.73
2.82
4.08
5.05
5.37
4.86
3.55
1.63
-0.61
-2.91
-5.03
-6.85
-8.33
-9.52
-10.54
-11.48
-12.43
-13.35
-14.06
-14.22
-13.44
-11.40
-8.02
-3.55
1.50
6.51
11.03
14.91
18.33
21.61
24.94
28.30
31.33
33.66
35.06
35.62
35.79
36.22
37.45
39.78
43.15
47.11
50.99
53.96
55.25
54.36
51.24
46.44
40.96
35.95
32.19
29.81
28.21
26.49
23.83
19.85
14.64
8.60
2.20
-4.08
-9.73
-14.00
-15.98
-14.90
-10.52
-3.44
4.95
12.93
18.98
22.22
22.49
20.11
15.63
9.68
2.91
-3.90
-9.86
-14.15
-16.31
-16.35
-14.80
-12.44
-10.03
-8.06
-6.70
-5.94
-5.81
-6.37
-7.74
-9.94
-12.78
-15.89
-18.80
-21.08
-22.50
-23.06
-22.90
-22.27
-21.45
-20.79
-20.75
-21.86
-24.52
-28.82
-34.31
-40.14
-45.31
-49.09
-51.19
-51.87
-51.64
-51.01
-50.32
-49.72
-49.21
-48.75
-48.32
-47.97
-47.77
-47.90
-48.52
-49.78
-51.71
-54.22
-57.06
-59.86
-62.26
-63.94
-64.64
-64.17
-62.54
-59.87
-56.48
-52.80
-49.26
-46.22
-43.91
-42.49
-42.03
-42.57
-44.05
-46.21
-48.69
-51.03
-52.86
-53.97
-54.33
-53.98
-52.98
-51.25
-48.69
-45.20
-40.87
-35.95
-30.86
-26.08
-22.05
-19.04
-17.10
-16.05
-15.55
-15.17
-14.59
-13.60
-12.16
-10.40
-8.56
-6.94
-5.86
-5.52
-6.00
-7.17
-8.76
-10.52
-12.39
-14.58
-17.54
-21.69
-27.17
-33.60
-40.14
-45.70
-49.23
-50.03
-47.93
-43.22
-36.52
-28.49
-19.72
-10.65
-1.57
7.22
15.44
22.81
29.13
34.31
38.41
41.56
43.89
45.45
46.24
46.26
45.57
44.28
42.60
40.64
38.45
35.93
32.95
29.42
25.35
20.81
15.88
10.52
4.60
-2.09
-9.67
-17.93
-26.30
-33.88
-39.67
-42.83
-42.94
-40.13
-34.99
-28.24
-20.61
-12.55
-4.36
3.70
11.26
17.84
22.99
26.55
28.72
29.99
30.93
31.92
33.04
34.12
34.87
35.10
34.71
33.69
32.00
29.62
26.47
22.56
17.95
12.76
7.13
1.13
-5.24
-12.12
-19.77
-28.54
-38.62
-49.89
-61.72
-73.03
-82.46
-88.75
-91.07
-89.23
-83.71
-75.42
-65.46
-54.79
-44.16
-34.01
-24.58
-15.98
-8.30
-1.60
4.14
9.16
13.90
18.90
24.51
30.80
37.41
43.72
49.10
53.25
56.22
58.36
60.00
61.30
62.04
61.76
60.02
56.60
51.65
45.66
39.19
32.71
26.37
19.99
13.15
5.42
-3.49
-13.59
-24.59
-35.85
-46.49
-55.41
-61.52
-63.91
-62.08
-56.04
-46.36
-34.05
-20.32
-6.32
7.00
19.07
29.63
38.68
46.36
52.86
58.40
63.21
67.51
71.46
75.15
78.50
81.33
83.42
84.64
84.98
84.61
83.74
82.49
80.86
78.75
76.01
72.55
68.38
63.52
58.00
51.76
44.70
36.74
27.90
18.38
8.56
-1.09
-10.16
-18.40
-25.79
-32.60
-39.25
-46.32
-54.31
-63.50
-73.74
-84.30
-93.84
-100.75
-103.55
-101.36
-94.18
-82.87
-68.76
-53.25
-37.43
-22.00
-7.39
6.05
18.05
28.48
37.37
45.05
51.94
58.37
64.50
70.21
75.19
79.17
81.98
83.62
84.29
84.31
83.97
83.47
82.84
81.87
80.28
77.80
74.34
70.08
65.34
60.48
55.71
51.00
46.15
40.90
35.13
28.92
22.52
16.19
10.14
4.43
-1.02
-6.39
-11.84
-17.59
-23.81
-30.61
-37.92
-45.35
-52.15
-57.31
-59.82
-58.98
-54.62
-47.25
-37.77
-27.34
-16.94
-7.28
1.37
9.01
15.85
22.02
27.59
32.53
36.79
40.43
43.56
46.37
48.93
51.24
53.15
54.59
55.59
56.35
57.03
57.66
58.01
57.65
56.23
53.71
50.39
46.84
43.56
40.72
38.14
35.41
32.21
28.47
24.44
20.52
17.06
14.13
11.57
8.98
5.87
1.80
-3.51
-10.01
-17.29
-24.56
-30.77
-34.94
-36.33
-34.76
-30.55
-24.42
-17.23
-9.72
-2.43
4.35
10.48
15.88
20.42
24.02
26.67
28.56
30.03
31.49
33.23
35.29
37.45
39.35
40.73
41.52
41.85
41.96
41.99
41.90
41.47
40.42
38.53
35.76
32.25
28.23
24.00
19.77
15.71
11.87
8.20
4.45
0.28
-4.71
-10.80
-17.91
-25.53
-32.75
-38.50
-41.85
-42.32
-39.98
-35.34
-29.16
-22.23
-15.15
-8.34
-2.05
3.47
8.06
11.59
14.06
15.68
16.81
17.82
19.02
20.46
22.01
23.42
24.50
25.20
25.62
25.87
25.98
25.85
25.34
24.31
22.70
20.51
17.80
14.63
11.10
7.32
3.41
-0.56
-4.60
-8.83
-13.45
-18.64
-24.49
-30.82
-37.18
-42.82
-46.82
-48.34
-46.83
-42.25
-35.11
-26.25
-16.60
-6.90
2.42
11.20
19.35
26.72
33.08
38.20
42.05
44.80
46.90
48.81
50.82
52.90
54.73
55.82
55.85
54.74
52.72
50.15
47.30
44.24
40.80
36.73
31.87
26.26
20.15
13.90
7.81
2.03
-3.48
-8.90
-14.44
-20.33
-26.77
-33.87
-41.65
-49.91
-58.23
-65.83
-71.81
-75.30
-75.79
-73.26
-68.21
-61.42
-53.71
-45.77
-38.06
-30.96
-24.76
-19.67
-15.79
-12.99
-10.94
-9.16
-7.23
-4.90
-2.21
0.66
3.42
5.78
7.61
8.87
9.69
10.22
10.58
10.77
10.61
9.87
8.27
5.67
2.12
-2.12
-6.67
-11.20
-15.52
-19.70
-23.98
-28.73
-34.23
-40.54
-47.45
-54.41
-60.60
-65.15
-67.28
-66.56
-63.05
-57.21
-49.84
-41.73
-33.51
-25.56
-18.06
-11.20
-5.13
-0.07
3.91
6.90
9.16
11.03
12.74
14.38
15.88
17.10
17.92
18.32
18.38
18.22
17.95
17.59
17.06
16.12
14.56
12.17
8.95
5.07
0.80
-3.57
-7.88
-12.13
-16.45
-21.04
-26.05
-31.61
-37.75
-44.43
-51.57
-58.93
-66.13
-72.49
-77.21
-79.45
-78.61
-74.55
-67.71
-58.99
-49.45
-39.99
-31.15
-23.08
-15.70
-8.97
-2.92
2.27
6.52
9.90
12.74
15.47
18.48
21.95
25.77
29.64
33.17
36.02
38.00
39.09
39.44
39.21
38.51
37.40
35.80
33.60
30.76
27.32
23.45
19.36
15.20
11.02
6.79
2.39
-2.19
-6.91
-11.73
-16.71
-22.08
-28.12
-34.93
-42.22
-49.16
-54.64
-57.58
-57.37
-54.05
-48.19
-40.63
-32.19
-23.47
-14.88
-6.73
0.67
7.09
12.35
16.46
19.55
21.84
23.59
25.07
26.48
27.97
29.58
31.24
32.81
34.18
35.26
36.04
36.44
36.34
35.56
33.94
31.45
28.20
24.42
20.36
16.24
12.23
8.40
4.77
1.27
-2.33
-6.35
-11.16
-16.98
-23.77
-31.09
-38.17
-44.05
-47.82
-48.87
-47.04
-42.58
-36.10
-28.38
-20.20
-12.26
-5.05
1.11
6.09
9.92
12.73
14.74
16.18
17.35
18.51
19.90
21.66
23.78
26.06
28.19
29.92
31.07
31.65
31.63
31.00
29.66
27.56
24.77
21.55
18.25
15.14
12.30
9.51
6.42
2.65
-1.98
-7.43
-13.45
-19.60
-25.32
-29.94
-32.74
-33.10
-30.70
-25.65
-18.53
-10.24
-1.76
6.08
12.78
18.16
22.27
25.26
27.28
28.51
29.16
29.49
29.84
30.45
31.42
32.64
33.84
34.68
34.91
34.42
33.33
31.86
30.26
28.62
26.86
24.74
21.98
18.37
13.85
8.58
2.84
-2.99
-8.61
-13.85
-18.76
-23.65
-28.95
-35.08
-42.19
-49.99
-57.74
-64.40
-68.90
-70.48
-68.82
-64.10
-56.84
-47.75
-37.58
-27.05
-16.88
-7.71
-0.03
5.84
9.90
12.44
13.95
14.96
15.96
17.20
18.73
20.38
21.90
23.05
23.69
23.83
23.55
23.04
22.40
21.61
20.50
18.78
16.19
12.62
8.18
3.22
-1.78
-6.38
-10.35
-13.79
-17.05
-20.60
-24.90
-30.24
-36.67
-43.96
-51.62
-58.89
-64.79
-68.38
-68.85
-65.86
-59.61
-50.82
-40.55
-29.85
-19.55
-10.12
-1.70
5.74
12.28
17.91
22.64
26.47
29.49
31.98
34.29
36.76
39.56
42.60
45.58
48.13
49.95
50.96
51.25
51.00
50.31
49.21
47.63
45.50
42.80
39.59
35.92
31.82
27.27
22.31
17.10
11.89
6.96
2.42
-1.91
-6.44
-11.72
-18.11
-25.68
-33.95
-42.03
-48.80
-53.17
-54.41
-52.31
-47.19
-39.83
-31.17
-22.16
-13.58
-5.95
0.46
5.61
9.58
12.52
14.64
16.17
17.33
18.33
19.39
20.65
22.13
23.78
25.40
26.77
27.75
28.34
28.63
28.73
28.66
28.25
27.23
25.37
22.53
18.86
14.67
10.34
6.13
2.08
-1.93
-6.18
-10.92
-16.29
-22.38
-29.16
-36.54
-44.24
-51.64
-57.88
-61.92
-62.90
-60.46
-54.90
-47.05
-37.99
-28.71
-19.91
-11.95
-5.00
0.86
5.57
9.10
11.55
13.14
14.20
15.04
15.90
16.87
17.96
19.11
20.26
21.37
22.43
23.38
24.14
24.53
24.33
23.34
21.41
18.56
15.00
11.09
7.18
3.47
-0.07
-3.66
-7.68
-12.44
-18.13
-24.71
-31.93
-39.34
-46.29
-52.05
-55.86
-57.10
-55.44
-50.98
-44.24
-36.08
-27.48
-19.29
-12.10
-6.20
-1.64
1.63
3.72
4.76
4.93
4.43
3.56
2.65
2.02
1.94
2.55
3.84
5.63
7.63
9.44
10.78
11.43
11.36
10.63
9.35
7.62
5.49
3.01
0.25
-2.79
-6.14
-9.96
-14.42
-19.69
-25.71
-32.09
-38.11
-42.80
-45.21
-44.70
-41.11
-34.88
-26.88
-18.19
-9.89
-2.83
2.46
5.85
7.62
8.45
9.24
10.89
14.07
18.93
25.09
31.79
38.13
43.40
47.23
49.69
51.14
51.98
52.45
52.49
51.80
49.97
46.71
42.05
36.33
30.13
23.99
18.20
12.77
7.49
2.12
-3.45
-9.13
-14.63
-19.53
-23.32
-25.42
-25.31
-22.62
-17.31
-9.76
-0.77
8.63
17.46
24.94
30.62
34.36
36.36
37.11
37.44
38.29
40.48
44.31
49.27
54.05
56.87
56.02
50.51
40.42
26.95
12.01
-2.34
-14.50
-23.78
-30.49
-35.65
-40.51
-46.06
-52.73
-60.37
-68.45
-76.34
-83.50
-89.63
-94.74
-99.20
-103.68
-108.78
-114.64
-120.44
-124.31
-123.87
-117.01
-102.87
-82.24
-57.43
-31.43
-7.06
13.70
29.88
41.31
48.37
51.74
52.29
51.05
49.04
47.09
45.64
44.80
44.50
44.68
45.39
46.72
48.64
50.98
53.42
55.55
57.07
57.78
57.63
56.64
54.80
52.17
48.79
44.78
40.22
35.31
30.27
25.33
20.69
16.40
12.28
7.92
2.71
-3.93
-12.34
-22.51
-33.94
-45.51
-55.58
-62.13
-63.18
-57.44
-44.85
-26.78
-5.80
15.17
33.62
48.16
58.55
65.28
69.06
70.49
69.97
67.96
65.10
62.21
59.98
58.80
58.56
58.84
59.16
59.14
58.60
57.58
56.23
54.72
53.19
51.66
49.96
47.70
44.35
39.45
32.84
24.79
15.85
6.70
-2.18
-10.60
-18.67
-26.59
-34.54
-42.62
-50.95
-59.73
-69.23
-79.65
-90.79
-101.87
-111.35
-117.33
-117.98
-112.25
-100.21
-83.21
-63.46
-43.40
-25.03
-9.58
2.54
11.46
17.49
21.00
22.33
21.97
20.56
18.88
17.64
17.30
17.94
19.26
20.73
21.81
22.14
21.61
20.34
18.51
16.26
13.56
10.22
6.05
0.98
-4.83
-11.02
-17.13
-22.82
-27.97
-32.84
-37.91
-43.81
-51.08
-60.02
-70.53
-82.04
-93.44
-103.10
-109.12
-109.68
-103.58
-90.75
-72.43
-50.93
-29.02
-9.17
7.02
18.97
26.86
31.21
32.62
31.64
28.94
25.45
22.26
20.37
20.34
22.11
25.09
28.46
31.51
33.80
35.15
35.43
34.49
32.14
28.17
22.64
15.81
8.13
0.07
-8.01
-16.06
-24.26
-33.03
-42.83
-54.05
-66.79
-80.67
-94.68
-107.27
-116.65
-121.23
-120.13
-113.59
-102.81
-89.72
-76.32
-64.26
-54.48
-47.32
-42.63
-40.04
-39.02
-38.95
-39.05
-38.51
-36.67
-33.15
-28.00
-21.51
-14.12
-6.28
1.63
9.20
15.88
21.01
23.97
24.40
22.35
18.34
13.15
7.53
1.97
-3.44
-8.94
-15.02
-22.35
-31.59
-43.21
-56.97
-71.55
-84.37
-92.07
-91.51
-81.06
-61.41
-35.63
-8.17
16.53
35.37
47.16
52.36
52.27
48.33
41.72
33.54
24.92
17.12
11.27
7.94
6.94
7.48
8.59
9.63
10.49
11.52
13.09
15.17
17.19
18.13
16.99
13.22
7.05
-0.63
-8.50
-15.42
-20.88
-25.26
-29.76
-35.97
-45.26
-58.12
-73.79
-90.11
-103.88
-111.62
-110.54
-99.41
-79.07
-52.16
-22.30
6.96
33.14
55.10
72.78
86.58
96.85
103.63
106.94
107.10
104.94
101.71
98.60
96.40
95.21
94.58
93.83
92.44
90.32
87.83
85.47
83.55
81.90
79.85
76.43
70.85
62.82
52.73
41.52
30.32
19.99
10.79
2.33
-6.34
-16.29
-28.26
-42.28
-57.35
-71.44
-81.91
-86.10
-82.17
-69.74
-50.05
-25.68
0.18
24.55
45.38
61.75
73.72
81.88
86.93
89.42
89.70
88.16
85.37
82.15
79.41
77.89
77.81
78.84
80.22
81.08
80.82
79.29
76.72
73.53
70.00
66.09
61.44
55.58
48.17
39.22
29.16
18.77
8.85
0.05
-7.41
-13.73
-19.44
-25.23
-31.76
-39.65
-49.30
-60.73
-73.28
-85.36
-94.61
-98.39
-94.70
-82.90
-64.11
-40.90
-16.47
6.26
25.39
40.16
50.72
57.72
61.87
63.81
64.09
63.24
61.73
60.01
58.52
57.53
57.27
57.71
58.67
59.73
60.41
60.22
58.86
56.29
52.67
48.31
43.46
38.22
32.49
26.13
18.97
11.03
2.50
-6.31
-15.05
-23.39
-31.07
-37.95
-43.98
-49.33
-54.51
-60.35
-67.83
-77.58
-89.38
-101.75
-112.13
-117.51
-115.46
-104.99
-87.02
-64.05
-39.30
-15.71
4.74
21.21
33.71
42.57
48.21
50.96
51.24
49.69
47.21
44.75
43.16
42.92
44.10
46.40
49.29
52.19
54.56
56.04
56.43
55.68
53.82
50.95
47.13
42.45
37.03
30.99
24.50
17.68
10.60
3.30
-4.16
-11.69
-19.18
-26.54
-33.83
-41.38
-49.69
-59.31
-70.47
-82.72
-94.66
-104.11
-108.54
-105.93
-95.47
-78.01
-55.83
-32.00
-9.40
9.95
25.13
36.12
43.29
47.04
47.73
45.84
42.24
38.11
34.72
33.01
33.26
35.05
37.53
39.86
41.56
42.56
43.07
43.22
42.87
41.55
38.66
33.74
26.77
18.20
8.88
-0.29
-8.65
-16.00
-22.64
-29.25
-36.64
-45.46
-55.93
-67.54
-78.99
-88.25
-92.95
-91.17
-82.06
-66.30
-46.03
-24.17
-3.53
13.98
27.57
37.32
43.65
46.89
47.21
44.87
40.45
35.03
29.92
26.24
24.56
24.74
26.11
27.80
29.14
29.86
29.97
29.66
28.93
27.59
25.20
21.32
15.75
8.63
0.48
-7.95
-15.99
-23.21
-29.60
-35.55
-41.76
-49.01
-57.94
-68.65
-80.49
-91.86
-100.44
-103.77
-100.02
-88.67
-70.81
-48.84
-25.71
-4.09
14.27
28.66
39.12
46.04
49.89
51.10
50.20
47.88
44.97
42.33
40.56
39.94
40.27
41.10
41.78
41.79
40.86
39.08
36.80
34.43
32.11
29.60
26.29
21.50
14.82
6.38
-3.16
-12.83
-21.76
-29.46
-36.03
-41.94
-47.94
-54.76
-62.91
-72.57
-83.24
-93.72
-102.05
-105.92
-103.30
-93.22
-76.23
-54.37
-30.57
-7.73
12.03
27.80
39.66
48.19
54.00
57.47
58.86
58.50
57.04
55.27
53.97
53.60
54.12
55.05
55.76
55.80
55.08
53.88
52.69
51.84
51.31
50.68
49.25
46.30
41.47
34.91
27.34
19.75
13.09
7.84
3.86
0.49
-3.17
-7.97
-14.37
-22.34
-31.23
-39.66
-45.56
-46.40
-39.81
-24.50
-1.02
28.02
58.58
86.51
108.86
124.61
134.31
139.15
139.95
136.86
129.61
118.31
103.80
87.46
70.67
54.15
37.97
21.94
6.31
-7.93
-19.35
-26.82
-30.15
-30.41
-29.50
-29.50
-31.91
-37.17
-44.69
-53.14
-61.10
-67.60
-72.57
-76.75
-81.23
-86.61
-92.62
-98.12
-101.84
-103.13
-102.45
-101.00
-99.97
-99.82
-100.05
-99.63
-97.69
-93.95
-88.59
-81.90
-73.89
-64.40
-53.46
-41.58
-29.72
-18.86
-9.51
-1.62
5.20
11.22
16.40
20.48
23.33
25.25
26.90
28.99
31.86
35.31
38.79
41.71
43.84
45.29
46.43
47.50
48.50
49.14
49.01
47.73
45.13
41.25
36.28
30.61
24.67
18.88
13.53
8.69
4.20
-0.18
-4.69
-9.44
-14.46
-19.78
-25.53
-31.95
-39.19
-47.19
-55.45
-63.08
-68.96
-72.08
-71.79
-67.96
-60.99
-51.72
-41.12
-30.15
-19.61
-10.06
-1.86
4.74
9.68
12.99
14.87
15.67
15.81
15.75
15.86
16.41
17.49
19.07
21.01
23.12
25.15
26.84
27.97
28.38
28.00
26.89
25.15
22.92
20.30
17.38
14.20
10.79
7.18
3.42
-0.47
-4.48
-8.60
-12.79
-17.03
-21.30
-25.71
-30.44
-35.75
-41.77
-48.37
-55.03
-60.88
-64.86
-66.07
-63.94
-58.50
-50.33
-40.40
-29.81
-19.55
-10.37
-2.67
3.35
7.62
10.15
11.11
10.82
9.83
8.81
8.35
8.79
10.12
12.04
14.15
16.16
17.89
19.31
20.36
20.92
20.81
19.85
18.01
15.36
12.10
8.44
4.62
0.84
-2.75
-6.14
-9.47
-13.04
-17.23
-22.35
-28.49
-35.32
-42.20
-48.14
-52.13
-53.29
-51.16
-45.77
-37.70
-27.91
-17.51
-7.53
1.26
8.40
13.74
17.25
19.08
19.46
18.74
17.40
15.97
14.91
14.54
14.91
15.87
17.05
18.16
18.90
19.22
19.16
18.81
18.17
17.15
15.58
13.27
10.20
6.47
2.35
-1.86
-5.99
-10.02
-14.10
-18.46
-23.33
-28.80
-34.89
-41.56
-48.70
-56.06
-63.14
-69.10
-72.86
-73.44
-70.23
-63.31
-53.43
-41.82
-29.74
-18.24
-8.00
0.61
7.43
12.41
15.62
17.29
17.84
17.80
17.77
18.24
19.49
21.58
24.28
27.14
29.63
31.30
31.95
31.65
30.64
29.19
27.38
25.07
21.99
17.99
13.10
7.64
2.00
-3.50
-8.77
-13.88
-18.97
-24.12
-29.31
-34.60
-40.13
-46.18
-52.91
-60.07
-66.85
-72.02
-74.22
-72.49
-66.67
-57.34
-45.66
-32.92
-20.30
-8.66
1.44
9.69
16.00
20.44
23.29
24.97
25.93
26.64
27.43
28.54
30.06
31.99
34.19
36.51
38.75
40.80
42.54
43.85
44.59
44.55
43.56
41.53
38.55
34.82
30.54
25.86
20.83
15.43
9.72
3.90
-1.71
-6.90
-11.63
-16.17
-20.97
-26.54
-33.25
-41.21
-50.23
-59.77
-68.95
-76.59
-81.35
-82.12
-78.27
-70.00
-58.24
-44.50
-30.32
-16.94
-5.10
4.91
13.07
19.44
24.12
27.24
29.06
29.96
30.40
30.82
31.63
33.09
35.30
38.18
41.52
44.94
48.07
50.53
52.02
52.33
51.33
49.01
45.51
41.17
36.50
31.99
27.92
24.25
20.62
16.55
11.67
5.92
-0.44
-6.99
-13.38
-19.50
-25.47
-31.60
-38.23
-45.64
-53.94
-62.92
-71.98
-80.07
-85.80
-87.83
-85.21
-77.82
-66.34
-52.15
-36.83
-21.85
-8.22
3.49
13.11
20.66
26.29
30.24
32.81
34.42
35.57
36.76
38.39
40.69
43.66
47.02
50.42
53.47
55.92
57.63
58.58
58.76
58.13
56.62
54.22
51.00
47.13
42.79
38.15
33.22
27.95
22.22
16.00
9.41
2.65
-3.97
-10.24
-16.15
-21.96
-28.13
-35.18
-43.43
-52.79
-62.64
-71.87
-79.18
-83.31
-83.44
-79.30
-71.24
-60.08
-46.94
-33.00
-19.33
-6.78
4.08
12.93
19.69
24.44
27.38
28.84
29.24
29.12
29.07
29.61
31.04
33.34
36.21
39.15
41.71
43.58
44.64
44.94
44.53
43.42
41.60
39.10
35.99
32.40
28.40
23.99
19.14
13.82
8.11
2.20
-3.70
-9.38
-14.81
-20.11
-25.58
-31.60
-38.53
-46.47
-55.11
-63.59
-70.60
-74.72
-74.82
-70.47
-62.05
-50.60
-37.50
-24.08
-11.41
-0.21
9.07
16.16
20.99
23.69
24.67
24.54
24.00
23.71
24.18
25.60
27.90
30.76
33.72
36.39
38.44
39.76
40.32
40.17
39.26
37.48
34.71
30.91
26.23
20.98
15.55
10.15
4.81
-0.70
-6.65
-13.26
-20.55
-28.33
-36.25
-43.81
-50.33
-54.97
-56.85
-55.28
-49.98
-41.28
-30.06
-17.60
-5.12
6.33
16.05
23.65
28.97
32.03
33.05
32.50
31.08
29.57
28.61
28.57
29.41
30.83
32.38
33.72
34.68
35.28
35.57
35.55
35.05
33.79
31.50
28.03
23.44
18.01
12.13
6.16
0.39
-5.12
-10.51
-16.16
-22.54
-30.06
-38.90
-48.85
-59.22
-68.84
-76.38
-80.57
-80.60
-76.29
-68.17
-57.29
-44.94
-32.31
-20.33
-9.55
-0.28
7.33
13.17
17.23
19.69
20.98
21.76
22.67
24.21
26.52
29.38
32.36
34.99
36.98
38.29
39.01
39.31
39.17
38.39
36.61
33.46
28.79
22.79
15.99
9.04
2.47
-3.54
-9.25
-15.11
-21.69
-29.32
-38.06
-47.63
-57.34
-66.20
-72.99
-76.51
-75.86
-70.77
-61.64
-49.52
-35.71
-21.59
-8.27
3.47
13.15
20.61
25.90
29.29
31.31
32.59
33.75
35.27
37.31
39.74
42.15
44.14
45.39
45.84
45.67
45.16
44.50
43.67
42.40
40.29
36.99
32.38
26.63
20.15
13.49
7.08
1.09
-4.65
-10.60
-17.29
-25.13
-34.12
-43.79
-53.15
-60.92
-65.78
-66.75
-63.46
-56.23
-46.01
-34.04
-21.54
-9.38
1.90
11.99
20.65
27.60
32.57
35.53
36.82
37.15
37.41
38.32
40.18
42.79
45.58
47.89
49.22
49.39
48.56
47.04
45.17
43.09
40.75
37.90
34.23
29.53
23.83
17.39
10.65
4.08
-2.05
-7.72
-13.13
-18.67
-24.73
-31.61
-39.38
-47.81
-56.26
-63.70
-68.88
-70.66
-68.35
-61.95
-52.22
-40.35
-27.62
-15.08
-3.42
6.97
15.82
22.90
28.02
31.18
32.63
32.98
32.94
33.17
34.06
35.61
37.52
39.39
40.87
41.78
42.08
41.75
40.73
38.95
36.36
33.01
29.02
24.63
20.04
15.45
10.98
6.69
2.56
-1.59
-6.01
-11.06
-17.05
-24.08
-31.94
-39.99
-47.23
-52.51
-54.76
-53.30
-48.03
-39.51
-28.79
-17.10
-5.56
5.00
14.13
21.54
27.07
30.64
32.28
32.28
31.27
30.01
29.20
29.28
30.25
31.75
33.27
34.41
35.01
35.18
35.14
34.98
34.57
33.55
31.50
28.12
23.42
17.69
11.45
5.22
-0.63
-5.95
-10.83
-15.55
-20.48
-26.00
-32.38
-39.59
-47.14
-54.10
-59.15
-61.04
-58.95
-52.82
-43.44
-32.15
-20.38
-9.26
0.61
9.12
16.31
22.24
26.83
30.00
31.83
32.66
32.98
33.33
34.08
35.35
37.03
38.88
40.62
41.95
42.64
42.51
41.44
39.50
36.83
33.66
30.21
26.53
22.60
18.30
13.61
8.61
3.53
-1.36
-5.92
-10.13
-14.20
-18.43
-23.14
-28.57
-34.88
-42.06
-49.88
-57.76
-64.79
-69.83
-71.81
-70.07
-64.60
-56.01
-45.35
-33.75
-22.18
-11.32
-1.64
6.57
13.08
17.88
21.14
23.24
24.68
25.93
27.31
28.98
30.94
33.07
35.21
37.14
38.67
39.63
39.96
39.66
38.78
37.38
35.48
33.12
30.32
27.15
23.73
20.13
16.35
12.33
7.97
3.23
-1.79
-6.91
-11.84
-16.33
-20.33
-23.97
-27.65
-31.92
-37.24
-43.76
-51.05
-58.11
-63.55
-66.01
-64.64
-59.37
-50.91
-40.51
-29.53
-19.05
-9.71
-1.77
4.78
10.05
14.20
17.40
19.91
22.00
23.94
25.89
27.85
29.73
31.37
32.66
33.58
34.24
34.73
35.12
35.34
35.21
34.51
33.04
30.76
27.78
24.36
20.81
17.39
14.25
11.33
8.44
5.34
1.83
-2.08
-6.24
-10.38
-14.26
-17.84
-21.28
-24.92
-29.17
-34.34
-40.57
-47.65
-55.06
-61.85
-66.91
-69.08
-67.56
-62.17
-53.49
-42.70
-31.28
-20.47
-11.11
-3.47
2.57
7.28
10.90
13.59
15.52
16.90
18.02
19.15
20.49
22.08
23.82
25.51
26.99
28.15
29.04
29.68
30.11
30.22
29.82
28.70
26.77
24.13
21.03
17.82
14.76
11.94
9.24
6.45
3.34
-0.14
-3.90
-7.74
-11.43
-14.87
-18.07
-21.22
-24.64
-28.65
-33.55
-39.41
-46.03
-52.88
-59.10
-63.66
-65.61
-64.32
-59.67
-52.18
-42.79
-32.68
-22.99
-14.54
-7.77
-2.70
0.92
3.50
5.38
6.84
8.04
9.10
10.14
11.34
12.83
14.66
16.73
18.84
20.75
22.28
23.38
24.05
24.31
24.11
23.39
22.07
20.19
17.88
15.32
12.66
9.91
7.02
3.90
0.58
-2.80
-6.02
-8.93
-11.58
-14.22
-17.29
-21.13
-25.93
-31.50
-37.24
-42.26
-45.53
-46.19
-43.78
-38.43
-30.78
-21.85
-12.74
-4.39
2.60
8.00
11.85
14.34
15.70
16.17
15.98
15.37
14.60
13.94
13.61
13.69
14.20
15.07
16.20
17.47
18.79
19.98
20.79
20.99
20.41
19.02
16.97
14.50
11.85
9.13
6.34
3.37
0.17
-3.25
-6.78
-10.24
-13.52
-16.62
-19.73
-23.16
-27.28
-32.29
-38.11
-44.28
-49.93
-54.06
-55.68
-54.21
-49.58
-42.29
-33.28
-23.70
-14.55
-6.56
-0.06
4.91
8.48
10.82
12.10
12.54
12.46
12.26
12.34
12.93
14.06
15.54
17.14
18.61
19.85
20.81
21.47
21.74
21.54
20.81
19.57
17.92
15.97
13.78
11.33
8.51
5.26
1.53
-2.53
-6.72
-10.80
-14.58
-18.07
-21.47
-25.14
-29.49
-34.82
-41.17
-48.18
-55.14
-61.09
-65.01
-66.06
-63.83
-58.45
-50.55
-41.08
-31.07
-21.40
-12.66
-5.25
0.61
4.86
7.61
9.17
10.02
10.65
11.49
12.68
14.16
15.81
17.50
19.21
21.01
22.83
24.54
25.84
26.48
26.38
25.61
24.32
22.62
20.51
17.91
14.76
11.13
7.19
3.17
-0.81
-4.81
-9.01
-13.56
-18.50
-23.78
-29.40
-35.47
-42.23
-49.68
-57.43
-64.47
-69.43
-71.07
-68.71
-62.59
-53.68
-43.29
-32.61
-22.41
-13.09
-4.82
2.23
7.87
12.01
14.70
16.23
17.02
17.52
18.10
18.99
20.30
22.00
23.92
25.79
27.38
28.48
29.06
29.16
28.82
28.06
26.81
25.00
22.54
19.42
15.62
11.17
6.15
0.71
-4.89
-10.44
-15.86
-21.27
-27.00
-33.49
-41.00
-49.45
-58.25
-66.43
-72.76
-76.15
-75.84
-71.66
-64.06
-53.90
-42.33
-30.43
-19.04
-8.70
0.33
7.92
14.01
18.53
21.51
23.15
23.88
24.28
24.92
26.12
27.92
30.05
32.16
33.95
35.36
36.41
37.18
37.67
37.75
37.24
35.93
33.69
30.49
26.37
21.47
16.03
10.35
4.71
-0.67
-5.76
-10.66
-15.64
-21.07
-27.31
-34.60
-42.90
-51.73
-60.12
-66.81
-70.47
-70.19
-65.67
-57.34
-46.15
-33.36
-20.22
-7.83
2.97
11.59
17.79
21.67
23.65
24.38
24.55
24.76
25.42
26.66
28.44
30.51
32.60
34.43
35.84
36.81
37.41
37.71
37.61
36.91
35.33
32.66
28.93
24.41
19.53
14.70
10.18
5.90
1.56
-3.31
-9.17
-16.21
-24.25
-32.61
-40.21
-45.79
-48.17
-46.63
-41.11
-32.25
-21.19
-9.30
2.19
12.37
20.70
26.93
31.03
33.12
33.49
32.66
31.32
30.16
29.76
30.37
31.92
34.06
36.29
38.13
39.29
39.68
39.40
38.65
37.59
36.17
34.17
31.25
27.19
22.02
16.05
9.78
3.66
-2.10
-7.56
-13.04
-18.98
-25.80
-33.79
-42.96
-52.86
-62.50
-70.46
-75.17
-75.39
-70.63
-61.32
-48.76
-34.61
-20.51
-7.65
3.38
12.45
19.73
25.40
29.70
32.84
35.16
37.04
38.94
41.21
43.99
47.18
50.47
53.49
55.92
57.61
58.57
58.96
58.94
58.62
58.01
56.99
55.38
52.94
49.55
45.28
40.47
35.75
31.85
29.39
28.66
29.43
31.01
32.45
32.91
31.93
29.63
26.77
24.49
24.11
26.77
33.38
44.35
59.68
78.85
100.95
124.81
149.29
173.45
196.58
218.00
236.80
251.66
261.16
264.28
260.93
252.18
240.01
226.61
213.61
201.66
190.39
178.87
166.06
151.25
134.24
115.25
94.87
73.79
52.71
32.28
12.92
-5.07
-21.58
-36.59
-50.20
-62.64
-74.19
-85.08
-95.43
-105.21
-114.32
-122.71
-130.50
-138.00
-145.60
-153.71
-162.49
-171.82
-181.13
-189.42
-195.39
-197.69
-195.41
-188.35
-177.20
-163.38
-148.61
-134.48
-122.02
-111.66
-103.34
-96.79
-91.74
-87.97
-85.29
-83.39
-81.89
-80.43
-78.76
-76.91
-75.08
-73.54
-72.54
-72.20
-72.47
-73.27
-74.47
-75.95
-77.62
-79.38
-81.03
-82.32
-82.89
-82.32
-80.25
-76.49
-71.13
-64.56
-57.46
-50.52
-44.32
-39.15
-34.95
-31.51
-28.54
-25.89
-23.67
-22.24
-22.19
-24.15
-28.50
-35.25
-43.91
-53.59
-63.22
-71.84
-78.75
-83.71
-86.84
-88.59
-89.52
-90.22
-91.06
-92.16
-93.37
-94.34
-94.69
-94.19
-92.77
-90.47
-87.21
-82.55
-75.61
-65.39
-51.16
-32.98
-11.99
9.81
30.24
47.63
61.46
72.28
81.31
89.71
98.05
106.24
113.89
120.85
127.44
134.23
141.64
149.43
156.75
162.56
166.16
167.50
167.05
165.34
162.61
158.69
153.37
146.83
139.93
134.04
130.56
130.42
133.78
139.97
147.68
155.23
160.80
162.80
160.20
152.83
141.45
127.45
112.40
97.58
83.61
70.57
58.16
45.99
33.76
21.29
8.52
-4.54
-17.80
-31.06
-43.92
-55.81
-66.06
-74.06
-79.44
-82.23
-82.88
-82.18
-80.95
-79.77
-78.82
-77.92
-76.81
-75.47
-74.26
-73.80
-74.56
-76.49
-78.82
-80.34
-79.78
-76.35
-69.94
-61.07
-50.63
-39.51
-28.46
-17.98
-8.48
-0.36
6.04
10.53
13.15
14.22
14.26
13.83
13.41
13.31
13.65
14.37
15.32
16.30
17.13
17.71
18.04
18.08
17.75
16.84
15.11
12.43
8.90
4.84
0.66
-3.34
-7.14
-10.94
-15.09
-19.88
-25.44
-31.71
-38.50
-45.37
-51.76
-56.88
-59.97
-60.42
-58.00
-52.99
-46.05
-38.02
-29.73
-21.82
-14.76
-8.90
-4.46
-1.50
0.18
1.03
1.64
2.55
4.06
6.12
8.41
10.55
12.29
13.55
14.39
14.85
14.85
14.27
13.03
11.16
8.80
6.11
3.19
0.04
-3.31
-6.79
-10.29
-13.73
-17.24
-21.10
-25.60
-30.85
-36.58
-42.10
-46.55
-49.12
-49.27
-46.88
-42.26
-35.97
-28.77
-21.47
-14.77
-9.19
-4.95
-2.00
-0.12
0.99
1.60
1.87
1.91
1.77
1.47
1.13
0.87
0.79
0.94
1.28
1.64
1.81
1.52
0.57
-1.16
-3.71
-7.12
-11.45
-16.78
-23.14
-30.42
-38.30
-46.33
-54.02
-60.90
-66.57
-70.63
-72.62
-72.03
-68.48
-61.94
-52.90
-42.30
-31.35
-21.12
-12.25
-4.98
0.80
5.33
8.74
11.10
12.42
12.82
12.54
11.89
11.17
10.67
10.49
10.63
10.93
11.12
10.93
10.14
8.68
6.59
3.96
0.84
-2.83
-7.20
-12.43
-18.66
-25.90
-34.04
-42.76
-51.42
-59.13
-64.78
-67.30
-66.02
-60.90
-52.56
-42.07
-30.65
-19.41
-9.22
-0.67
5.79
9.99
11.99
12.15
11.05
9.28
7.30
5.27
3.15
0.79
-1.95
-5.12
-8.74
-12.76
-17.01
-21.17
-24.80
-27.42
-28.66
-28.49
-27.14
-25.01
-22.59
-20.35
-18.74
-18.24
-19.42
-22.70
-28.11
-34.98
-41.90
-46.94
-48.24
-44.59
-35.92
-23.29
-8.59
6.21
19.52
30.51
39.04
45.33
49.75
52.53
53.87
54.00
53.29
52.17
51.09
50.35
50.09
50.26
50.67
51.08
51.32
51.20
50.57
49.22
46.90
43.38
38.57
32.61
25.92
19.01
12.33
6.06
0.00
-6.28
-13.36
-21.64
-31.16
-41.49
-51.68
-60.43
-66.26
-67.88
-64.58
-56.47
-44.51
-30.24
-15.39
-1.41
10.78
20.73
28.42
33.97
37.59
39.54
40.18
39.98
39.41
38.89
38.65
38.73
39.07
39.53
40.05
40.55
40.95
41.03
40.56
39.18
36.62
32.78
27.77
21.89
15.64
9.47
3.67
-1.86
-7.53
-13.96
-21.72
-31.01
-41.42
-51.96
-61.16
-67.47
-69.63
-67.01
-59.71
-48.57
-34.91
-20.25
-6.07
6.54
16.86
24.62
29.91
33.06
34.54
34.78
34.21
33.20
32.03
30.94
30.11
29.69
29.70
30.13
30.80
31.47
31.76
31.33
29.87
27.23
23.47
18.76
13.29
7.24
0.66
-6.44
-14.05
-22.10
-30.45
-38.85
-46.92
-54.09
-59.49
-62.08
-60.93
-55.50
-46.01
-33.45
-19.34
-5.33
7.24
17.52
25.08
29.82
31.80
31.30
28.84
25.20
21.30
17.87
15.33
13.67
12.58
11.71
10.75
9.56
7.98
5.83
2.84
-1.23
-6.47
-12.69
-19.43
-26.22
-32.73
-38.99
-45.40
-52.51
-60.72
-69.89
-79.20
-87.27
-92.39
-93.05
-88.32
-78.19
-63.51
-45.75
-26.76
-8.30
8.17
21.64
31.59
38.00
41.21
41.91
40.98
39.29
37.60
36.39
35.79
35.72
35.95
36.24
36.37
36.15
35.41
33.97
31.68
28.44
24.26
19.30
13.77
7.88
1.72
-4.71
-11.59
-19.13
-27.61
-37.17
-47.80
-59.16
-70.40
-80.23
-87.11
-89.56
-86.66
-78.35
-65.48
-49.60
-32.52
-15.88
-0.94
11.59
21.39
28.50
33.25
36.13
37.76
38.77
39.68
40.81
42.21
43.78
45.24
46.38
47.08
47.37
47.34
47.05
46.32
44.79
42.00
37.61
31.57
24.26
16.33
8.47
1.09
-5.85
-12.86
-20.70
-30.06
-41.18
-53.61
-66.10
-76.81
-83.77
-85.44
-81.14
-71.30
-57.27
-40.91
-24.04
-8.08
6.16
18.35
28.48
36.63
42.92
47.48
50.57
52.58
54.04
55.45
57.14
59.20
61.42
63.49
65.10
66.09
66.45
66.27
65.58
64.23
61.92
58.30
53.10
46.24
37.98
28.88
19.64
10.99
3.39
-3.10
-8.94
-14.92
-21.97
-30.75
-41.42
-53.48
-65.82
-76.96
-85.34
-89.65
-89.04
-83.27
-72.79
-58.63
-42.23
-25.22
-9.11
4.98
16.41
25.12
31.40
35.67
38.41
40.02
40.94
41.66
42.61
44.09
46.15
48.53
50.70
52.24
52.87
52.70
52.03
51.17
50.21
48.87
46.61
42.95
37.66
30.99
23.57
16.21
9.49
3.54
-2.03
-7.93
-14.97
-23.63
-33.94
-45.30
-56.55
-66.19
-72.62
-74.60
-71.48
-63.39
-51.20
-36.27
-20.15
-4.29
10.10
22.10
31.15
37.03
39.87
40.27
39.08
37.33
35.82
35.04
35.00
35.35
35.62
35.44
34.66
33.42
31.99
30.72
29.79
29.21
28.78
28.17
26.96
24.81
21.60
17.48
12.77
7.84
2.82
-2.44
-8.41
-15.62
-24.36
-34.45
-45.07
-54.85
-62.16
-65.49
-63.91
-57.37
-46.73
-33.48
-19.27
-5.47
7.06
17.96
27.08
34.27
39.33
42.18
43.02
42.47
41.40
40.70
40.93
42.17
44.10
46.16
47.85
48.85
49.09
48.61
47.46
45.62
42.99
39.51
35.16
30.06
24.37
18.16
11.45
4.24
-3.33
-10.98
-18.34
-25.22
-31.77
-38.54
-46.24
-55.43
-66.23
-78.17
-90.29
-101.33
-109.92
-114.84
-115.19
-110.61
-101.54
-89.15
-75.24
-61.75
-50.24
-41.54
-35.73
-32.37
-30.92
-31.09
-32.87
-36.32
-41.31
-47.35
-53.74
-59.80
-65.20
-70.08
-74.94
-80.44
-87.19
-95.58
-105.71
-117.20
-129.11
-139.67
-146.49
-147.01
-139.27
-122.63
-98.20
-68.63
-37.38
-7.72
18.19
39.61
57.01
71.44
83.73
94.05
101.96
106.82
108.21
106.31
101.80
95.68
89.10
83.32
79.84
80.41
86.64
99.47
118.61
142.18
167.05
189.55
206.47
215.90
217.66
213.13
204.72
195.17
186.80
181.10
178.54
178.72
180.67
183.16
184.98
185.12
182.92
178.09
170.77
161.39
150.55
138.83
126.62
114.10
101.36
88.55
76.02
64.27
53.80
44.91
37.58
31.60
26.69
22.75
19.87
18.19
17.71
18.19
19.15
19.95
20.03
18.96
16.56
12.96
8.66
4.52
1.56
0.67
2.25
6.02
11.12
16.39
20.85
23.95
25.56
25.84
24.93
22.82
19.43
14.74
8.96
2.69
-3.27
-8.17
-11.62
-13.76
-15.25
-16.93
-19.54
-23.46
-28.56
-34.44
-40.58
-46.51
-51.92
-56.57
-60.22
-62.65
-63.74
-63.50
-62.20
-60.25
-58.09
-56.13
-54.75
-54.20
-54.66
-56.12
-58.41
-61.18
-64.03
-66.56
-68.43
-69.43
-69.39
-68.23
-66.05
-63.00
-59.37
-55.41
-51.36
-47.33
-43.45
-39.80
-36.45
-33.46
-30.78
-28.31
-25.88
-23.31
-20.46
-17.26
-13.72
-9.99
-6.27
-2.74
0.50
3.50
6.32
8.91
11.01
12.23
12.16
10.62
7.75
3.91
-0.45
-4.93
-9.21
-13.05
-16.32
-18.99
-21.25
-23.41
-25.78
-28.44
-31.11
-33.26
-34.35
-34.08
-32.55
-30.22
-27.71
-25.66
-24.53
-24.58
-25.86
-28.18
-31.20
-34.40
-37.22
-39.12
-39.68
-38.71
-36.34
-32.91
-29.02
-25.39
-22.61
-21.04
-20.70
-21.22
-22.08
-22.79
-23.15
-23.21
-23.41
-24.21
-26.02
-28.92
-32.66
-36.77
-40.77
-44.22
-46.89
-48.65
-49.48
-49.44
-48.74
-47.65
-46.47
-45.35
-44.23
-42.78
-40.65
-37.55
-33.54
-28.95
-24.26
-19.86
-16.04
-12.90
-10.51
-9.03
-8.62
-9.42
-11.41
-14.30
-17.63
-20.85
-23.48
-25.26
-26.18
-26.44
-26.33
-25.99
-25.40
-24.41
-22.84
-20.67
-18.08
-15.47
-13.25
-11.72
-10.98
-10.88
-11.16
-11.53
-11.75
-11.70
-11.44
-11.10
-10.91
-10.99
-11.41
-11.96
-12.36
-12.20
-11.18
-9.11
-6.02
-2.04
2.60
7.64
12.79
17.74
22.12
25.58
27.85
28.76
28.33
26.79
24.47
21.80
19.19
16.97
15.38
14.58
14.63
15.43
16.80
18.43
19.94
20.96
21.18
20.45
18.77
16.31
13.31
9.98
6.42
2.66
-1.28
-5.38
-9.46
-13.29
-16.62
-19.35
-21.52
-23.34
-25.09
-27.04
-29.31
-31.75
-34.06
-35.83
-36.69
-36.41
-35.03
-32.72
-29.81
-26.68
-23.64
-20.95
-18.85
-17.49
-16.94
-17.12
-17.88
-19.03
-20.42
-21.98
-23.72
-25.57
-27.37
-29.33
-31.41
-33.21
-34.11
-33.69
-31.87
-28.89
-25.14
-21.11
-17.77
-15.85
-15.55
-16.49
-18.21
-20.34
-22.65
-24.92
-26.89
-29.45
-33.12
-37.55
-41.82
-45.34
-48.12
-50.62
-53.28
-56.20
-62.38
-73.18
-86.91
-99.71
-108.15
-110.92
-108.77
-103.56
-97.17
-97.83
-110.20
-132.34
-157.24
-178.41
-193.14
-202.18
-207.83
-211.81
-225.86
-256.21
-299.06
-343.31
-379.25
-403.45
-417.94
-427.14
-434.82
-458.32
-508.17
-581.60
-665.24
-745.39
-814.10
-868.65
-908.99
-852.42
-667.81
-392.73
-108.65
121.43
279.78
379.53
443.03
482.01
512.87
527.93
519.65
491.12
455.77
427.56
414.44
416.59
430.08
450.94
463.66
458.44
436.34
406.55
377.96
354.28
334.52
315.97
297.12
269.91
230.64
182.70
134.51
93.62
63.12
41.91
26.91
15.48
2.21
-15.33
-35.41
-53.62
-66.17
-71.76
-71.46
-67.28
-61.00
-55.31
-51.56
-49.37
-47.21
-43.66
-38.27
-31.55
-24.43
-17.71
-11.76
-6.20
0.09
8.59
20.51
36.38
55.82
77.74
100.73
123.57
145.60
166.77
187.60
208.88
231.62
256.88
285.33
316.67
349.03
378.81
401.44
412.69
410.38
395.10
370.07
339.81
308.47
278.72
251.51
226.67
203.81
182.79
163.76
146.74
131.41
117.06
102.97
88.76
74.58
61.00
48.78
38.41
29.92
22.86
16.47
10.00
3.10
-3.99
-10.55
-15.62
-18.51
-19.00
-17.48
-14.75
-11.67
-8.92
-6.90
-5.77
-5.62
-6.59
-8.88
-12.69
-18.06
-24.79
-32.41
-40.26
-47.61
-53.82
-58.51
-61.65
-63.49
-64.44
-64.91
-65.15
-65.27
-65.31
-65.28
-65.20
-65.08
-64.84
-64.34
-63.49
-62.28
-60.88
-59.56
-58.51
-57.78
-57.32
-57.00
-56.80
-56.91
-57.67
-59.38
-62.16
-65.70
-69.28
-71.81
-72.17
-69.47
-63.33
-54.05
-42.48
-29.83
-17.32
-5.98
3.53
10.86
15.93
18.86
19.90
19.39
17.79
15.56
13.16
10.95
9.11
7.69
6.49
5.22
3.42
0.68
-3.29
-8.53
-14.74
-21.45
-28.13
-34.41
-40.24
-45.71
-51.01
-56.09
-60.62
-64.12
-66.11
-66.35
-64.96
-62.37
-59.10
-55.74
-52.83
-50.93
-50.54
-51.94
-54.84
-58.22
-60.34
-59.15
-52.85
-40.62
-22.86
-1.24
21.89
44.06
63.38
78.77
90.07
97.64
102.12
104.08
104.04
102.53
100.16
97.61
95.57
94.45
94.32
94.85
95.53
95.90
95.68
94.79
93.29
91.11
88.06
83.85
78.25
71.21
62.93
53.79
44.27
34.83
25.86
17.65
10.40
4.24
-0.82
-4.93
-8.44
-11.89
-15.89
-20.96
-27.24
-34.22
-40.80
-45.47
-46.73
-43.60
-36.00
-24.75
-11.35
2.45
15.14
25.64
33.40
38.24
40.22
39.56
36.66
32.08
26.51
20.69
15.25
10.58
6.84
3.93
1.63
-0.35
-2.32
-4.53
-7.18
-10.34
-13.98
-17.96
-22.10
-26.21
-30.11
-33.68
-36.81
-39.35
-41.25
-42.52
-43.33
-44.01
-44.95
-46.46
-48.61
-51.17
-53.59
-55.18
-55.27
-53.41
-49.51
-43.78
-36.60
-28.40
-19.48
-10.08
-0.44
9.05
17.88
25.47
31.33
35.31
37.64
38.81
39.38
39.74
40.02
40.03
39.45
37.97
35.39
31.70
27.10
21.90
16.47
11.13
6.10
1.41
-3.01
-7.29
-11.54
-15.76
-19.85
-23.67
-27.05
-29.92
-32.31
-34.41
-36.57
-39.16
-42.40
-46.08
-49.61
-52.06
-52.54
-50.56
-46.26
-40.33
-33.74
-27.40
-21.82
-17.18
-13.40
-10.35
-7.97
-6.28
-5.33
-5.06
-5.27
-5.62
-5.72
-5.26
-4.09
-2.29
-0.08
2.26
4.50
6.53
8.35
9.98
11.40
12.55
13.27
13.44
12.95
11.85
10.25
8.33
6.30
4.32
2.52
0.95
-0.45
-1.82
-3.47
-5.74
-8.94
-13.06
-17.74
-22.18
-25.40
-26.54
-25.21
-21.66
-16.64
-11.14
-5.98
-1.71
1.47
3.62
4.83
5.17
4.69
3.45
1.59
-0.62
-2.85
-4.69
-5.81
-5.95
-5.03
-3.19
-0.76
1.83
4.15
5.90
6.98
7.45
7.49
7.27
6.87
6.32
5.55
4.49
3.14
1.55
-0.17
-1.85
-3.29
-4.40
-5.18
-5.84
-6.62
-7.82
-9.65
-12.21
-15.49
-19.23
-23.01
-26.09
-27.71
-27.16
-24.16
-19.02
-12.55
-5.82
0.23
5.03
8.48
10.67
11.81
11.98
11.24
9.73
7.81
5.97
4.75
4.49
5.25
6.78
8.67
10.48
11.96
13.05
13.90
14.66
15.40
16.08
16.49
16.48
15.98
15.06
13.89
12.67
11.52
10.53
9.73
9.14
8.76
8.51
8.22
7.58
6.22
3.82
0.21
-4.53
-9.99
-15.48
-20.11
-22.99
-23.47
-21.36
-17.00
-11.21
-5.01
0.66
5.17
8.31
10.15
10.90
10.71
9.74
8.16
6.24
4.39
2.98
2.25
2.18
2.52
2.96
3.26
3.32
3.15
2.85
2.46
1.99
1.43
0.81
0.15
-0.51
-1.24
-2.14
-3.40
-5.11
-7.21
-9.45
-11.50
-13.01
-13.79
-13.91
-13.63
-13.38
-13.56
-14.46
-16.12
-18.27
-20.34
-21.58
-21.19
-18.62
-13.78
-7.09
0.55
8.00
14.23
18.55
20.73
20.95
19.62
17.18
14.04
10.60
7.21
4.31
2.26
1.28
1.38
2.39
3.98
5.80
7.59
9.15
10.40
11.31
11.87
12.05
11.76
10.85
9.17
6.60
3.20
-0.77
-4.88
-8.69
-11.88
-14.35
-16.24
-17.87
-19.58
-21.63
-24.15
-27.10
-30.19
-32.93
-34.68
-34.83
-32.92
-28.86
-22.98
-16.03
-8.98
-2.78
1.83
4.50
5.27
4.45
2.51
-0.11
-3.03
-5.89
-8.35
-10.10
-10.89
-10.70
-9.75
-8.45
-7.25
-6.52
-6.40
-6.82
-7.60
-8.59
-9.74
-11.07
-12.62
-14.37
-16.21
-18.01
-19.64
-21.02
-22.12
-22.95
-23.51
-23.79
-23.73
-23.30
-22.44
-21.14
-19.40
-17.33
-15.07
-12.71
-10.13
-6.89
-2.23
4.66
14.31
26.64
40.87
55.71
69.67
81.50
90.30
95.51
96.78
93.93
87.09
76.77
64.05
50.36
37.15
25.56
16.14
8.88
3.37
-0.94
-4.58
-7.94
-11.29
-14.71
-18.12
-21.23
-23.70
-25.28
-25.90
-25.76
-25.28
-24.89
-24.86
-25.19
-25.69
-26.07
-26.15
-25.89
-25.41
-24.94
-24.70
-24.93
-25.82
-27.52
-29.99
-32.92
-35.66
-37.38
-37.34
-35.27
-31.52
-27.06
-23.10
-20.65
-20.10
-21.13
-22.73
-23.54
-22.20
-17.78
-9.96
0.94
14.01
28.05
41.78
54.15
64.44
72.30
77.70
80.82
81.96
81.39
79.35
75.88
70.91
64.34
56.12
46.51
36.09
25.68
16.18
8.24
2.11
-2.35
-5.65
-8.36
-11.09
-14.25
-18.12
-22.75
-27.97
-33.40
-38.39
-42.14
-43.84
-42.89
-39.04
-32.53
-24.07
-14.60
-5.11
3.61
11.09
17.22
22.01
25.45
27.38
27.41
25.22
20.65
13.92
5.63
-3.41
-12.26
-20.16
-26.50
-30.92
-33.23
-33.39
-31.50
-27.89
-23.20
-18.33
-14.23
-11.62
-10.69
-10.99
-11.67
-11.84
-10.97
-9.08
-6.58
-4.04
-1.90
-0.32
0.74
1.34
1.44
0.96
-0.17
-1.91
-4.11
-6.60
-9.24
-11.97
-14.68
-17.18
-19.15
-20.26
-20.32
-19.37
-17.71
-15.76
-13.95
-12.52
-11.55
-11.00
-10.75
-10.78
-11.07
-11.64
-12.49
-13.56
-14.63
-15.44
-15.71
-15.19
-13.83
-11.69
-9.02
-6.13
-3.32
-0.73
1.60
3.73
5.71
7.49
8.89
9.77
10.10
10.12
10.24
10.89
12.34
14.51
17.00
19.27
20.78
21.16
20.24
18.03
14.77
10.90
7.08
4.04
2.40
2.43
3.90
6.11
8.17
9.26
8.94
7.16
4.36
1.16
-1.83
-4.20
-5.88
-7.06
-8.08
-9.16
-10.31
-11.33
-12.00
-12.28
-12.32
-12.46
-12.98
-13.95
-15.15
-16.26
-17.01
-17.32
-17.38
-17.52
-18.01
-18.98
-20.34
-21.87
-23.34
-24.64
-25.72
-26.62
-27.37
-27.98
-28.54
-29.23
-30.36
-32.24
-34.88
-37.86
-40.30
-41.08
-39.18
-34.10
-25.96
-15.46
-3.63
8.47
19.90
30.00
38.39
44.94
49.67
52.71
54.23
54.38
53.32
51.32
48.74
46.04
43.60
41.64
40.15
38.94
37.77
36.44
34.87
33.04
30.90
28.39
25.47
22.16
18.57
14.80
10.97
7.05
3.03
-1.11
-5.23
-9.15
-12.58
-15.37
-17.50
-19.20
-20.86
-22.88
-25.62
-29.21
-33.47
-37.90
-41.76
-44.21
-44.47
-42.12
-37.18
-30.15
-21.86
-13.25
-5.07
2.12
8.08
12.67
15.82
17.52
17.87
17.15
15.86
14.53
13.59
13.24
13.40
13.85
14.32
14.64
14.76
14.72
14.55
14.24
13.72
12.86
11.54
9.66
7.24
4.40
1.38
-1.55
-4.20
-6.55
-8.73
-10.89
-13.12
-15.35
-17.37
-18.97
-20.11
-20.98
-21.94
-23.46
-25.90
-29.42
-33.77
-38.30
-42.02
-43.79
-42.62
-38.02
-30.18
-19.95
-8.56
2.70
12.89
21.44
28.20
33.19
36.57
38.44
39.00
38.55
37.47
36.25
35.26
34.75
34.70
34.90
35.05
34.91
34.41
33.61
32.65
31.55
30.19
28.27
25.54
21.93
17.65
13.08
8.65
4.63
1.07
-2.12
-5.04
-7.78
-10.25
-12.38
-14.19
-15.81
-17.52
-19.66
-22.45
-25.97
-30.05
-34.32
-38.25
-41.15
-42.39
-41.40
-37.89
-31.95
-24.11
-15.19
-6.14
2.22
9.31
14.86
18.85
21.38
22.63
22.75
21.98
20.62
19.07
17.73
16.84
16.56
16.80
17.35
18.00
18.54
18.88
18.95
18.73
18.17
17.23
15.89
14.15
12.12
9.97
7.93
6.18
4.85
3.89
3.14
2.37
1.41
0.19
-1.22
-2.74
-4.33
-6.08
-8.14
-10.61
-13.40
-16.15
-18.31
-19.26
-18.55
-16.01
-11.85
-6.54
-0.75
4.84
9.69
13.41
15.77
16.66
16.11
14.27
11.53
8.44
5.62
3.57
2.57
2.61
3.45
4.70
5.99
6.94
7.29
6.84
5.57
3.67
1.44
-0.77
-2.76
-4.49
-6.12
-7.83
-9.67
-11.58
-13.40
-15.01
-16.38
-17.55
-18.61
-19.67
-20.82
-22.19
-23.93
-26.12
-28.61
-31.02
-32.69
-32.88
-31.05
-26.95
-20.74
-12.99
-4.46
4.01
11.65
17.85
22.23
24.70
25.43
24.80
23.33
21.48
19.60
17.88
16.41
15.25
14.44
13.97
13.75
13.59
13.31
12.76
11.90
10.78
9.46
7.98
6.35
4.56
2.64
0.62
-1.50
-3.74
-6.09
-8.55
-11.03
-13.38
-15.46
-17.23
-18.79
-20.38
-22.32
-24.87
-28.12
-31.90
-35.67
-38.66
-40.01
-39.04
-35.54
-29.81
-22.57
-14.75
-7.12
-0.20
5.81
10.88
15.01
18.15
20.23
21.22
21.22
20.51
19.39
18.21
17.22
16.55
16.20
16.12
16.21
16.34
16.41
16.27
15.77
14.77
13.20
11.12
8.77
6.42
4.29
2.44
0.76
-0.95
-2.86
-5.07
-7.54
-10.14
-12.72
-15.16
-17.43
-19.60
-21.83
-24.36
-27.39
-30.92
-34.67
-38.02
-40.16
-40.24
-37.76
-32.63
-25.33
-16.71
-7.77
0.53
7.52
12.87
16.52
18.64
19.53
19.50
18.90
18.05
17.28
16.82
16.86
17.40
18.36
19.56
20.73
21.69
22.28
22.50
22.40
22.00
21.28
20.13
18.40
16.04
13.12
9.90
6.68
3.69
1.01
-1.48
-3.98
-6.61
-9.38
-12.09
-14.46
-16.29
-17.61
-18.68
-19.93
-21.84
-24.70
-28.50
-32.91
-37.22
-40.54
-41.95
-40.71
-36.60
-29.94
-21.51
-12.32
-3.30
4.95
12.08
17.94
22.39
25.27
26.48
26.11
24.51
22.21
19.80
17.73
16.24
15.35
14.87
14.54
14.09
13.30
12.09
10.43
8.32
5.68
2.32
-1.93
-7.07
-12.80
-18.61
-23.97
-28.55
-32.39
-35.86
-39.41
-43.45
-48.12
-53.33
-58.78
-64.14
-69.17
-73.78
-78.13
-82.55
-87.51
-93.50
-100.97
-110.28
-121.43
-133.91
-146.53
-157.51
-164.91
-167.21
-163.74
-154.80
-141.34
-124.51
-105.32
-84.55
-62.97
-41.56
-21.47
-3.77
10.95
22.82
32.61
41.44
50.35
60.01
70.52
81.46
92.11
101.74
109.89
116.43
121.46
125.09
127.28
127.73
126.14
122.42
116.83
109.93
102.37
94.64
86.92
79.20
71.34
63.35
55.36
47.62
40.40
33.89
28.13
22.92
17.88
12.48
6.18
-1.50
-10.78
-21.51
-33.12
-44.50
-54.18
-60.50
-62.08
-58.22
-49.27
-36.53
-21.90
-7.30
5.79
16.53
24.62
30.05
32.94
33.49
32.11
29.50
26.51
23.99
22.55
22.31
23.06
24.35
25.74
26.93
27.85
28.57
29.20
29.75
30.05
29.84
28.83
26.92
24.24
21.15
18.05
15.22
12.71
10.30
7.66
4.50
0.72
-3.50
-7.84
-11.93
-15.57
-18.83
-22.12
-26.00
-31.08
-37.72
-45.77
-54.46
-62.42
-67.99
-69.63
-66.35
-58.03
-45.45
-30.01
-13.38
2.94
17.83
30.55
40.62
47.80
52.05
53.58
52.92
50.80
48.10
45.59
43.87
43.32
44.10
46.23
49.58
53.92
58.92
64.18
69.21
73.44
76.28
77.19
75.80
72.08
66.37
59.30
51.53
43.59
35.71
27.88
19.98
11.97
3.84
-4.45
-13.03
-22.30
-32.72
-44.68
-58.36
-73.59
-89.79
-105.81
-119.97
-129.99
-133.61
-129.15
-116.36
-96.82
-73.66
-50.68
-31.17
-17.07
-8.67
-5.03
-4.81
-6.71
-9.82
-13.32
-16.25
-17.49
-16.08
-11.61
-4.59
3.68
11.63
17.96
22.21
24.73
26.36
27.89
29.60
31.07
31.52
30.19
26.80
21.74
15.92
10.38
5.88
2.60
0.18
-2.17
-5.35
-10.13
-16.90
-25.54
-35.25
-44.51
-51.29
-53.51
-49.74
-39.84
-25.05
-7.78
9.25
23.79
34.59
41.50
45.03
45.86
44.56
41.51
37.12
31.97
26.72
21.94
17.90
14.49
11.37
8.26
5.10
2.09
-0.45
-2.36
-3.82
-5.33
-7.45
-10.56
-14.60
-19.15
-23.64
-27.69
-31.32
-35.03
-39.62
-45.96
-54.73
-66.08
-79.38
-92.98
-104.39
-110.81
-110.01
-101.20
-85.45
-65.37
-44.18
-24.62
-8.21
4.85
15.21
23.65
30.60
36.13
40.19
42.94
44.83
46.42
48.08
49.73
50.92
51.13
50.15
48.28
46.32
45.13
45.21
46.36
47.68
47.98
46.25
42.14
36.02
28.81
21.55
14.97
9.24
3.92
-1.80
-8.94
-18.34
-30.40
-44.68
-59.65
-72.83
-81.34
-82.81
-76.30
-62.73
-44.62
-25.16
-7.09
7.99
19.79
28.75
35.47
40.22
43.09
44.20
44.05
43.48
43.30
43.99
45.46
47.18
48.45
48.83
48.34
47.40
46.63
46.50
47.05
47.82
47.96
46.58
43.13
37.67
30.84
23.63
16.92
11.13
6.07
1.06
-4.79
-12.29
-21.97
-33.90
-47.43
-61.07
-72.55
-79.33
-79.36
-71.87
-57.79
-39.52
-20.12
-2.25
12.47
23.71
32.01
38.16
42.73
45.93
47.76
48.35
48.11
47.68
47.74
48.70
50.60
53.03
55.39
57.17
58.12
58.35
58.15
57.82
57.49
57.03
56.11
54.43
51.80
48.27
44.10
39.65
35.28
31.19
27.49
24.10
20.83
17.38
13.32
8.11
1.23
-7.62
-18.15
-29.19
-38.75
-44.43
-44.36
-37.85
-25.85
-10.61
5.10
18.99
29.87
37.68
43.01
46.52
48.59
49.32
48.82
47.36
45.53
43.89
42.81
42.32
42.14
41.87
41.22
40.12
38.65
37.05
35.49
34.00
32.53
30.93
29.08
26.89
24.32
21.28
17.67
13.36
8.30
2.60
-3.43
-9.36
-14.78
-19.48
-23.52
-27.30
-31.44
-36.71
-43.78
-52.88
-63.40
-73.74
-81.48
-84.14
-79.98
-68.92
-52.60
-33.87
-15.75
-0.42
11.21
19.39
24.94
28.64
30.96
32.13
32.39
32.18
31.99
32.23
33.05
34.26
35.54
36.54
37.08
37.17
36.89
36.42
35.80
35.06
34.09
32.78
30.96
28.58
25.64
22.24
18.51
14.58
10.58
6.58
2.67
-1.14
-4.80
-8.39
-11.97
-15.71
-19.86
-24.75
-30.73
-37.96
-46.16
-54.29
-60.63
-63.19
-60.47
-52.12
-39.32
-24.39
-9.95
1.99
10.65
16.33
19.95
22.39
24.04
24.91
24.91
24.19
23.14
22.36
22.22
22.78
23.74
24.64
25.12
25.00
24.41
23.55
22.65
21.79
20.93
19.92
18.63
17.00
14.98
12.53
9.56
6.06
2.09
-2.10
-6.21
-9.93
-13.15
-16.00
-18.79
-21.96
-25.90
-30.93
-37.13
-44.24
-51.49
-57.54
-60.72
-59.59
-53.50
-43.05
-29.99
-16.61
-4.93
3.95
9.98
13.79
16.18
17.63
18.28
18.14
17.35
16.28
15.45
15.28
15.91
17.20
18.76
20.20
21.19
21.55
21.23
20.29
18.87
17.14
15.25
13.30
11.29
9.14
6.72
3.89
0.58
-3.19
-7.27
-11.39
-15.30
-18.83
-21.97
-24.95
-28.08
-31.76
-36.34
-42.00
-48.67
-55.79
-62.23
-66.45
-66.87
-62.43
-53.15
-40.27
-25.91
-12.36
-1.27
6.77
12.11
15.56
17.85
19.29
19.96
19.88
19.30
18.62
18.24
18.33
18.78
19.32
19.73
19.92
19.97
19.95
19.85
19.60
19.06
18.14
16.84
15.19
13.24
11.03
8.56
5.84
2.86
-0.38
-3.85
-7.48
-11.11
-14.59
-17.81
-20.81
-23.75
-26.98
-30.90
-35.85
-41.98
-49.01
-56.12
-61.91
-64.72
-63.15
-56.63
-45.72
-32.11
-17.97
-5.31
4.65
11.66
16.13
18.74
20.05
20.41
20.07
19.31
18.53
18.07
18.13
18.66
19.44
20.24
20.90
21.35
21.60
21.62
21.37
20.77
19.75
18.30
16.47
14.35
12.06
9.75
7.52
5.37
3.17
0.74
-2.09
-5.34
-8.82
-12.21
-15.21
-17.71
-19.89
-22.18
-25.10
-29.04
-34.11
-40.04
-46.16
-51.53
-55.04
-55.66
-52.71
-46.11
-36.45
-24.93
-12.99
-1.95
7.31
14.38
19.23
22.03
23.03
22.56
21.10
19.29
17.76
16.95
16.99
17.65
18.50
19.15
19.40
19.30
19.06
18.87
18.80
18.81
18.71
18.24
17.22
15.57
13.35
10.73
7.93
5.15
2.48
-0.11
-2.71
-5.40
-8.21
-11.05
-13.82
-16.45
-19.04
-21.79
-24.97
-28.72
-32.98
-37.35
-41.24
-43.93
-44.75
-43.26
-39.34
-33.24
-25.53
-17.00
-8.47
-0.67
5.87
10.88
14.33
16.35
17.22
17.25
16.80
16.18
15.70
15.58
15.92
16.70
17.75
18.72
19.19
18.78
17.34
14.96
12.04
9.06
6.43
4.33
2.64
1.06
-0.73
-2.94
-5.60
-8.59
-11.72
-14.86
-17.94
-20.98
-24.11
-27.51
-31.37
-35.85
-40.99
-46.60
-52.21
-57.01
-59.92
-59.84
-56.01
-48.33
-37.55
-25.08
-12.61
-1.60
7.11
13.38
17.55
20.12
21.52
21.96
21.60
20.68
19.57
18.75
18.59
19.24
20.63
22.42
24.21
25.60
26.31
26.20
25.33
23.85
21.98
19.94
17.81
15.57
13.12
10.34
7.19
3.73
0.13
-3.44
-6.87
-10.24
-13.79
-17.92
-23.11
-29.84
-38.35
-48.50
-59.56
-70.14
-78.30
-82.02
-79.80
-71.31
-57.62
-41.00
-24.22
-9.70
1.20
8.26
12.18
13.95
14.38
13.94
12.87
11.41
9.94
8.93
8.80
9.69
11.42
13.59
15.68
17.27
18.17
18.45
18.39
18.35
18.60
19.14
19.71
19.87
19.19
17.35
14.33
10.34
5.73
0.92
-3.71
-7.89
-11.49
-14.55
-17.34
-20.26
-23.80
-28.37
-33.99
-40.17
-45.81
-49.34
-49.16
-44.27
-34.67
-21.57
-7.05
6.58
17.52
24.90
28.84
30.04
29.38
27.50
24.81
21.58
18.14
14.99
12.65
11.53
11.72
12.98
14.75
16.34
17.13
16.78
15.33
13.21
11.00
9.21
8.03
7.24
6.28
4.52
1.53
-2.77
-7.95
-13.36
-18.35
-22.57
-26.03
-29.12
-32.39
-36.38
-41.53
-48.18
-56.43
-65.97
-75.77
-84.01
-88.53
-87.50
-80.29
-67.93
-52.86
-38.01
-25.75
-17.11
-11.77
-8.62
-6.53
-4.90
-3.69
-3.03
-2.84
-2.67
-1.92
-0.13
2.69
6.05
9.21
11.47
12.50
12.41
11.72
11.04
10.80
11.05
11.43
11.32
10.18
7.77
4.33
0.48
-3.08
-5.87
-7.76
-9.08
-10.37
-12.18
-15.02
-19.27
-25.16
-32.52
-40.63
-47.99
-52.63
-52.64
-47.02
-36.14
-21.77
-6.39
7.65
18.87
26.93
32.29
35.67
37.62
38.37
38.01
36.76
35.11
33.68
32.96
33.15
33.99
34.99
35.63
35.58
34.89
33.90
32.99
32.41
32.04
31.39
29.85
26.94
22.56
17.07
11.11
5.41
0.45
-3.71
-7.44
-11.38
-16.33
-22.89
-31.28
-41.05
-50.99
-59.21
-63.63
-62.64
-55.75
-43.93
-29.25
-14.20
-0.83
9.84
17.76
23.46
27.47
29.97
30.87
30.12
28.04
25.35
22.95
21.56
21.42
22.23
23.38
24.21
24.36
23.87
23.14
22.65
22.67
23.04
23.19
22.35
19.89
15.62
9.94
3.66
-2.27
-7.21
-11.05
-14.26
-17.65
-22.13
-28.43
-36.85
-47.05
-57.93
-67.61
-73.82
-74.51
-68.62
-56.59
-40.31
-22.52
-5.84
8.09
18.87
27.03
33.38
38.39
42.06
44.14
44.62
43.94
42.91
42.36
42.79
44.11
45.80
47.17
47.70
47.19
45.81
43.96
41.98
40.13
38.39
36.58
34.37
31.44
27.59
22.83
17.41
11.71
6.10
0.83
-4.11
-8.92
-13.95
-19.60
-26.25
-34.26
-43.81
-54.63
-65.71
-75.22
-80.86
-80.62
-73.58
-60.48
-43.57
-25.79
-9.75
3.01
12.33
18.87
23.54
26.89
29.08
30.07
29.97
29.27
28.68
28.86
30.12
32.34
34.98
37.37
38.90
39.25
38.45
36.80
34.78
32.77
31.01
29.51
27.99
26.04
23.22
19.29
14.23
8.38
2.24
-3.64
-8.94
-13.63
-17.96
-22.41
-27.47
-33.66
-41.37
-50.92
-62.12
-74.03
-84.73
-91.60
-92.15
-85.09
-71.04
-52.50
-32.95
-15.53
-2.01
7.49
13.94
18.50
21.87
24.14
25.17
25.12
24.56
24.26
24.78
26.17
28.03
29.78
30.99
31.62
31.90
32.09
32.26
32.18
31.50
29.91
27.32
23.99
20.31
16.61
13.00
9.30
5.16
0.25
-5.56
-12.09
-18.92
-25.55
-31.59
-36.91
-41.73
-46.55
-52.08
-59.09
-68.23
-79.68
-92.70
-105.44
-115.24
-119.32
-115.85
-104.65
-87.36
-66.78
-45.85
-26.69
-10.25
3.51
15.05
24.80
32.96
39.62
45.00
49.48
53.54
57.51
61.40
64.97
67.77
69.39
69.68
68.86
67.46
66.14
65.39
65.24
65.24
64.66
62.79
59.36
54.63
49.30
44.16
39.77
36.24
33.25
30.22
26.61
22.16
16.95
11.37
5.91
0.97
-3.28
-7.00
-10.70
-15.06
-20.84
-28.51
-37.95
-48.26
-57.69
-64.10
-65.59
-61.16
-51.19
-37.31
-21.91
-7.30
4.96
14.30
20.99
25.67
28.94
31.11
32.28
32.56
32.24
31.80
31.76
32.50
34.10
36.25
38.49
40.31
41.45
41.91
41.95
41.89
41.89
41.89
41.54
40.39
38.15
34.84
30.85
26.82
23.31
20.56
18.37
16.20
13.39
9.61
4.90
-0.25
-5.17
-9.29
-12.42
-14.79
-16.96
-19.64
-23.47
-28.87
-35.90
-44.15
-52.63
-59.89
-64.21
-64.11
-58.84
-48.74
-35.24
-20.39
-6.31
5.49
14.33
20.32
23.97
25.86
26.47
26.16
25.34
24.45
24.00
24.28
25.28
26.70
28.01
28.78
28.83
28.37
27.81
27.56
27.78
28.29
28.65
28.34
27.04
24.73
21.73
18.53
15.55
12.96
10.68
8.39
5.79
2.72
-0.74
-4.32
-7.66
-10.55
-13.01
-15.32
-17.95
-21.41
-26.01
-31.79
-38.39
-45.07
-50.73
-54.15
-54.20
-50.29
-42.55
-31.93
-19.90
-8.08
2.25
10.38
16.14
19.76
21.64
22.16
21.71
20.71
19.59
18.70
18.30
18.44
19.07
20.06
21.25
22.50
23.60
24.36
24.62
24.29
23.40
22.02
20.22
18.04
15.51
12.72
9.78
6.82
3.89
0.98
-2.02
-5.19
-8.57
-12.07
-15.55
-18.91
-22.20
-25.63
-29.52
-34.15
-39.63
-45.70
-51.70
-56.56
-59.01
-57.89
-52.63
-43.46
-31.55
-18.60
-6.42
3.68
11.18
16.30
19.65
21.80
23.06
23.48
23.06
21.94
20.55
19.44
19.02
19.41
20.42
21.65
22.74
23.55
24.06
24.35
24.41
24.06
23.10
21.37
18.94
16.09
13.17
10.49
8.14
6.01
3.85
1.37
-1.63
-5.23
-9.29
-13.53
-17.55
-20.99
-23.66
-25.76
-27.81
-30.53
-34.55
-40.10
-46.77
-53.52
-58.83
-61.12
-59.24
-52.86
-42.62
-29.99
-16.77
-4.62
5.38
12.87
18.03
21.30
23.11
23.76
23.52
22.73
21.81
21.20
21.17
21.69
22.52
23.31
23.77
23.81
23.53
23.14
22.81
22.64
22.54
22.31
21.67
20.39
18.36
15.65
12.51
9.28
6.30
3.72
1.52
-0.54
-2.72
-5.23
-8.11
-11.27
-14.52
-17.70
-20.75
-23.78
-27.05
-30.88
-35.55
-41.10
-47.21
-53.12
-57.78
-60.01
-58.87
-53.95
-45.51
-34.48
-22.22
-10.15
0.52
9.08
15.26
19.26
21.46
22.35
22.37
21.91
21.27
20.70
20.35
20.30
20.55
21.03
21.62
22.19
22.63
22.85
22.82
22.53
21.98
21.16
19.96
18.36
16.37
14.09
11.72
9.37
7.02
4.49
1.54
-1.95
-5.83
-9.75
-13.29
-16.24
-18.67
-20.95
-23.53
-26.75
-30.77
-35.48
-40.63
-45.85
-50.59
-54.12
-55.56
-54.08
-49.23
-41.15
-30.69
-19.18
-8.05
1.55
8.95
14.05
17.09
18.52
18.84
18.52
17.99
17.56
17.47
17.75
18.34
19.08
19.82
20.48
20.97
21.28
21.34
21.05
20.36
19.24
17.77
16.06
14.23
12.31
10.26
8.02
5.52
2.81
-0.04
-2.94
-5.87
-8.81
-11.76
-14.65
-17.45
-20.18
-23.01
-26.24
-30.19
-34.99
-40.42
-45.86
-50.36
-52.95
-52.83
-49.61
-43.44
-34.93
-25.03
-14.83
-5.37
2.58
8.64
12.76
15.23
16.44
16.84
16.72
16.33
15.78
15.22
14.84
14.79
15.20
16.00
16.97
17.81
18.20
17.98
17.18
15.93
14.46
12.90
11.23
9.32
6.98
4.11
0.80
-2.73
-6.14
-9.16
-11.71
-13.89
-15.97
-18.26
-21.00
-24.33
-28.24
-32.56
-36.94
-40.76
-43.26
-43.61
-41.23
-36.00
-28.38
-19.31
-9.90
-1.17
6.20
11.91
15.93
18.31
19.20
18.78
17.39
15.52
13.74
12.54
12.14
12.52
13.41
14.45
15.33
15.84
15.92
15.57
14.85
13.82
12.52
10.90
8.88
6.33
3.17
-0.59
-4.76
-9.01
-12.97
-16.42
-19.37
-22.07
-24.95
-28.43
-32.79
-38.06
-43.89
-49.56
-53.98
-55.90
-54.26
-48.54
-39.11
-27.11
-14.24
-2.17
7.89
15.48
20.73
24.07
25.90
26.49
26.02
24.74
23.06
21.51
20.61
20.65
21.57
23.00
24.42
25.35
25.54
24.96
23.74
22.09
20.11
17.89
15.43
12.73
9.76
6.43
2.64
-1.66
-6.38
-11.24
-15.77
-19.58
-22.52
-24.84
-27.08
-29.96
-34.06
-39.72
-46.86
-54.91
-62.76
-68.77
-71.12
-68.27
-59.62
-45.93
-29.18
-12.03
3.07
14.64
22.37
26.95
29.39
30.59
31.03
30.89
30.34
29.61
29.07
29.03
29.60
30.63
31.75
32.58
32.81
32.35
31.24
29.62
27.64
25.39
22.98
20.48
18.01
15.62
13.26
10.76
7.85
4.32
0.13
-4.53
-9.31
-13.82
-17.83
-21.33
-24.59
-28.03
-32.19
-37.59
-44.58
-53.01
-62.03
-69.96
-74.62
-73.98
-67.00
-54.15
-37.40
-19.57
-3.37
9.51
18.64
24.59
28.32
30.58
31.74
31.98
31.52
30.85
30.55
30.96
32.02
33.27
34.13
34.25
33.69
32.88
32.30
32.24
32.55
32.74
32.18
30.40
27.38
23.49
19.41
15.76
12.87
10.60
8.49
5.96
2.62
-1.53
-6.15
-10.70
-14.73
-18.04
-20.76
-23.24
-26.08
-29.87
-35.18
-42.26
-50.82
-59.75
-67.13
-70.75
-68.73
-60.37
-46.59
-29.62
-12.33
2.76
14.24
21.97
26.65
29.28
30.63
31.10
30.96
30.52
30.23
30.56
31.74
33.58
35.54
36.99
37.50
37.01
35.86
34.60
33.70
33.27
33.05
32.50
31.07
28.49
24.85
20.63
16.46
12.88
10.10
7.94
5.94
3.58
0.56
-3.14
-7.17
-11.04
-14.34
-16.92
-19.01
-21.15
-24.03
-28.31
-34.36
-42.08
-50.66
-58.54
-63.77
-64.45
-59.49
-49.09
-34.81
-19.10
-4.40
7.56
16.19
21.80
25.17
27.00
27.71
27.52
26.69
25.62
24.79
24.57
25.07
26.09
27.26
28.23
28.79
28.90
28.66
28.20
27.62
26.93
26.06
24.88
23.29
21.27
18.90
16.31
13.65
11.00
8.34
5.60
2.70
-0.38
-3.57
-6.76
-9.81
-12.67
-15.43
-18.34
-21.78
-26.06
-31.27
-37.04
-42.46
-46.24
-47.16
-44.43
-38.07
-28.86
-18.12
-7.28
2.52
10.57
16.59
20.63
22.89
23.67
23.38
22.44
21.26
20.23
19.59
19.50
19.96
20.83
21.80
22.53
22.70
22.20
21.11
19.68
18.17
16.76
15.38
13.86
11.97
9.57
6.65
3.36
-0.11
-3.54
-6.83
-9.98
-13.08
-16.34
-19.95
-24.08
-28.81
-34.11
-39.70
-44.99
-49.09
-50.92
-49.50
-44.38
-35.82
-24.87
-13.06
-1.92
7.40
14.41
19.12
21.91
23.17
23.26
22.52
21.32
20.13
19.40
19.47
20.39
21.90
23.52
24.74
25.17
24.68
23.43
21.72
19.90
18.16
16.55
14.96
13.19
11.02
8.25
4.78
0.64
-3.94
-8.54
-12.68
-16.03
-18.63
-20.87
-23.42
-26.93
-31.76
-37.86
-44.71
-51.44
-56.91
-59.90
-59.37
-54.74
-46.11
-34.39
-21.11
-7.95
3.64
12.86
19.51
23.94
26.67
28.18
28.83
28.88
28.55
28.09
27.73
27.63
27.82
28.16
28.46
28.48
28.09
27.25
26.06
24.65
23.13
21.51
19.74
17.72
15.39
12.73
9.81
6.73
3.58
0.42
-2.71
-5.80
-8.81
-11.73
-14.53
-17.24
-20.02
-23.10
-26.87
-31.66
-37.69
-44.72
-52.00
-58.20
-61.71
-61.12
-55.77
-46.05
-33.37
-19.67
-6.85
3.84
11.95
17.71
21.64
24.20
25.70
26.27
26.07
25.41
24.68
24.29
24.50
25.27
26.35
27.33
27.89
27.90
27.47
26.82
26.08
25.23
23.99
22.07
19.29
15.78
11.87
8.00
4.47
1.36
-1.48
-4.30
-7.34
-10.76
-14.59
-18.75
-23.03
-27.15
-30.89
-34.13
-37.04
-40.03
-43.67
-48.50
-54.69
-61.91
-69.21
-75.30
-78.83
-78.89
-75.30
-68.63
-60.08
-51.11
-43.08
-37.04
-33.67
-33.26
-35.70
-40.45
-46.44
-52.32
-56.66
-58.36
-56.96
-52.66
-46.17
-38.38
-29.98
-21.34
-12.52
-3.43
6.04
15.96
26.34
37.18
48.44
60.00
71.57
82.79
93.38
103.33
112.97
122.84
133.34
144.38
155.24
164.76
171.83
175.98
177.55
177.62
177.51
178.14
179.63
181.32
182.11
180.94
177.14
170.44
160.93
148.84
134.58
118.78
102.28
86.04
70.92
57.40
45.50
34.84
24.92
15.34
5.93
-3.23
-11.94
-19.88
-26.68
-31.93
-35.34
-36.86
-36.78
-35.70
-34.43
-33.72
-34.16
-36.06
-39.47
-44.14
-49.61
-55.17
-60.05
