1520259944.00
64.000000
-0.00
-0.00
-0.00
-0.00
-0.00
-0.00
-0.00
-0.00
-0.00
-0.00
0.00
0.01
0.01
-0.00
-0.03
-0.05
-0.05
0.00
0.13
0.36
0.66
1.01
1.37
1.72
2.06
2.40
2.79
3.24
3.80
4.42
5.06
5.66
6.20
6.68
7.15
7.68
8.31
9.14
10.09
11.04
11.88
12.56
13.14
13.76
14.65
15.96
17.91
20.32
22.90
25.38
27.58
29.57
31.68
34.32
37.81
42.54
48.15
54.10
59.83
64.97
69.58
74.14
79.34
85.71
93.76
103.00
112.62
121.73
129.77
136.75
143.30
150.75
157.77
166.64
177.95
191.79
206.97
220.57
228.25
225.36
208.53
176.87
132.76
80.05
23.07
-34.94
-92.44
-149.16
-205.23
-260.37
-313.74
-363.87
-409.83
-450.91
-486.50
-515.74
-537.23
-549.22
-549.96
-538.37
-514.21
-478.67
-433.88
-382.45
-327.02
-269.84
-212.63
-156.66
-102.95
-52.37
-5.90
35.58
71.43
101.35
125.50
144.38
158.69
169.15
176.37
180.75
182.57
182.07
179.51
175.23
169.65
163.18
156.15
148.81
141.30
133.69
126.02
118.33
110.69
103.16
95.80
88.68
81.83
75.25
68.95
62.95
57.25
51.86
46.78
42.03
37.59
33.45
29.61
26.07
22.81
19.83
17.11
14.67
12.48
10.54
8.83
7.35
6.07
4.97
4.05
3.27
2.62
2.09
1.65
1.30
1.01
0.79
0.61
0.48
0.37
0.28
0.22
0.18
0.14
0.11
0.09
0.08
0.07
0.07
0.07
0.08
0.09
0.11
0.13
0.16
0.19
0.23
0.26
0.30
0.35
0.39
0.44
0.48
0.53
0.58
0.64
0.69
0.75
0.81
0.89
0.96
1.05
1.14
1.25
1.37
1.50
1.65
1.82
2.00
2.21
2.43
2.69
2.97
3.27
3.61
3.98
4.38
4.82
5.29
5.80
6.34
6.94
7.56
8.23
8.95
9.71
10.51
11.37
12.26
13.20
14.19
15.25
16.37
17.55
18.78
20.03
21.28
22.44
23.44
24.16
24.48
24.29
23.48
21.98
19.76
16.85
13.34
9.31
4.98
0.54
-3.79
-7.81
-11.34
-14.27
-16.48
-17.97
-18.73
-18.80
-18.32
-17.40
-16.17
-14.80
-13.38
-11.96
-10.57
-9.16
-7.68
-6.14
-4.57
-2.99
-1.44
0.04
1.49
2.96
4.57
6.44
8.52
10.76
13.06
15.34
17.52
19.64
21.80
24.22
27.18
30.52
34.07
37.60
40.82
43.59
45.92
48.08
50.57
53.98
58.11
62.67
67.17
70.98
73.67
75.17
75.84
76.43
77.82
79.83
81.98
83.35
82.77
79.15
71.72
60.01
43.19
25.14
7.10
-10.57
-28.20
-46.57
-66.73
-89.84
-116.66
-146.90
-178.42
-207.68
-229.62
-239.29
-233.92
-214.16
-184.06
-149.57
-116.36
-88.06
-66.27
-50.51
-39.41
-31.77
-26.79
-23.81
-21.88
-19.74
-16.13
-10.68
-3.71
3.74
10.22
14.39
15.42
13.11
7.96
0.87
-7.27
-15.72
-24.08
-32.31
-40.67
-49.55
-59.35
-70.48
-83.16
-97.41
-112.58
-127.16
-138.68
-144.20
-141.08
-127.90
-105.19
-75.27
-41.78
-8.46
21.69
47.02
67.19
82.64
94.09
102.00
106.57
107.88
106.26
102.46
97.60
92.84
88.93
86.05
83.75
81.37
78.39
74.75
70.77
66.90
63.39
60.05
56.30
51.36
44.58
35.74
25.12
13.44
1.58
-9.74
-20.23
-30.09
-39.91
-50.53
-62.74
-77.10
-93.51
-111.06
-127.77
-140.78
-146.96
-143.70
-129.88
-106.29
-75.53
-41.23
-7.03
24.19
50.66
71.59
86.77
96.32
100.60
100.24
96.31
90.18
83.32
76.96
71.81
67.90
64.79
61.80
58.44
54.59
50.58
46.90
43.91
41.45
38.84
35.02
29.01
20.33
9.20
-3.49
-16.53
-28.84
-39.83
-49.54
-58.71
-68.46
-80.04
-94.32
-111.41
-130.21
-148.26
-162.13
-168.14
-163.48
-147.09
-120.10
-85.50
-47.30
-9.40
25.09
54.27
77.29
93.94
104.41
109.17
109.06
105.24
99.15
92.24
85.59
79.76
74.75
70.28
65.98
61.69
57.58
53.90
50.83
48.15
45.18
40.91
34.39
25.06
13.12
-0.58
-14.78
-28.28
-40.38
-51.15
-61.45
-72.63
-86.19
-103.10
-123.28
-145.09
-165.39
-180.06
-185.05
-177.66
-157.41
-126.33
-88.29
-47.89
-9.20
24.94
53.10
74.94
90.70
100.83
105.90
106.64
104.02
99.27
93.66
88.25
83.60
79.73
76.21
72.52
68.39
63.98
59.82
56.40
53.81
51.49
48.34
43.11
34.93
23.76
10.36
-3.95
-17.84
-30.45
-41.65
-52.12
-63.05
-75.85
-91.64
-110.82
-132.50
-154.29
-172.46
-182.72
-181.39
-166.63
-139.19
-102.26
-60.54
-18.86
19.00
50.94
76.35
95.53
109.03
117.32
120.78
119.98
115.87
109.80
103.25
97.45
92.99
89.83
87.39
85.00
82.27
79.28
76.41
74.07
72.29
70.55
67.87
63.16
55.64
45.15
32.27
18.07
3.73
-9.91
-22.56
-34.61
-46.93
-60.69
-76.90
-96.06
-117.71
-140.17
-160.52
-175.12
-180.48
-174.24
-155.97
-127.39
-91.90
-53.61
-16.26
17.43
46.04
69.12
86.77
99.27
106.91
110.11
109.51
106.13
101.22
96.10
91.85
89.05
87.69
87.37
87.49
87.56
87.35
86.81
85.82
84.04
80.73
74.96
65.99
53.59
38.36
21.56
4.76
-10.71
-24.21
-35.94
-46.81
-58.04
-70.81
-85.82
-103.06
-121.58
-139.44
-153.78
-161.27
-158.90
-144.85
-119.21
-84.08
-43.09
-0.38
40.41
76.80
107.56
132.34
151.25
164.42
172.07
174.64
173.01
168.48
162.44
156.11
150.06
144.28
138.29
131.57
123.89
115.47
106.89
98.72
91.16
83.81
75.79
66.03
53.84
39.15
22.66
5.58
-10.88
-25.91
-39.43
-52.02
-64.74
-78.71
-94.78
-113.22
-133.31
-153.17
-169.85
-179.86
-180.04
-168.58
-145.75
-113.93
-76.99
-39.20
-4.17
25.77
49.57
67.15
78.81
85.08
86.60
84.25
79.20
72.77
66.17
60.18
55.05
50.56
46.30
41.90
37.28
32.63
28.20
24.02
19.81
14.93
8.64
0.42
-9.83
-21.63
-34.05
-45.97
-56.49
-65.28
-72.75
-80.10
-88.85
-100.29
-114.68
-130.83
-146.06
-156.80
-159.71
-152.66
-135.54
-110.19
-79.85
-48.14
-18.14
8.09
29.62
46.32
58.43
66.29
70.28
70.88
68.80
65.00
60.44
55.96
51.94
48.41
45.22
42.22
39.48
37.22
35.48
33.99
32.04
28.70
23.28
15.60
6.14
-4.18
-14.34
-23.68
-32.10
-40.13
-48.74
-59.09
-72.03
-87.69
-105.03
-121.70
-134.44
-139.88
-135.64
-121.11
-97.81
-68.84
-37.97
-8.50
17.37
38.76
55.78
68.90
78.54
84.89
88.03
88.19
85.95
82.17
77.77
73.39
69.24
65.12
60.75
56.02
51.16
46.66
42.95
40.11
37.65
34.64
30.10
23.35
14.33
3.64
-7.73
-18.73
-28.68
-37.48
-45.64
-54.07
-63.81
-75.67
-89.78
-105.37
-120.56
-132.60
-138.43
-135.61
-123.08
-101.72
-74.09
-43.72
-14.07
12.34
34.25
51.49
64.52
73.83
79.77
82.54
82.42
79.96
76.02
71.59
67.50
64.22
61.76
59.84
58.06
56.17
54.11
51.93
49.69
47.27
44.38
40.59
35.52
28.94
20.83
11.38
0.95
-10.00
-20.95
-31.49
-41.39
-50.67
-59.63
-68.81
-78.83
-90.24
-103.16
-117.03
-130.40
-141.01
-146.20
-143.65
-132.14
-112.08
-85.51
-55.55
-25.51
1.89
25.05
43.48
57.45
67.50
74.13
77.69
78.51
77.07
74.04
70.23
66.45
63.23
60.80
59.11
57.91
56.96
56.03
54.93
53.44
51.36
48.47
44.66
39.87
34.09
27.29
19.42
10.45
0.52
-10.06
-20.83
-31.30
-41.13
-50.29
-59.02
-67.85
-77.43
-88.46
-101.32
-115.81
-130.81
-144.14
-152.88
-154.05
-145.56
-127.03
-100.07
-67.88
-34.37
-3.02
23.83
45.25
61.38
72.85
80.29
84.16
84.83
82.80
78.83
73.91
68.96
64.70
61.48
59.30
57.98
57.25
56.83
56.40
55.59
53.99
51.32
47.48
42.56
36.75
30.17
22.85
14.68
5.56
-4.48
-15.16
-26.11
-36.88
-47.13
-56.74
-65.82
-74.88
-84.67
-96.12
-109.82
-125.57
-141.88
-155.98
-164.35
-163.75
-152.31
-130.22
-99.74
-64.49
-28.47
4.98
33.65
56.56
73.61
85.18
91.87
94.33
93.28
89.61
84.38
78.70
73.56
69.63
67.11
65.79
65.21
64.86
64.33
63.35
61.74
59.36
56.09
51.82
46.52
40.17
32.81
24.39
14.93
4.48
-6.73
-18.38
-30.02
-41.32
-52.02
-62.15
-71.92
-81.80
-92.45
-104.57
-118.53
-133.92
-149.13
-161.32
-166.95
-162.86
-147.40
-121.20
-87.07
-49.22
-11.97
21.36
48.88
70.08
85.25
94.97
99.87
100.65
98.18
93.55
87.90
82.27
77.38
73.65
71.17
69.80
69.22
68.92
68.41
67.22
65.07
61.90
57.88
53.18
47.86
41.81
34.73
26.38
16.64
5.76
-5.81
-17.41
-28.42
-38.48
-47.62
-56.34
-65.52
-76.19
-89.21
-104.75
-121.88
-138.40
-151.06
-156.29
-151.23
-134.64
-107.42
-72.46
-33.85
4.16
38.10
65.75
86.25
99.74
106.96
108.96
106.86
101.81
94.94
87.38
80.12
73.94
69.29
66.22
64.45
63.47
62.70
61.74
60.41
58.80
56.96
54.83
51.98
47.71
41.32
32.45
21.35
8.85
-3.92
-16.00
-27.01
-37.17
-47.22
-58.09
-70.60
-85.35
-102.49
-121.51
-140.87
-157.89
-169.03
-170.78
-160.78
-138.77
-106.89
-69.18
-30.34
5.44
35.36
58.12
73.64
82.53
85.66
84.07
78.89
71.47
63.19
55.34
48.81
43.97
40.67
38.38
36.50
34.58
32.54
30.52
28.72
27.07
25.05
21.75
16.22
7.90
-3.07
-15.83
-29.12
-41.81
-53.34
-63.93
-74.53
-86.44
-100.82
-118.21
-138.01
-158.24
-175.65
-186.33
-186.68
-174.61
-150.29
-116.24
-76.63
-36.14
1.24
32.86
57.51
75.16
86.39
92.07
93.22
90.97
86.54
81.06
75.40
70.03
65.03
60.24
55.52
50.91
46.67
43.15
40.56
38.68
36.85
34.07
29.34
22.04
12.20
0.45
-12.13
-24.52
-36.07
-46.89
-57.79
-70.07
-85.02
-103.27
-124.23
-145.79
-164.46
-176.12
-177.19
-165.70
-142.03
-108.80
-70.16
-30.58
6.27
38.09
63.97
83.90
98.23
107.35
111.71
111.94
109.03
104.28
98.99
94.14
90.17
86.94
84.02
80.97
77.67
74.29
71.17
68.49
65.99
62.93
58.27
51.15
41.22
28.92
15.26
1.44
-11.62
-23.68
-35.19
-47.14
-60.72
-76.86
-95.81
-116.66
-137.13
-153.73
-162.47
-160.07
-145.03
-118.35
-83.30
-44.45
-6.24
28.08
56.96
80.20
98.31
111.78
120.86
125.70
126.64
124.41
120.17
115.16
110.43
106.53
103.52
101.11
98.83
96.31
93.37
90.02
86.37
82.49
78.19
73.05
66.45
57.83
46.96
34.12
20.11
5.93
-7.50
-19.76
-31.03
-41.92
-53.34
-66.12
-80.83
-97.64
-115.97
-134.36
-150.35
-160.75
-162.40
-153.12
-132.57
-102.58
-66.67
-29.12
6.26
36.96
61.97
81.45
96.07
106.52
113.26
116.64
117.08
115.24
111.92
107.99
104.07
100.54
97.46
94.77
92.34
90.06
87.85
85.55
82.96
79.77
75.68
70.45
63.95
56.16
47.11
36.92
25.77
13.90
1.65
-10.63
-22.55
-33.84
-44.37
-54.23
-63.82
-73.80
-85.00
-98.11
-113.20
-129.26
-143.97
-154.00
-155.83
-147.00
-127.04
-97.91
-63.44
-28.11
4.25
31.43
52.88
69.20
81.36
90.08
95.67
98.31
98.31
96.37
93.40
90.30
87.68
85.68
84.14
82.71
81.14
79.31
77.28
75.08
72.62
69.62
65.73
60.68
54.38
46.96
38.65
29.66
20.09
9.97
-0.62
-11.50
-22.30
-32.59
-42.03
-50.59
-58.68
-67.05
-76.67
-88.21
-101.69
-116.10
-129.27
-138.27
-140.15
-132.78
-115.67
-90.24
-59.52
-27.30
2.87
28.45
48.32
62.56
71.97
77.52
80.00
80.00
77.97
74.46
70.14
65.81
62.17
59.62
58.27
57.77
57.65
57.36
56.56
55.15
53.22
50.86
48.00
44.34
39.45
32.99
24.86
15.31
4.92
-5.63
-15.71
-24.94
-33.27
-40.97
-48.56
-56.67
-65.99
-76.97
-89.70
-103.56
-117.04
-127.87
-133.37
-131.20
-120.13
-100.61
-74.75
-45.78
-17.12
8.49
29.46
45.34
56.44
63.35
66.61
66.73
64.25
59.89
54.59
49.32
44.86
41.61
39.52
38.16
36.96
35.43
33.41
31.11
28.87
26.98
25.35
23.47
20.56
15.90
9.14
0.50
-9.35
-19.48
-29.10
-37.78
-45.53
-52.75
-60.13
-68.46
-78.47
-90.52
-104.27
-118.38
-130.53
-137.80
-137.51
-128.10
-109.72
-84.36
-55.29
-26.12
0.12
21.51
37.38
47.89
53.68
55.45
53.93
49.87
44.16
37.90
32.13
27.65
24.80
23.39
22.80
22.30
21.31
19.65
17.49
15.19
13.05
11.02
8.66
5.30
0.29
-6.63
-15.22
-24.74
-34.34
-43.32
-51.48
-59.15
-67.04
-76.03
-86.82
-99.65
-114.10
-128.88
-141.82
-150.20
-151.39
-143.59
-126.49
-101.61
-71.87
-40.88
-12.01
12.40
31.21
44.41
52.60
56.58
57.12
54.94
50.82
45.68
40.52
36.20
33.17
31.40
30.36
29.38
27.87
25.71
23.16
20.67
18.51
16.47
13.93
9.99
4.00
-4.17
-14.04
-24.71
-35.24
-45.06
-54.10
-62.81
-72.02
-82.64
-95.43
-110.61
-127.58
-144.63
-159.09
-167.80
-167.89
-157.78
-137.69
-109.73
-77.27
-44.08
-13.34
12.93
33.93
49.80
61.11
68.45
72.27
72.99
71.19
67.72
63.60
59.75
56.66
54.30
52.19
49.77
46.76
43.31
39.90
37.01
34.75
32.68
29.88
25.37
18.45
9.05
-2.28
-14.54
-26.74
-38.19
-48.81
-59.03
-69.72
-81.91
-96.43
-113.64
-132.87
-152.23
-168.67
-178.50
-178.44
-166.63
-143.35
-111.06
-73.73
-35.63
-0.26
30.28
55.37
75.32
90.71
101.99
109.29
112.75
112.84
110.41
106.70
102.86
99.61
97.03
94.70
92.05
88.72
84.81
80.77
77.08
73.97
71.15
67.84
63.05
55.96
46.19
34.05
20.32
6.07
-7.79
-20.74
-32.77
-44.40
-56.48
-69.94
-85.58
-103.57
-123.05
-141.90
-156.84
-164.18
-160.87
-145.62
-119.39
-85.16
-47.06
-9.11
25.65
55.51
79.87
98.72
112.24
120.67
124.43
124.27
121.38
117.17
112.98
109.71
107.60
106.34
105.25
103.64
101.19
98.00
94.44
90.90
87.44
83.62
78.62
71.54
61.80
49.45
35.19
20.23
5.81
-7.22
-18.71
-29.16
-39.65
-51.37
-65.36
-82.03
-100.95
-120.54
-138.19
-150.57
-154.37
-147.25
-128.67
-100.21
-65.20
-27.78
8.16
39.92
66.21
86.89
102.39
113.20
119.63
121.95
120.65
116.60
111.04
105.27
100.29
96.54
93.82
91.54
89.04
85.93
82.21
78.23
74.31
70.54
66.52
61.45
54.49
45.13
33.48
20.34
6.89
-5.77
-17.11
-27.37
-37.45
-48.55
-61.75
-77.57
-95.73
-114.92
-132.91
-146.70
-153.16
-149.72
-135.24
-110.49
-78.05
-41.70
-5.45
27.47
55.06
76.53
91.96
101.81
106.68
107.26
104.46
99.42
93.35
87.30
81.87
77.22
73.14
69.39
65.85
62.64
59.99
57.93
56.15
53.94
50.36
44.59
36.31
25.81
13.97
1.87
-9.61
-20.14
-30.01
-40.05
-51.35
-64.85
-80.92
-99.00
-117.34
-133.04
-142.66
-143.06
-132.47
-111.12
-81.37
-47.01
-12.22
19.47
45.85
66.05
80.23
89.07
93.41
94.05
91.74
87.19
81.12
74.19
67.00
60.04
53.68
48.18
43.75
40.44
38.11
36.40
34.67
32.13
28.08
22.10
14.24
4.97
-4.93
-14.77
-24.15
-33.21
-42.62
-53.35
-66.27
-81.61
-98.40
-114.40
-126.38
-131.00
-125.92
-110.60
-86.58
-57.03
-25.77
3.74
29.12
49.20
63.76
73.15
77.96
78.87
76.62
72.09
66.17
59.71
53.36
47.55
42.48
38.20
34.73
32.07
30.14
28.68
27.15
24.86
21.13
15.57
8.26
-0.34
-9.54
-18.79
-27.92
-37.18
-47.14
-58.54
-71.86
-87.06
-103.22
-118.36
-129.75
-134.48
-130.27
-116.36
-93.80
-65.26
-34.29
-4.37
21.85
42.88
58.33
68.56
74.26
76.23
75.22
71.92
67.03
61.19
55.01
49.04
43.68
39.21
35.78
33.38
31.82
30.71
29.47
27.42
24.05
19.06
12.50
4.71
-3.83
-12.71
-21.64
-30.61
-39.86
-49.85
-61.16
-74.19
-88.66
-103.30
-115.75
-122.99
-122.26
-112.05
-92.79
-66.77
-37.54
-8.69
17.05
38.20
54.48
66.21
73.88
77.85
78.47
76.22
71.79
66.08
59.97
54.15
49.03
44.75
41.36
38.84
37.13
36.00
35.01
33.44
30.57
25.87
19.24
11.03
1.95
-7.30
-16.26
-24.89
-33.55
-42.91
-53.64
-66.22
-80.54
-95.62
-109.54
-119.64
-123.11
-117.91
-103.46
-81.07
-53.60
-24.66
2.46
25.51
43.50
56.45
64.85
69.20
69.99
67.69
63.05
57.04
50.71
44.91
40.11
36.37
33.51
31.25
29.42
27.89
26.45
24.70
22.08
17.99
12.04
4.20
-5.14
-15.32
-25.68
-35.83
-45.82
-56.10
-67.43
-80.54
-95.68
-112.27
-128.59
-141.94
-149.20
-147.68
-136.08
-115.04
-87.02
-55.62
-24.55
3.27
26.22
43.81
56.32
64.24
68.14
68.53
66.12
61.80
56.59
51.43
46.91
43.15
39.96
37.02
34.14
31.30
28.53
25.70
22.39
17.96
11.80
3.59
-6.45
-17.61
-28.99
-39.85
-49.95
-59.61
-69.71
-81.35
-95.48
-112.37
-131.17
-149.72
-164.77
-172.68
-170.51
-157.02
-133.17
-101.90
-67.24
-33.11
-2.42
23.34
43.86
59.49
70.69
77.85
81.32
81.62
79.52
75.97
71.86
67.72
63.72
59.73
55.57
51.24
47.03
43.27
40.17
37.46
34.42
30.04
23.48
14.44
3.33
-8.86
-20.97
-32.16
-42.26
-51.84
-62.00
-74.02
-88.80
-106.44
-125.86
-144.74
-159.76
-167.36
-164.64
-150.33
-125.30
-92.35
-55.47
-18.62
15.16
44.22
68.22
87.46
102.38
113.22
120.03
123.02
122.77
120.27
116.66
112.95
109.56
106.37
102.91
98.78
94.00
88.96
84.26
80.23
76.71
72.93
67.83
60.45
50.37
37.91
24.01
9.84
-3.63
-15.95
-27.38
-38.71
-50.97
-65.15
-81.72
-100.41
-119.93
-138.00
-151.53
-157.29
-152.74
-136.93
-110.98
-77.87
-41.63
-6.21
25.62
52.57
74.69
92.56
106.66
117.01
123.26
125.15
122.97
117.71
110.86
103.96
98.08
93.66
90.47
87.94
85.48
82.64
79.26
75.29
70.70
65.41
59.27
52.08
43.76
34.33
24.02
13.20
2.31
-8.22
-18.12
-27.35
-36.12
-44.82
-53.92
-63.99
-75.54
-88.89
-103.83
-119.30
-133.10
-142.17
-143.31
-134.19
-114.37
-85.58
-51.30
-15.64
17.78
46.71
70.29
88.63
102.08
110.88
115.04
114.70
110.44
103.44
95.35
87.81
81.99
78.29
76.32
75.25
74.22
72.74
70.81
68.70
66.65
64.57
61.91
57.86
51.69
43.02
32.03
19.37
5.94
-7.39
-20.06
-31.94
-43.25
-54.47
-66.18
-78.96
-93.22
-109.01
-125.69
-141.72
-154.63
-161.43
-159.45
-147.16
-124.83
-94.58
-59.78
-24.18
9.01
37.56
60.40
77.26
88.36
94.23
95.56
93.24
88.33
82.03
75.45
69.40
64.24
59.90
56.03
52.29
48.55
44.99
41.87
39.29
36.83
33.60
28.52
20.82
10.40
-1.98
-15.03
-27.34
-37.99
-46.81
-54.49
-62.32
-71.75
-83.90
-98.99
-115.96
-132.40
-144.91
-149.97
-144.96
-129.06
-103.57
-71.53
-36.83
-3.22
26.48
50.66
68.70
80.77
87.38
89.33
87.55
83.10
77.07
70.41
63.89
57.95
52.82
48.47
44.85
41.87
39.49
37.63
36.02
34.15
31.29
26.71
19.92
10.91
0.23
-11.23
-22.58
-33.28
-43.39
-53.57
-64.80
-78.02
-93.57
-110.81
-127.82
-141.68
-149.03
-147.07
-134.48
-111.94
-82.02
-48.50
-15.25
14.67
39.54
58.78
72.57
81.29
85.30
85.05
81.26
75.03
67.73
60.59
54.42
49.43
45.41
42.08
39.35
37.34
36.21
35.76
35.34
33.92
30.51
24.50
15.97
5.63
-5.43
-16.25
-26.26
-35.50
-44.54
-54.31
-65.77
-79.59
-95.65
-112.78
-128.60
-139.83
-143.14
-136.19
-118.47
-91.62
-58.96
-24.51
8.09
36.30
58.81
75.27
85.83
90.85
90.99
87.15
80.63
72.82
64.99
58.02
52.27
47.73
44.25
41.63
39.79
38.60
37.81
36.95
35.32
32.24
27.23
20.15
11.30
1.28
-9.23
-19.72
-30.05
-40.54
-51.94
-65.10
-80.56
-97.98
-115.79
-131.19
-140.72
-141.20
-130.78
-109.69
-80.23
-46.11
-11.44
20.31
46.88
67.24
81.32
89.58
92.73
91.64
87.30
80.84
73.33
65.65
58.43
51.97
46.41
41.78
38.10
35.33
33.24
31.42
29.22
25.90
20.80
13.54
4.17
-6.83
-18.70
-30.64
-42.13
-53.18
-64.40
-76.83
-91.44
-108.44
-126.70
-143.63
-155.57
-158.81
-150.92
-131.56
-102.70
-68.02
-31.84
2.11
31.33
54.67
72.00
83.74
90.49
92.90
91.64
87.50
81.34
74.07
66.54
59.49
53.42
48.61
45.04
42.40
40.11
37.45
33.65
28.11
20.49
10.90
-0.21
-12.12
-24.10
-35.62
-46.55
-57.29
-68.69
-81.82
-97.64
-116.34
-136.85
-156.57
-171.73
-178.24
-172.98
-154.90
-125.50
-88.49
-48.69
-10.67
22.27
48.61
68.32
82.25
91.47
96.83
98.85
97.92
94.40
88.84
81.96
74.56
67.38
60.96
55.55
51.13
47.47
44.15
40.67
36.47
31.01
23.92
15.10
4.75
-6.62
-18.47
-30.38
-42.27
-54.50
-67.84
-83.26
-101.49
-122.43
-144.69
-165.41
-180.71
-186.65
-180.52
-161.83
-132.51
-96.42
-58.06
-21.40
10.96
37.91
59.39
75.82
87.65
95.18
98.69
98.67
95.88
91.38
86.17
81.04
76.30
71.94
67.80
63.85
60.27
57.31
54.97
52.72
49.58
44.46
36.67
26.23
13.90
0.83
-11.96
-23.93
-35.18
-46.38
-58.49
-72.49
-89.06
-108.10
-128.35
-147.25
-161.20
-166.45
-160.24
-141.71
-112.40
-75.78
-36.22
2.20
36.56
65.46
88.70
106.76
120.20
129.42
134.61
135.97
133.92
129.27
123.12
116.73
111.15
106.96
104.23
102.50
101.14
99.49
97.15
93.91
89.66
84.25
77.46
69.02
58.75
46.70
33.22
18.92
4.54
-9.24
-21.97
-33.54
-44.25
-54.67
-65.59
-77.81
-91.94
-108.19
-126.03
-143.91
-159.23
-168.72
-169.19
-158.52
-136.48
-104.95
-67.53
-28.46
8.50
40.78
67.29
88.01
103.46
114.25
120.88
123.80
123.60
121.04
117.06
112.53
108.21
104.56
101.77
99.83
98.56
97.68
96.79
95.39
93.00
89.16
83.65
76.43
67.73
57.86
47.13
35.73
23.80
11.48
-1.01
-13.30
-24.99
-35.82
-45.72
-54.97
-64.11
-73.87
-85.04
-98.25
-113.59
-130.31
-146.43
-158.92
-164.23
-159.36
-142.95
-115.93
-81.38
-43.59
-6.88
25.55
52.08
72.48
87.31
97.35
103.24
105.48
104.65
101.53
97.13
92.46
88.35
85.25
83.20
82.02
81.40
81.02
80.66
80.04
78.81
76.57
72.94
67.72
61.02
53.21
44.77
36.07
27.21
17.98
8.04
-2.87
-14.72
-27.09
-39.30
-50.66
-60.74
-69.55
-77.66
-86.07
-95.91
-108.01
-122.41
-137.96
-152.28
-162.07
-163.97
-155.57
-136.24
-107.46
-72.50
-35.52
-0.43
29.89
53.97
71.61
83.39
90.13
92.68
91.86
88.60
83.95
78.98
74.56
71.14
68.74
67.14
66.09
65.50
65.43
65.84
66.44
66.60
65.49
62.37
56.96
49.49
40.68
31.36
22.16
13.29
4.51
-4.63
-14.54
-25.25
-36.41
-47.42
-57.64
-66.68
-74.58
-81.79
-89.13
-97.57
-107.94
-120.57
-134.81
-148.73
-159.29
-163.06
-157.25
-140.78
-114.76
-82.27
-47.36
-13.91
15.26
38.71
56.09
67.71
74.12
75.95
74.07
69.57
63.71
57.65
52.28
47.99
44.74
42.27
40.27
38.57
37.24
36.52
36.68
37.80
39.67
41.74
43.25
43.56
42.31
39.58
35.69
30.98
25.51
18.94
10.66
0.19
-12.50
-26.70
-41.14
-54.38
-65.29
-73.53
-79.60
-84.76
-90.51
-98.06
-107.77
-118.72
-128.77
-134.86
-133.91
-123.76
-103.95
-75.95
-42.85
-8.45
23.72
51.06
72.25
86.96
95.58
98.88
97.83
93.56
87.27
80.15
73.15
66.94
61.85
57.95
55.19
53.46
52.68
52.66
53.08
53.39
52.93
51.08
47.48
42.13
35.40
27.79
19.77
11.62
3.31
-5.34
-14.61
-24.66
-35.45
-46.73
-58.05
-68.93
-79.05
-88.41
-97.48
-107.00
-117.80
-130.24
-143.78
-156.67
-166.13
-168.89
-162.13
-144.41
-116.22
-80.01
-39.64
0.60
36.87
66.54
88.44
102.63
109.94
111.55
108.55
101.98
92.81
82.20
71.38
61.56
53.70
48.21
44.97
43.41
42.80
42.46
41.89
40.79
39.02
36.50
33.17
28.89
23.43
16.54
7.94
-2.39
-14.19
-26.89
-39.73
-52.03
-63.42
-73.97
-84.13
-94.72
-106.64
-120.58
-136.57
-153.58
-169.30
-180.44
-183.48
-175.72
-156.29
-126.53
-89.75
-50.25
-12.30
20.83
47.23
66.15
77.77
82.78
82.21
77.48
70.24
62.27
55.14
49.88
46.74
45.28
44.61
43.89
42.61
40.82
38.92
37.43
36.54
35.88
34.55
31.46
25.66
16.87
5.53
-7.29
-20.30
-32.52
-43.56
-53.81
-64.23
-76.10
-90.59
-108.41
-129.25
-151.50
-172.13
-187.05
-192.16
-184.44
-163.13
-130.10
-89.34
-45.87
-4.30
32.09
61.67
84.10
99.73
109.15
113.04
112.28
108.07
101.86
95.07
88.76
83.38
78.79
74.55
70.30
65.99
61.96
58.66
56.27
54.38
51.99
47.76
40.54
29.83
16.02
0.29
-15.89
-31.19
-45.01
-57.62
-70.09
-84.00
-100.83
-121.31
-144.72
-168.59
-188.90
-200.99
-200.93
-186.75
-159.18
-121.48
-78.37
-34.75
5.45
39.79
67.27
87.88
102.13
110.79
114.77
115.08
112.75
108.78
103.98
98.89
93.80
88.82
83.97
79.29
74.88
70.80
67.08
63.50
59.56
54.52
47.60
38.22
26.28
12.22
-3.05
-18.53
-33.49
-47.88
-62.40
-78.28
-96.78
-118.51
-142.81
-167.31
-188.24
-201.17
-202.28
-189.60
-163.79
-128.01
-87.02
-45.78
-8.13
23.92
50.09
71.05
87.64
100.25
108.87
113.48
114.45
112.72
109.54
106.09
103.02
100.39
97.77
94.76
91.19
87.34
83.66
80.45
77.49
74.00
68.86
61.09
50.27
36.81
21.86
6.91
-6.78
-18.67
-29.19
-39.54
-51.27
-65.76
-83.58
-104.09
-125.31
-144.11
-156.77
-159.83
-151.08
-130.23
-99.17
-61.47
-21.42
17.00
51.03
79.34
101.85
119.14
131.87
140.53
145.46
146.98
145.61
142.12
137.38
132.22
127.32
123.08
119.66
117.01
114.90
112.97
110.78
107.91
103.97
98.76
92.20
84.34
75.35
65.39
54.57
42.93
30.51
17.37
3.75
-10.01
-23.46
-36.25
-48.25
-59.69
-71.18
-83.55
-97.58
-113.57
-130.90
-147.74
-161.09
-167.47
-163.81
-148.59
-122.42
-88.07
-49.65
-11.46
23.11
52.13
75.10
92.44
104.90
113.08
117.45
118.40
116.52
112.73
108.15
103.84
100.60
98.66
97.84
97.62
97.42
96.84
95.64
93.68
90.74
86.55
80.83
73.48
64.72
55.02
44.92
34.77
24.63
14.27
3.44
-7.98
-19.83
-31.68
-43.07
-53.67
-63.51
-73.10
-83.31
-95.09
-108.98
-124.56
-140.04
-152.48
-158.34
-154.67
-140.08
-115.40
-83.44
-48.19
-13.60
17.31
42.91
62.84
77.51
87.58
93.66
96.29
96.04
93.62
89.87
85.57
81.38
77.66
74.58
72.14
70.35
69.16
68.49
68.07
67.47
66.15
63.64
59.65
54.23
47.64
40.19
32.11
23.52
14.37
4.61
-5.75
-16.51
-27.31
-37.71
-47.36
-56.16
-64.32
-72.45
-81.39
-91.94
-104.46
-118.48
-132.38
-143.57
-148.96
-145.88
-132.95
-110.73
-81.64
-49.28
-17.44
10.87
33.96
51.35
63.45
71.00
74.72
75.25
73.22
69.35
64.55
59.70
55.53
52.43
50.44
49.28
48.70
48.53
48.76
49.33
50.01
50.21
49.17
46.26
41.29
34.59
26.93
19.11
11.61
4.43
-2.85
-10.71
-19.36
-28.66
-38.14
-47.23
-55.54
-63.01
-69.94
-76.90
-84.60
-93.66
-104.37
-116.31
-128.18
-137.74
-142.23
-139.15
-127.14
-106.51
-79.37
-49.03
-19.08
7.52
28.98
44.74
55.14
61.00
63.19
62.57
59.92
56.04
51.66
47.44
43.85
41.13
39.34
38.49
38.48
39.23
40.52
41.98
43.05
43.05
41.41
37.84
32.49
25.94
18.94
12.13
5.73
-0.48
-7.08
-14.64
-23.38
-33.04
-42.99
-52.45
-60.88
-68.21
-74.91
-81.84
-90.07
-100.31
-112.58
-125.76
-137.64
-145.27
-145.80
-137.35
-119.72
-94.54
-64.83
-34.13
-5.69
18.23
36.54
49.14
56.57
59.70
59.45
56.78
52.60
47.82
43.20
39.30
36.43
34.63
33.75
33.66
34.21
35.28
36.60
37.68
37.90
36.70
33.79
29.33
23.82
17.81
11.71
5.57
-0.87
-7.99
-16.09
-25.19
-35.03
-45.10
-54.80
-63.66
-71.46
-78.40
-85.14
-92.65
-101.87
-113.24
-126.25
-139.16
-149.23
-153.30
-148.77
-134.41
-110.89
-80.64
-47.22
-14.30
15.09
39.08
56.90
68.67
75.04
76.94
75.40
71.52
66.33
60.80
55.67
51.51
48.63
47.07
46.67
47.09
47.91
48.78
49.42
49.64
49.25
48.03
45.77
42.25
37.39
31.21
23.78
15.17
5.43
-5.31
-16.76
-28.42
-39.74
-50.30
-60.04
-69.36
-79.07
-90.18
-103.51
-119.25
-136.53
-153.19
-166.02
-171.45
-166.59
-150.22
-123.32
-88.88
-51.13
-14.35
18.06
44.12
63.23
75.74
82.51
84.57
83.02
78.96
73.62
68.20
63.77
61.01
60.05
60.51
61.69
62.88
63.62
63.74
63.32
62.38
60.75
58.05
53.75
47.36
38.64
27.65
14.80
0.83
-13.36
-26.92
-39.26
-50.36
-60.83
-71.81
-84.58
-100.11
-118.35
-137.97
-156.17
-169.23
-173.36
-165.84
-145.85
-114.86
-76.28
-34.43
6.45
43.14
73.71
97.41
114.28
124.77
129.50
129.36
125.52
119.48
112.89
107.19
103.28
101.36
100.89
101.01
100.92
100.22
98.94
97.28
95.25
92.37
87.67
80.04
68.70
53.66
35.77
16.48
-2.59
-20.25
-36.13
-50.66
-65.03
-80.71
-99.07
-120.73
-145.00
-169.65
-190.91
-204.34
-205.94
-193.51
-167.41
-130.59
-87.77
-44.03
-3.62
30.73
57.88
77.80
91.03
98.29
100.44
98.55
93.93
88.08
82.31
77.40
73.48
70.11
66.70
62.88
58.80
54.96
51.81
49.32
46.75
42.79
36.13
26.01
12.54
-3.27
-19.93
-36.06
-50.89
-64.44
-77.58
-91.67
-108.09
-127.77
-150.54
-174.73
-197.06
-213.12
-218.49
-209.98
-186.80
-150.94
-106.67
-59.37
-14.08
25.55
57.72
82.19
99.70
111.24
117.80
120.17
119.16
115.67
110.71
105.25
99.94
95.01
90.32
85.61
80.74
75.85
71.24
67.07
63.13
58.63
52.46
43.58
31.51
16.58
-0.15
-17.24
-33.44
-48.20
-61.85
-75.54
-90.75
-108.80
-130.14
-153.85
-177.38
-196.87
-207.83
-206.37
-190.43
-160.58
-120.06
-73.96
-27.70
14.27
49.40
77.10
98.10
113.60
124.56
131.47
134.49
133.94
130.51
125.39
119.91
115.17
111.63
109.09
106.89
104.30
100.93
96.83
92.35
87.79
83.08
77.60
70.36
60.44
47.42
31.70
14.46
-2.78
-18.69
-32.63
-44.89
-56.47
-68.75
-83.02
-100.12
-120.13
-142.19
-164.29
-183.29
-195.36
-196.79
-185.11
-160.08
-123.89
-80.79
-35.81
6.50
43.11
72.77
95.68
112.76
124.99
133.08
137.53
138.75
137.32
134.00
129.61
124.84
120.16
115.80
111.86
108.42
105.57
103.28
101.32
99.13
95.98
91.20
84.45
75.83
65.78
54.83
43.38
31.53
19.21
6.31
-7.10
-20.75
-34.17
-46.93
-58.77
-69.81
-80.58
-92.03
-105.23
-120.98
-139.21
-158.47
-175.83
-187.36
-189.13
-178.48
-155.02
-120.90
-80.18
-37.67
2.35
37.00
65.04
86.45
101.87
112.10
117.94
120.20
119.80
117.74
114.94
112.04
109.34
106.80
104.30
101.83
99.58
97.89
97.02
96.88
96.93
96.23
93.71
88.64
80.89
71.04
60.12
49.17
38.77
28.81
18.65
7.56
-4.87
-18.43
-32.31
-45.51
-57.25
-67.35
-76.35
-85.30
-95.53
-108.15
-123.55
-141.03
-158.49
-172.65
-179.68
-176.25
-160.66
-133.50
-97.66
-57.52
-17.74
17.96
47.44
70.19
86.78
98.13
105.11
108.34
108.37
105.92
101.95
97.52
93.56
90.57
88.56
87.18
86.07
85.01
84.02
83.15
82.27
80.85
78.16
73.54
66.71
58.04
48.32
38.45
28.98
19.89
10.67
0.62
-10.63
-22.92
-35.57
-47.71
-58.64
-68.22
-76.92
-85.76
-95.94
-108.50
-123.71
-140.72
-157.31
-170.15
-175.53
-170.45
-153.70
-126.42
-91.82
-54.23
-17.93
13.97
39.86
59.43
73.12
81.69
85.86
86.41
84.27
80.49
76.14
72.03
68.65
66.09
64.26
63.02
62.35
62.28
62.76
63.53
64.08
63.73
61.82
58.01
52.32
45.20
37.23
28.91
20.45
11.71
2.39
-7.79
-18.83
-30.43
-42.04
-53.07
-63.13
-72.12
-80.32
-88.40
-97.29
-107.88
-120.45
-134.21
-146.95
-155.35
-155.85
-145.88
-124.91
-94.82
-59.37
-23.08
10.04
37.39
57.94
71.89
80.13
83.74
83.74
81.12
76.80
71.72
66.67
62.29
58.98
56.86
55.82
55.63
56.01
56.65
57.22
57.38
56.79
55.11
52.10
47.74
42.17
35.65
28.42
20.57
12.02
2.63
-7.66
-18.66
-29.94
-40.98
-51.42
-61.18
-70.59
-80.33
-91.17
-103.70
-117.93
-132.90
-146.56
-155.93
-157.81
-149.65
-130.58
-101.92
-66.97
-30.12
4.31
33.15
54.83
69.23
77.11
79.54
77.63
72.46
65.18
57.03
49.25
42.84
38.36
35.84
34.89
34.89
35.17
35.25
34.86
33.96
32.61
30.86
28.64
25.63
21.40
15.45
7.51
-2.36
-13.64
-25.54
-37.23
-48.11
-58.05
-67.38
-76.84
-87.30
-99.62
-114.28
-131.07
-148.77
-164.90
-176.17
-179.02
-170.83
-150.90
-120.84
-84.27
-45.79
-9.72
20.81
44.25
60.42
69.94
73.77
72.96
68.56
61.76
53.86
46.13
39.57
34.75
31.65
29.80
28.58
27.46
26.25
25.12
24.31
23.88
23.41
21.96
18.40
11.80
1.94
-10.60
-24.52
-38.34
-50.85
-61.61
-71.03
-80.22
-90.70
-103.89
-120.64
-140.66
-162.28
-182.26
-196.46
-200.71
-192.11
-170.02
-136.35
-95.09
-51.17
-9.26
27.19
56.27
77.51
91.40
98.95
101.40
100.07
96.27
91.27
86.13
81.59
77.94
75.02
72.36
69.51
66.25
62.74
59.41
56.57
54.14
51.47
47.52
41.22
31.99
19.90
5.73
-9.33
-24.16
-38.01
-50.81
-63.18
-76.34
-91.78
-110.61
-132.93
-157.19
-180.07
-196.96
-203.16
-195.39
-172.94
-138.00
-95.11
-49.70
-6.68
30.65
60.75
83.49
99.50
109.62
114.74
115.83
114.02
110.55
106.48
102.51
98.79
95.04
90.83
85.83
80.09
74.03
68.28
63.34
59.26
55.46
50.81
44.00
34.09
20.94
5.34
-11.26
-27.35
-41.99
-55.17
-67.78
-81.31
-97.28
-116.70
-139.54
-164.33
-188.05
-206.47
-215.06
-210.27
-190.64
-157.57
-114.91
-67.93
-21.83
19.47
53.88
80.95
101.25
115.69
125.13
130.27
131.82
130.58
127.54
123.68
119.76
116.18
112.89
109.55
105.82
101.61
97.23
93.18
89.85
87.14
84.32
80.16
73.41
63.30
49.94
34.26
17.75
1.82
-12.66
-25.67
-37.91
-50.53
-64.76
-81.59
-101.39
-123.54
-146.12
-165.82
-178.46
-179.96
-167.71
-141.62
-104.36
-60.69
-15.96
25.36
60.63
89.09
111.23
127.90
139.72
146.99
149.95
149.07
145.27
139.84
134.09
129.00
125.02
122.03
119.55
117.01
114.04
110.60
106.85
102.99
98.98
94.45
88.82
81.45
71.91
60.14
46.42
31.38
15.74
0.25
-14.50
-28.23
-40.99
-53.22
-65.66
-79.25
-94.84
-112.82
-132.60
-152.24
-168.44
-177.14
-174.67
-159.01
-130.67
-92.73
-49.96
-7.45
30.74
62.32
86.71
104.45
116.52
123.76
126.80
126.27
122.93
117.80
112.01
106.58
102.17
98.94
96.70
95.01
93.46
91.73
89.66
87.09
83.85
79.73
74.50
67.99
60.11
50.87
40.39
28.86
16.54
3.70
-9.32
-22.23
-34.70
-46.54
-57.71
-68.53
-79.72
-92.30
-107.20
-124.67
-143.65
-161.49
-174.29
-177.92
-169.39
-148.00
-115.70
-76.61
-35.76
2.38
34.83
60.44
79.45
92.72
101.10
105.25
105.63
102.87
97.87
91.78
85.79
80.78
77.20
75.00
73.79
73.04
72.26
71.12
69.46
67.24
64.44
60.98
56.62
51.04
43.91
35.06
24.57
12.80
0.29
-12.37
-24.68
-36.35
-47.30
-57.69
-67.92
-78.62
-90.58
-104.49
-120.56
-138.05
-154.99
-168.28
-174.30
-170.01
-153.96
-126.94
-91.90
-53.18
-15.29
18.20
45.24
65.34
79.04
87.33
91.17
91.42
88.94
84.65
79.57
74.63
70.47
67.33
65.15
63.67
62.64
61.83
61.05
60.04
58.52
56.22
52.95
48.67
43.37
37.06
29.68
21.17
11.51
0.89
-10.38
-21.86
-33.17
-44.04
-54.43
-64.49
-74.58
-85.28
-97.25
-111.10
-126.79
-143.24
-158.04
-167.79
-169.00
-159.28
-138.34
-108.25
-72.80
-36.37
-2.70
25.82
48.17
64.37
74.90
80.42
81.78
79.93
76.04
71.21
66.38
62.16
58.84
56.48
55.01
54.26
53.98
53.86
53.52
52.65
51.01
48.48
45.04
40.63
35.19
28.60
20.74
11.61
1.36
-9.64
-20.98
-32.22
-43.09
-53.45
-63.35
-72.99
-82.76
-93.25
-105.17
-118.93
-134.23
-149.48
-161.82
-167.64
-163.66
-148.20
-121.93
-87.84
-50.43
-14.29
17.09
41.92
60.04
72.32
79.87
83.57
84.00
81.68
77.25
71.66
65.95
61.10
57.66
55.74
55.07
55.21
55.66
55.98
55.77
54.68
52.40
48.83
44.03
38.22
31.65
24.42
16.49
7.69
-2.16
-13.03
-24.66
-36.60
-48.32
-59.38
-69.58
-79.09
-88.50
-98.73
-110.73
-125.01
-140.98
-156.70
-168.89
-173.88
-168.55
-151.61
-124.09
-89.15
-51.09
-14.22
18.21
44.46
64.11
77.70
86.04
90.02
90.40
87.94
83.47
77.95
72.34
67.45
63.79
61.49
60.29
59.79
59.54
59.21
58.57
57.42
55.55
52.74
48.87
43.92
37.94
31.01
23.09
14.03
3.74
-7.69
-19.89
-32.31
-44.34
-55.61
-66.03
-75.90
-85.80
-96.56
-108.96
-123.39
-139.34
-154.99
-167.29
-172.53
-167.48
-150.55
-122.57
-86.56
-46.90
-8.04
26.62
55.11
76.88
92.17
101.63
105.97
106.00
102.71
97.27
90.94
84.87
79.94
76.58
74.83
74.37
74.74
75.41
75.88
75.72
74.64
72.42
68.99
64.35
58.62
51.89
44.19
35.45
25.55
14.46
2.34
-10.46
-23.40
-36.02
-48.02
-59.43
-70.66
-82.41
-95.50
-110.65
-127.92
-146.31
-163.45
-175.89
-179.78
-172.10
-151.75
-120.14
-80.89
-38.87
1.17
35.69
62.82
82.31
94.94
101.90
104.32
103.13
99.13
93.15
86.19
79.33
73.55
69.51
67.36
66.75
67.04
67.53
67.66
67.14
65.78
63.49
60.13
55.49
49.38
41.59
31.99
20.59
7.60
-6.51
-21.05
-35.29
-48.69
-61.03
-72.58
-84.04
-96.35
-110.54
-127.23
-146.12
-165.51
-182.27
-192.25
-191.48
-177.46
-150.21
-112.49
-69.06
-25.32
14.15
46.49
70.74
87.32
97.34
101.99
102.29
99.19
93.73
87.12
80.67
75.49
72.14
70.53
69.98
69.51
68.30
66.00
62.82
59.30
55.94
52.80
49.36
44.66
37.68
27.82
15.18
0.62
-14.60
-29.34
-42.90
-55.32
-67.21
-79.57
-93.50
-109.93
-129.29
-151.07
-173.39
-192.91
-205.32
-206.51
-193.87
-167.41
-129.88
-85.99
-41.04
0.51
35.92
64.12
85.33
100.24
109.61
114.11
114.48
111.70
106.99
101.65
96.76
92.83
89.80
87.10
84.09
80.35
75.99
71.47
67.34
63.75
60.31
56.08
49.91
40.89
28.76
14.00
-2.26
-18.66
-34.09
-48.05
-60.86
-73.47
-87.27
-103.56
-123.05
-145.32
-168.47
-189.13
-203.04
-206.12
-195.74
-171.72
-136.55
-94.75
-51.45
-11.11
23.54
51.49
73.02
88.93
99.95
106.61
109.45
109.20
106.91
103.78
100.74
98.18
95.82
92.98
88.95
83.45
76.82
69.87
63.48
58.14
53.58
48.87
42.71
33.99
22.31
8.10
-7.53
-23.19
-37.75
-50.74
-62.48
-73.96
-86.54
-101.51
-119.60
-140.45
-162.34
-182.11
-195.69
-199.09
-189.60
-166.75
-132.62
-91.26
-47.52
-5.77
31.07
61.74
86.27
105.37
119.80
130.02
136.29
138.84
138.09
134.85
130.18
125.19
120.70
117.07
114.13
111.45
108.59
105.34
101.74
97.95
94.00
89.63
84.26
77.20
67.89
56.16
42.27
26.94
11.08
-4.45
-19.07
-32.69
-45.70
-58.83
-72.92
-88.67
-106.44
-126.01
-146.30
-165.22
-179.72
-186.32
-182.01
-165.26
-136.73
-99.33
-57.41
-15.59
22.46
54.69
80.65
100.90
116.30
127.46
134.66
137.99
137.73
134.49
129.26
123.20
117.26
112.08
107.93
104.78
102.43
100.65
99.10
97.33
94.77
90.85
85.19
77.70
68.59
58.22
46.93
34.91
22.23
8.96
-4.72
-18.48
-31.92
-44.71
-56.72
-68.12
-79.41
-91.32
-104.65
-119.88
-136.64
-153.30
-166.92
-173.85
-170.68
-155.56
-129.03
-93.96
-54.78
-16.06
18.75
47.90
71.18
89.25
102.82
112.27
117.68
119.19
117.31
113.00
107.48
101.90
97.08
93.36
90.69
88.80
87.35
86.00
84.45
82.42
79.61
75.82
70.86
64.68
57.27
48.70
39.00
28.20
16.41
3.81
-9.25
-22.30
-34.86
-46.56
-57.36
-67.61
-78.05
-89.57
-103.00
-118.57
-135.49
-151.74
-164.28
-169.67
-165.09
-149.30
-123.18
-89.57
-52.44
-15.86
16.97
44.22
65.38
80.82
91.28
97.46
99.96
99.31
96.11
91.17
85.44
79.84
75.07
71.45
68.97
67.36
66.28
65.42
64.50
63.21
61.17
57.99
53.41
47.35
39.96
31.52
22.34
12.67
2.61
-7.78
-18.47
-29.35
-40.19
-50.77
-60.91
-70.68
-80.50
-91.11
-103.28
-117.44
-133.06
-148.41
-160.63
-166.40
-162.90
-148.71
-124.46
-92.67
-57.14
-21.89
9.79
35.87
55.71
69.60
78.39
83.00
84.30
83.02
79.93
75.74
71.17
66.83
63.14
60.34
58.41
57.16
56.26
55.34
54.06
52.20
49.70
46.56
42.73
38.08
32.32
25.16
16.48
6.43
-4.50
-15.69
-26.57
-36.76
-46.26
-55.32
-64.34
-73.85
-84.39
-96.43
-110.18
-125.10
-139.61
-151.04
-156.12
-151.98
-137.14
-112.28
-80.16
-44.82
-10.41
19.85
44.28
62.54
75.18
83.00
86.67
86.74
83.78
78.58
72.22
65.84
60.44
56.54
54.17
52.99
52.50
52.22
51.83
51.11
49.91
48.10
45.52
42.06
37.59
32.01
25.27
17.39
8.54
-0.95
-10.73
-20.51
-30.20
-39.82
-49.49
-59.34
-69.57
-80.56
-92.78
-106.51
-121.27
-135.43
-146.23
-150.34
-144.91
-128.69
-102.65
-69.74
-34.08
0.25
30.11
53.80
70.91
81.82
87.26
87.99
84.82
78.72
70.96
62.99
56.23
51.69
49.74
50.09
51.92
54.33
56.59
58.37
59.68
60.77
61.79
62.65
62.99
62.12
59.41
54.47
47.49
39.22
30.85
23.57
18.13
14.54
11.93
8.81
3.48
-5.48
-18.62
-35.30
-53.52
-70.08
-81.25
-83.67
-75.33
-56.42
-29.31
1.96
32.80
59.27
78.80
90.50
94.83
92.95
86.22
75.87
62.90
48.22
32.73
17.39
3.15
-9.20
-19.14
-26.54
-31.59
-34.74
-36.51
-37.37
-37.72
-38.05
-39.05
-41.72
-47.09
-55.92
-68.27
-83.34
-99.64
-115.43
-129.47
-141.37
-151.89
-162.60
-175.35
-191.60
-211.64
-234.06
-255.59
-271.67
-277.40
-269.06
-245.24
-207.46
-159.66
-107.09
-54.90
-6.97
34.38
68.32
94.81
114.11
126.68
133.07
134.21
131.35
125.91
119.11
111.73
104.12
96.44
88.98
82.35
77.42
74.88
74.69
75.91
76.76
75.30
69.97
60.15
46.17
28.99
9.79
-10.50
-31.36
-52.79
-75.24
-99.42
-125.94
-154.67
-184.08
-210.86
-230.33
-237.57
-229.14
-204.38
-165.93
-118.92
-69.50
-23.07
16.86
48.84
72.99
90.16
101.24
106.99
108.08
105.37
99.87
92.75
85.02
77.38
70.22
63.68
57.85
52.81
48.63
45.13
41.77
37.59
31.45
22.48
10.44
-4.17
-20.21
-36.42
-51.95
-66.73
-81.69
-98.45
-118.74
-143.45
-171.77
-200.61
-224.90
-238.73
-237.06
-217.47
-181.09
-132.34
-77.60
-23.43
25.05
64.96
95.59
117.65
132.49
141.51
145.93
146.82
145.14
141.80
137.51
132.62
127.13
120.86
113.74
106.16
98.91
92.92
88.70
85.90
83.25
78.93
71.30
59.65
44.46
27.22
9.71
-6.64
-21.48
-35.63
-50.88
-69.37
-92.75
-121.18
-152.58
-182.52
-204.95
-213.81
-204.99
-177.84
-135.52
-84.10
-30.60
