1520261832.00
64.000000
-0.00
-0.00
-0.00
-0.00
-0.00
-0.00
-0.00
-0.00
-0.00
-0.00
0.00
0.01
0.01
-0.00
-0.03
-0.05
-0.05
0.00
0.13
0.36
0.66
1.01
1.37
1.72
2.06
2.40
2.79
3.24
3.80
4.42
5.06
5.66
6.20
6.68
7.15
7.68
8.31
9.14
10.09
11.04
11.88
12.56
13.14
13.76
14.65
15.96
17.91
20.32
22.90
25.38
27.58
29.57
31.68
34.32
37.81
42.54
48.15
54.10
59.83
64.97
69.58
74.14
79.34
85.71
93.76
103.00
112.62
121.73
129.77
136.75
143.30
150.75
157.77
166.64
177.95
191.79
206.97
220.57
228.25
225.36
208.53
176.87
132.76
80.05
23.07
-34.94
-92.44
-149.16
-205.23
-260.37
-313.74
-363.87
-409.83
-450.91
-486.50
-515.74
-537.23
-549.22
-549.96
-538.37
-514.21
-478.67
-433.88
-382.45
-327.02
-269.84
-212.63
-156.66
-102.95
-52.37
-5.90
35.58
71.43
101.35
125.50
144.38
158.69
169.15
176.37
180.75
182.57
182.07
179.51
175.23
169.65
163.18
156.15
148.81
141.30
133.69
126.02
118.33
110.69
103.16
95.80
88.68
81.83
75.25
68.95
62.95
57.25
51.86
46.78
42.03
37.59
33.45
29.61
26.07
22.81
19.83
17.11
14.67
12.48
10.54
8.83
7.35
6.07
4.97
4.05
3.27
2.62
2.09
1.65
1.30
1.01
0.79
0.61
0.47
0.37
0.29
0.23
0.19
0.16
0.15
0.14
0.15
0.17
0.19
0.22
0.25
0.29
0.33
0.37
0.41
0.46
0.51
0.55
0.61
0.66
0.72
0.78
0.84
0.92
0.99
1.08
1.17
1.28
1.41
1.56
1.74
1.91
2.08
2.23
2.35
2.48
2.64
2.87
3.18
3.57
4.01
4.46
4.89
5.30
5.73
6.20
6.76
7.44
8.21
9.02
9.81
10.52
11.14
11.75
12.45
13.34
14.47
15.78
17.10
18.26
19.08
19.47
19.50
19.30
18.99
18.56
17.80
16.33
13.76
9.82
4.56
-1.58
-7.93
-13.79
-18.74
-22.74
-26.15
-29.50
-33.19
-37.24
-41.23
-44.46
-46.37
-46.69
-45.70
-44.11
-42.71
-42.22
-43.19
-45.86
-50.08
-54.97
-58.69
-58.77
-52.93
-40.24
-21.93
-1.29
17.50
30.97
37.70
38.55
35.89
32.15
28.80
26.08
23.55
20.84
18.13
15.97
14.85
14.70
14.95
14.84
13.82
11.91
9.62
7.56
6.17
5.57
5.47
5.39
4.92
3.77
1.89
-0.52
-3.14
-5.62
-7.67
-9.23
-10.48
-11.69
-13.00
-14.30
-14.96
-14.36
-12.14
-8.34
-3.39
2.04
7.36
12.11
16.03
18.95
20.73
21.29
20.69
19.20
17.23
15.17
13.22
11.43
9.72
7.95
6.06
4.12
2.26
0.63
-0.64
-1.53
-2.14
-2.68
-3.41
-4.46
-5.81
-7.33
-8.85
-10.37
-12.03
-14.08
-16.73
-19.97
-23.48
-26.73
-29.05
-29.85
-28.76
-25.65
-20.76
-14.56
-7.71
-0.88
5.38
10.72
14.99
18.13
20.11
20.97
20.82
19.86
18.43
16.88
15.53
14.56
14.00
13.82
13.88
13.98
13.97
13.65
12.91
11.65
9.88
7.63
5.05
2.28
-0.47
-3.10
-5.57
-8.00
-10.67
-13.84
-17.70
-22.14
-26.77
-30.93
-33.84
-34.86
-33.64
-30.24
-25.10
-18.83
-12.14
-5.57
0.45
5.67
9.93
13.17
15.43
16.85
17.66
18.06
18.18
17.96
17.32
16.19
14.61
12.77
10.96
9.38
8.17
7.36
6.88
6.62
6.38
5.94
5.03
3.51
1.35
-1.28
-4.22
-7.35
-10.61
-14.03
-17.60
-21.26
-24.91
-28.40
-31.55
-34.09
-35.64
-35.71
-33.84
-29.81
-23.80
-16.40
-8.50
-0.95
5.53
10.60
14.23
16.64
18.13
19.03
19.54
19.74
19.69
19.46
19.19
19.08
19.25
19.69
20.21
20.51
20.34
19.58
18.33
16.77
15.14
13.54
12.00
10.42
8.72
6.82
4.71
2.43
-0.04
-2.74
-5.84
-9.46
-13.65
-18.30
-23.11
-27.73
-31.80
-35.00
-37.05
-37.60
-36.31
-32.96
-27.51
-20.33
-12.08
-3.66
4.15
10.72
15.83
19.47
21.81
23.07
23.45
23.15
22.42
21.54
20.81
20.46
20.63
21.26
22.14
22.98
23.48
23.47
22.91
21.87
20.46
18.77
16.83
14.63
12.15
9.39
6.37
3.16
-0.14
-3.41
-6.54
-9.44
-12.12
-14.74
-17.53
-20.76
-24.60
-28.95
-33.42
-37.32
-39.85
-40.31
-38.28
-33.73
-27.04
-18.87
-10.09
-1.56
6.01
12.17
16.80
20.00
22.00
23.04
23.29
22.85
21.85
20.53
19.27
18.46
18.39
19.06
20.17
21.25
21.84
21.76
21.07
20.10
19.18
18.45
17.82
17.01
15.72
13.79
11.26
8.27
5.04
1.71
-1.64
-5.00
-8.32
-11.66
-15.07
-18.66
-22.54
-26.67
-30.82
-34.53
-37.18
-38.14
-36.94
-33.40
-27.71
-20.44
-12.40
-4.50
2.47
8.05
12.13
14.94
16.87
18.22
19.18
19.75
19.88
19.61
19.08
18.52
18.14
18.02
18.10
18.26
18.40
18.47
18.45
18.37
18.15
17.68
16.80
15.35
13.31
10.74
7.90
5.04
2.39
0.02
-2.20
-4.48
-7.11
-10.22
-13.86
-17.93
-22.27
-26.62
-30.64
-33.92
-35.95
-36.19
-34.29
-30.14
-24.00
-16.45
-8.33
-0.54
6.17
11.28
14.64
16.40
16.91
16.60
15.91
15.20
14.70
14.52
14.67
15.09
15.66
16.27
16.77
17.06
17.05
16.66
15.93
14.94
13.83
12.72
11.54
10.11
8.16
5.49
2.15
-1.61
-5.39
-8.88
-12.00
-14.92
-17.96
-21.41
-25.32
-29.45
-33.32
-36.34
-37.94
-37.69
-35.39
-31.10
-25.17
-18.16
-10.74
-3.54
2.93
8.32
12.49
15.44
17.30
18.31
18.77
19.00
19.23
19.55
19.91
20.13
20.11
19.83
19.44
19.13
19.07
19.22
19.46
19.49
19.10
18.25
17.07
15.85
14.81
13.93
12.96
11.46
9.10
5.79
1.80
-2.40
-6.34
-9.76
-12.68
-15.36
-18.15
-21.30
-24.92
-29.00
-33.32
-37.56
-41.22
-43.71
-44.39
-42.74
-38.59
-32.17
-24.18
-15.56
-7.27
-0.06
5.74
10.10
13.26
15.53
17.16
18.34
19.22
19.86
20.30
20.50
20.38
19.95
19.38
18.94
18.91
19.43
20.36
21.38
22.14
22.39
22.16
21.53
20.62
19.46
17.98
16.16
14.01
11.68
9.20
6.57
3.68
0.44
-3.12
-6.78
-10.26
-13.33
-15.94
-18.32
-20.86
-23.95
-27.75
-32.08
-36.40
-39.91
-41.75
-41.34
-38.45
-33.33
-26.63
-19.13
-11.59
-4.56
1.63
6.84
10.98
14.05
16.09
17.24
17.77
18.02
18.34
18.93
19.79
20.70
21.37
21.56
21.25
20.67
20.15
19.93
20.07
20.35
20.47
20.14
19.29
17.99
16.50
15.05
13.73
12.56
11.39
10.07
8.48
6.55
4.30
1.79
-0.88
-3.62
-6.33
-8.90
-11.29
-13.57
-15.94
-18.71
-22.20
-26.49
-31.33
-36.13
-40.11
-42.51
-42.86
-41.01
-37.12
-31.50
-24.58
-16.90
-9.04
-1.71
4.49
9.21
12.40
14.34
15.45
16.11
16.52
16.75
16.80
16.75
16.70
16.81
17.09
17.46
17.81
18.06
18.27
18.56
18.97
19.34
19.36
18.71
17.26
15.19
12.90
10.77
8.99
7.43
5.73
3.55
0.72
-2.61
-6.11
-9.39
-12.18
-14.41
-16.20
-17.76
-19.35
-21.21
-23.53
-26.32
-29.41
-32.36
-34.47
-35.06
-33.60
-30.00
-24.54
-17.89
-10.84
-4.12
1.80
6.66
10.44
13.20
15.09
16.22
16.70
16.71
16.44
16.09
15.82
15.68
15.59
15.43
15.09
14.62
14.18
13.92
13.98
14.26
14.55
14.59
14.12
13.04
11.36
9.19
6.75
4.27
1.94
-0.11
-1.95
-3.76
-5.75
-8.08
-10.75
-13.64
-16.58
-19.51
-22.50
-25.65
-28.95
-32.14
-34.64
-35.81
-35.14
-32.51
-28.25
-23.00
-17.41
-11.96
-6.82
-2.00
2.52
6.59
9.95
12.37
13.78
14.39
14.53
14.56
14.69
14.98
15.35
15.69
15.95
16.14
16.29
16.43
16.54
16.57
16.45
16.13
15.56
14.76
13.75
12.54
11.12
9.46
7.50
5.21
2.62
-0.18
-3.08
-5.99
-8.82
-11.45
-13.82
-15.85
-17.55
-19.04
-20.57
-22.45
-24.94
-28.16
-31.97
-35.91
-39.31
-41.36
-41.36
-38.95
-34.23
-27.85
-20.77
-13.92
-7.94
-2.99
1.09
4.58
7.63
10.21
12.20
13.53
14.29
14.62
14.70
14.58
14.29
13.87
13.47
13.33
13.62
14.40
15.52
16.74
17.80
18.46
18.54
17.84
16.23
13.67
10.35
6.67
3.10
-0.01
-2.62
-5.04
-7.81
-11.39
-15.98
-21.37
-27.09
-32.59
-37.44
-41.52
-44.93
-47.99
-51.10
-54.66
-58.95
-63.93
-69.21
-73.98
-77.31
-78.44
-77.18
-73.89
-69.38
-64.50
-59.86
-55.71
-52.03
-48.77
-45.83
-43.02
-40.00
-36.33
-31.59
-25.61
-18.52
-10.64
-2.14
7.10
17.41
28.97
41.48
54.04
65.39
74.35
80.28
83.15
83.45
81.80
78.71
74.53
69.47
63.75
57.65
51.52
45.66
40.23
35.24
30.52
25.90
21.22
16.37
11.27
5.85
0.08
-5.98
-12.06
-17.66
-22.15
-24.86
-25.40
-23.66
-19.93
-14.75
-8.77
-2.72
2.74
7.04
9.83
11.10
11.11
10.32
9.18
7.93
6.64
5.26
3.74
2.16
0.57
-1.00
-2.65
-4.56
-6.91
-9.74
-12.96
-16.45
-20.13
-24.06
-28.40
-33.29
-38.71
-44.43
-49.96
-54.71
-58.18
-60.20
-60.98
-61.09
-61.18
-61.67
-62.58
-63.49
-63.73
-62.62
-59.72
-54.80
-47.90
-39.21
-29.18
-18.60
-8.58
-0.28
5.45
8.46
9.23
8.67
7.66
6.80
6.36
6.48
7.38
9.28
12.28
16.23
20.78
25.63
30.60
35.63
40.56
45.02
48.50
50.70
51.71
52.00
52.12
52.42
52.80
52.96
52.55
51.37
49.38
46.59
42.98
38.58
33.64
28.69
24.41
21.48
20.31
21.05
23.54
27.43
32.19
37.13
41.59
45.00
47.09
47.97
48.00
47.59
47.01
46.35
45.48
44.23
42.53
40.47
38.22
35.96
33.68
31.20
28.22
24.52
20.08
15.12
9.97
4.84
-0.25
-5.55
-11.34
-17.70
-24.45
-31.14
-37.34
-42.75
-47.35
-51.34
-54.97
-58.35
-61.48
-64.22
-66.34
-67.58
-67.69
-66.32
-63.22
-58.26
-51.63
-43.81
-35.55
-27.61
-20.61
-14.88
-10.44
-7.06
-4.36
-1.75
1.40
5.68
11.47
18.67
26.69
34.60
41.47
46.67
50.14
52.21
53.45
54.33
55.02
55.43
55.33
54.53
52.98
50.77
48.04
44.90
41.37
37.40
32.99
28.21
23.28
18.53
14.25
10.56
7.32
4.16
0.69
-3.36
-7.97
-12.73
-17.02
-20.14
-21.55
-20.95
-18.41
-14.33
-9.33
-4.10
0.76
4.88
8.13
10.55
12.24
13.28
13.78
13.88
13.78
13.72
13.82
14.02
14.14
13.99
13.48
12.77
12.09
11.69
11.65
11.84
11.99
11.87
11.29
10.19
8.61
6.64
4.38
1.96
-0.56
-3.19
-5.96
-8.92
-12.08
-15.40
-18.76
-21.94
-24.62
-26.33
-26.66
-25.27
-22.11
-17.48
-11.92
-6.09
-0.52
4.47
8.77
12.35
15.15
17.11
18.14
18.29
17.77
16.94
16.13
15.57
15.32
15.24
15.14
14.81
14.19
13.36
12.51
11.82
11.31
10.80
9.97
8.53
6.35
3.57
0.49
-2.52
-5.21
-7.53
-9.62
-11.77
-14.29
-17.34
-20.89
-24.64
-28.08
-30.61
-31.68
-30.95
-28.34
-24.06
-18.55
-12.38
-6.19
-0.51
4.24
7.92
10.58
12.41
13.70
14.68
15.54
16.40
17.30
18.22
19.05
19.62
19.81
19.65
19.33
19.17
19.39
19.99
20.72
21.20
21.16
20.55
19.52
18.26
16.86
15.24
13.24
10.82
8.10
5.39
2.98
1.05
-0.53
-2.00
-3.58
-5.44
-7.58
-9.99
-12.66
-15.55
-18.49
-21.10
-22.82
-23.08
-21.53
-18.25
-13.72
-8.65
-3.70
0.76
4.63
7.98
10.86
13.20
14.88
15.82
16.09
15.94
15.71
15.57
15.59
15.63
15.51
15.13
14.49
13.72
12.95
12.35
12.03
12.01
12.23
12.51
12.65
12.45
11.83
10.78
9.34
7.59
5.58
3.37
0.98
-1.57
-4.25
-7.00
-9.73
-12.27
-14.48
-16.26
-17.64
-18.87
-20.22
-22.03
-24.43
-27.35
-30.55
-33.63
-36.21
-37.90
-38.36
-37.32
-34.68
-30.58
-25.37
-19.60
-13.83
-8.55
-4.03
-0.32
2.71
5.25
7.44
9.36
10.97
12.25
13.15
13.71
14.00
14.10
14.15
14.24
14.54
15.15
16.12
17.35
18.59
19.55
19.91
19.59
18.61
17.15
15.42
13.58
11.71
9.84
7.99
6.13
4.27
2.45
0.67
-1.06
-2.78
-4.52
-6.31
-8.15
-10.01
-11.77
-13.42
-15.03
-16.80
-19.01
-21.83
-25.17
-28.62
-31.53
-33.23
-33.26
-31.59
-28.50
-24.53
-20.21
-15.90
-11.72
-7.66
-3.70
0.14
3.71
6.81
9.25
10.92
11.82
12.06
11.83
11.38
10.95
10.69
10.71
11.00
11.55
12.26
12.98
13.57
13.86
13.80
13.44
12.97
12.57
12.36
12.26
12.11
11.68
10.83
9.53
7.88
5.99
3.94
1.76
-0.51
-2.77
-4.83
-6.50
-7.70
-8.50
-9.13
-9.86
-10.89
-12.26
-13.87
-15.53
-17.17
-18.82
-20.59
-22.55
-24.57
-26.30
-27.23
-26.92
-25.18
-22.12
-18.13
-13.71
-9.32
-5.36
-2.03
0.56
2.42
3.63
4.29
4.55
4.51
4.29
4.05
3.98
4.28
5.05
6.20
7.48
8.54
9.14
9.25
9.07
8.92
8.98
9.26
9.52
9.46
8.85
7.68
6.12
4.38
2.61
0.82
-1.05
-3.03
-5.00
-6.72
-7.99
-8.77
-9.33
-10.12
-11.53
-13.72
-16.47
-19.26
-21.52
-22.88
-23.20
-22.57
-21.15
-19.05
-16.33
-13.08
-9.49
-5.81
-2.33
0.73
3.24
5.16
6.44
7.07
7.08
6.54
5.66
4.79
4.22
4.17
4.61
5.36
6.14
6.70
6.94
6.90
6.70
6.48
6.27
6.06
5.76
5.32
4.73
4.01
3.19
2.26
1.16
-0.23
-1.98
-4.09
-6.44
-8.83
-11.01
-12.80
-14.15
-15.18
-16.11
-17.22
-18.69
-20.53
-22.52
-24.31
-25.45
-25.57
-24.42
-21.99
-18.46
-14.22
-9.71
-5.37
-1.53
1.63
4.03
5.66
6.56
6.80
6.52
5.98
5.49
5.33
5.63
6.33
7.21
8.02
8.65
9.13
9.60
10.14
10.69
11.02
10.92
10.31
9.35
8.35
7.57
7.06
6.61
5.92
4.79
3.26
1.59
0.09
-1.10
-2.10
-3.14
-4.37
-5.75
-7.04
-8.04
-8.71
-9.28
-10.08
-11.36
-13.18
-15.41
-17.90
-20.54
-23.23
-25.76
-27.76
-28.75
-28.30
-26.30
-23.01
-18.96
-14.73
-10.74
-7.18
-4.07
-1.39
0.85
2.58
3.80
4.60
5.17
5.75
6.48
7.38
8.34
9.19
9.81
10.21
10.51
10.86
11.36
12.06
12.86
13.60
14.15
14.34
14.04
13.22
11.96
10.47
9.07
8.03
7.43
7.07
6.59
5.65
4.15
2.31
0.51
-0.90
-1.87
-2.60
-3.42
-4.57
-6.02
-7.54
-8.84
-9.74
-10.35
-10.91
-11.74
-13.08
-15.02
-17.44
-20.12
-22.77
-25.09
-26.82
-27.78
-27.75
-26.59
-24.21
-20.59
-15.99
-10.88
-5.87
-1.56
1.67
3.80
5.10
5.96
6.69
7.39
7.94
8.16
7.97
7.48
6.94
6.59
6.58
6.86
7.30
7.81
8.40
9.13
10.03
10.95
11.65
11.85
11.45
10.56
9.51
8.61
8.03
7.73
7.50
7.11
6.46
5.55
4.45
3.26
2.05
0.84
-0.36
-1.53
-2.65
-3.71
-4.80
-5.98
-7.33
-8.83
-10.35
-11.77
-12.95
-13.92
-14.83
-15.95
-17.50
-19.57
-22.02
-24.53
-26.64
-27.92
-27.94
-26.44
-23.39
-19.01
-13.85
-8.63
-4.06
-0.58
1.73
3.16
4.11
4.94
5.75
6.51
7.10
7.51
7.81
8.13
8.55
9.07
9.66
10.27
10.88
11.44
11.91
12.21
12.33
12.31
12.27
12.26
12.29
12.23
11.97
11.46
10.71
9.83
8.86
7.84
6.73
5.57
4.41
3.32
2.37
1.50
0.61
-0.43
-1.62
-2.93
-4.24
-5.51
-6.78
-8.17
-9.80
-11.69
-13.76
-15.86
-17.89
-19.81
-21.68
-23.54
-25.38
-26.98
-28.00
-28.03
-26.68
-23.79
-19.46
-14.12
-8.39
-2.96
1.63
5.10
7.42
8.74
9.33
9.44
9.28
8.99
8.66
8.34
8.11
8.04
8.21
8.62
9.19
9.77
10.18
10.38
10.47
10.65
11.15
11.95
12.87
13.56
13.69
13.09
11.82
10.12
8.24
6.44
4.88
3.57
2.43
1.29
-0.04
-1.69
-3.63
-5.71
-7.72
-9.49
-10.97
-12.21
-13.33
-14.49
-15.84
-17.47
-19.44
-21.65
-23.87
-25.74
-26.83
-26.80
-25.45
-22.77
-18.92
-14.25
-9.15
-4.05
0.64
4.62
7.69
9.77
10.86
11.07
10.59
9.80
9.09
8.76
8.90
9.31
9.69
9.81
9.69
9.59
9.85
10.65
11.91
13.32
14.51
15.16
15.16
14.53
13.36
11.72
9.69
7.38
4.95
2.61
0.53
-1.23
-2.79
-4.34
-6.13
-8.33
-10.91
-13.72
-16.52
-19.12
-21.48
-23.70
-25.88
-28.11
-30.23
-31.92
-32.76
-32.37
-30.50
-27.17
-22.62
-17.27
-11.61
-6.11
-1.13
3.13
6.60
9.25
11.13
12.30
12.89
13.10
13.16
13.35
13.81
14.54
15.42
16.23
16.83
17.21
17.52
17.95
18.61
19.42
20.12
20.38
19.97
18.85
17.18
15.26
13.38
11.72
10.30
9.09
7.92
6.65
5.10
3.12
0.66
-2.25
-5.45
-8.73
-11.86
-14.70
-17.24
-19.58
-21.89
-24.34
-27.07
-30.10
-33.30
-36.39
-38.93
-40.43
-40.50
-38.89
-35.60
-30.83
-24.92
-18.30
-11.43
-4.82
1.05
5.80
9.23
11.43
12.70
13.44
14.07
14.78
15.59
16.40
17.09
17.65
18.18
18.83
19.72
20.88
22.26
23.73
25.12
26.28
27.01
27.18
26.73
25.71
24.26
22.61
20.96
19.41
17.96
16.52
15.00
13.31
11.46
9.45
7.32
5.08
2.75
0.36
-2.00
-4.23
-6.31
-8.28
-10.29
-12.57
-15.31
-18.63
-22.51
-26.76
-31.13
-35.29
-38.85
-41.31
-42.20
-41.15
-38.01
-32.97
-26.52
-19.36
-12.18
-5.51
0.31
5.15
9.01
11.94
14.02
15.36
16.13
16.51
16.71
16.97
17.47
18.37
19.70
21.40
23.30
25.19
26.84
28.08
28.82
29.10
29.02
28.77
28.47
28.18
27.85
27.34
26.51
25.21
23.37
20.99
18.20
15.18
12.18
9.44
7.14
5.30
3.78
2.37
0.83
-1.05
-3.37
-6.16
-9.36
-12.81
-16.34
-19.78
-23.08
-26.34
-29.76
-33.49
-37.45
-41.19
-43.97
-45.00
-43.73
-40.02
-34.23
-27.03
-19.28
-11.67
-4.76
1.19
6.06
9.91
12.87
15.08
16.73
17.99
18.98
19.77
20.38
20.78
20.99
21.09
21.24
21.65
22.49
23.81
25.48
27.21
28.64
29.49
29.62
29.09
28.08
26.76
25.23
23.56
21.73
19.80
17.80
15.81
13.81
11.75
9.51
7.06
4.45
1.80
-0.75
-3.14
-5.42
-7.71
-10.13
-12.72
-15.50
-18.49
-21.73
-25.33
-29.33
-33.58
-37.75
-41.28
-43.58
-44.14
-42.70
-39.28
-34.15
-27.71
-20.47
-12.97
-5.75
0.73
6.06
10.03
12.65
14.03
14.49
14.36
14.04
13.85
14.03
14.62
15.47
16.34
17.04
17.51
17.86
18.25
18.80
19.44
19.99
20.25
20.11
19.57
18.69
17.58
16.31
14.95
13.55
12.10
10.54
8.70
6.43
3.71
0.70
-2.32
-5.10
-7.55
-9.78
-12.06
-14.66
-17.74
-21.26
-25.01
-28.63
-31.69
-33.71
-34.25
-32.99
-29.84
-25.03
-19.01
-12.40
-5.83
0.19
5.26
9.17
11.87
13.44
14.07
14.08
13.75
13.36
13.09
12.97
12.97
13.01
13.05
13.05
13.04
13.05
13.12
13.28
13.48
13.60
13.51
13.05
12.12
10.72
8.92
6.88
4.75
2.58
0.34
-2.07
-4.77
-7.82
-11.18
-14.73
-18.31
-21.89
-25.45
-29.01
-32.42
-35.32
-37.13
-37.24
-35.26
-31.18
-25.39
-18.57
-11.42
-4.51
1.77
7.17
11.51
14.67
16.66
17.67
18.08
18.28
18.56
19.00
19.48
19.81
19.84
19.56
19.10
18.69
18.46
18.44
18.51
18.44
18.04
17.23
16.05
14.63
13.09
11.41
9.51
7.24
4.57
1.58
-1.52
-4.53
-7.35
-9.97
-12.52
-15.19
-18.17
-21.56
-25.43
-29.63
-33.87
-37.65
-40.39
-41.55
-40.76
-37.89
-33.12
-26.86
-19.68
-12.24
-5.16
1.09
6.26
10.33
13.41
15.65
17.17
18.05
18.42
18.47
18.51
18.76
19.35
20.24
21.20
22.04
22.60
22.90
23.05
23.22
23.54
24.03
24.62
25.14
25.35
25.00
23.93
22.09
19.60
16.58
13.23
9.69
6.12
2.66
-0.57
-3.49
-6.16
-8.66
-11.19
-13.93
-17.07
-20.77
-25.14
-30.15
-35.54
-40.74
-44.91
-47.18
-46.90
-43.93
-38.63
-31.74
-24.16
-16.67
-9.83
-3.94
0.94
4.95
8.29
11.16
13.69
15.92
17.83
19.38
20.60
21.50
22.16
22.65
23.07
23.51
24.12
24.96
26.05
27.24
28.35
29.16
29.52
29.36
28.61
27.20
25.05
22.23
18.94
15.57
12.50
10.05
8.20
6.71
5.11
2.95
-0.04
-3.83
-8.07
-12.29
-16.05
-19.16
-21.71
-24.01
-26.46
-29.37
-32.81
-36.61
-40.40
-43.63
-45.67
-45.92
-43.93
-39.55
-33.04
-25.01
-16.33
-7.84
-0.23
6.06
10.85
14.17
16.25
17.48
18.33
19.20
20.31
21.68
23.11
24.35
25.30
25.97
26.52
27.09
27.70
28.23
28.54
28.53
28.24
27.76
27.10
26.19
24.86
23.02
20.71
18.14
15.55
13.13
10.89
8.75
6.52
4.08
1.39
-1.55
-4.65
-7.83
-10.94
-13.80
-16.30
-18.48
-20.63
-23.22
-26.61
-30.85
-35.55
-39.89
-42.89
-43.78
-42.18
-38.18
-32.19
-24.84
-16.84
-8.94
-1.84
3.88
7.93
10.37
11.70
12.51
13.30
14.24
15.13
15.70
15.76
15.40
14.94
14.74
14.97
15.57
16.31
16.93
17.33
17.49
17.49
17.35
16.97
16.17
14.80
12.80
10.33
7.67
5.11
2.84
0.86
-1.01
-3.04
-5.40
-8.13
-11.18
-14.48
-18.00
-21.65
-25.28
-28.49
-30.74
-31.46
-30.25
-27.05
-22.16
-16.07
-9.40
-2.70
3.57
9.03
13.42
16.61
18.59
19.53
19.69
19.34
18.69
17.93
17.17
16.53
16.10
15.87
15.75
15.57
15.18
14.51
13.68
12.90
12.35
12.05
11.80
11.24
10.03
8.01
5.26
2.08
-1.15
-4.17
-6.87
-9.36
-11.85
-14.55
-17.63
-21.16
-25.13
-29.36
-33.52
-37.08
-39.45
-40.06
-38.61
-35.12
-29.93
-23.60
-16.73
-9.87
-3.41
2.33
7.09
10.73
13.19
14.64
15.37
15.80
16.24
16.85
17.59
18.32
18.89
19.22
19.34
19.41
19.55
19.78
20.05
20.24
20.27
20.08
19.63
18.85
17.59
15.78
13.42
10.69
7.87
5.21
2.84
0.70
-1.34
-3.40
-5.53
-7.67
-9.78
-11.86
-14.02
-16.37
-18.96
-21.78
-24.78
-27.93
-31.17
-34.39
-37.28
-39.35
-39.97
-38.68
-35.34
-30.21
-23.86
-16.99
-10.21
-3.97
1.42
5.82
9.17
11.52
13.08
14.15
15.01
15.88
16.82
17.70
18.37
18.76
18.88
18.89
18.96
19.23
19.74
20.43
21.16
21.82
22.30
22.55
22.50
22.13
21.39
20.24
18.66
16.68
14.42
12.01
9.62
7.35
5.25
3.32
1.55
-0.12
-1.75
-3.42
-5.25
-7.32
-9.71
-12.37
-15.18
-17.93
-20.46
-22.75
-25.04
-27.65
-30.86
-34.57
-38.24
-41.01
-41.95
-40.50
-36.65
-30.91
-24.11
-17.06
-10.32
-4.20
1.16
5.67
9.21
11.74
13.32
14.18
14.65
14.97
15.29
15.55
15.67
15.60
15.43
15.39
15.70
16.44
17.50
18.60
19.38
19.59
19.19
18.28
17.11
15.92
14.83
13.84
12.79
11.47
9.75
7.67
5.47
3.44
1.81
0.56
-0.54
-1.84
-3.57
-5.77
-8.25
-10.76
-13.10
-15.20
-17.09
-18.82
-20.45
-22.07
-23.86
-26.01
-28.66
-31.70
-34.68
-36.89
-37.56
-36.12
-32.44
-26.86
-20.10
-13.02
-6.39
-0.70
3.85
7.30
9.84
11.68
13.01
13.97
14.61
14.93
14.94
14.64
14.14
13.63
13.30
13.30
13.63
14.13
14.63
14.99
15.16
15.21
15.16
14.94
14.47
13.68
12.59
11.36
10.17
9.11
8.08
6.90
5.35
3.37
1.08
-1.33
-3.60
-5.56
-7.15
-8.40
-9.48
-10.61
-12.03
-13.96
-16.51
-19.64
-23.15
-26.63
-29.61
-31.63
-32.31
-31.46
-29.06
-25.30
-20.54
-15.21
-9.73
-4.48
0.31
4.41
7.68
10.02
11.37
11.78
11.44
10.62
9.67
8.90
8.50
8.56
9.03
9.77
10.59
11.33
11.88
12.22
12.44
12.61
12.78
12.87
12.70
12.06
10.79
8.87
6.45
3.77
1.11
-1.29
-3.31
-4.99
-6.48
-8.02
-9.85
-12.12
-14.86
-17.93
-21.10
-24.13
-26.74
-28.64
-29.48
-28.90
-26.64
-22.74
-17.58
-11.87
-6.33
-1.54
2.27
5.17
7.34
8.86
9.67
9.71
9.05
8.01
7.08
6.69
7.00
7.80
8.66
9.17
9.13
8.65
8.08
7.77
7.89
8.38
8.99
9.45
9.58
9.36
8.79
7.88
6.58
4.82
2.59
-0.00
-2.76
-5.42
-7.80
-9.83
-11.63
-13.43
-15.51
-18.08
-21.20
-24.68
-28.11
-30.94
-32.67
-32.89
-31.47
-28.44
-24.02
-18.54
-12.50
-6.46
-0.98
3.53
6.93
9.33
10.97
12.15
13.04
13.68
14.05
14.17
14.11
13.99
13.91
13.93
14.04
14.23
14.52
14.91
15.40
15.91
16.28
16.29
15.74
14.57
12.91
11.01
9.17
7.57
6.22
5.00
3.71
2.23
0.58
-1.18
-2.91
-4.57
-6.21
-7.90
-9.70
-11.61
-13.60
-15.71
-18.05
-20.79
-24.09
-27.85
-31.67
-34.86
-36.68
-36.59
-34.45
-30.53
-25.37
-19.59
-13.68
-8.00
-2.77
1.78
5.48
8.20
10.00
11.11
11.90
12.70
13.66
14.69
15.58
16.09
16.13
15.80
15.36
15.06
15.06
15.35
15.81
16.30
16.76
17.16
17.49
17.68
17.59
17.06
16.03
14.50
12.58
10.48
8.38
6.42
4.70
3.27
2.06
0.90
-0.43
-2.19
-4.46
-7.16
-10.00
-12.68
-15.00
-16.97
-18.73
-20.50
-22.39
-24.45
-26.67
-29.05
-31.52
-33.90
-35.79
-36.61
-35.77
-32.95
-28.32
-22.50
-16.31
-10.49
-5.47
-1.37
1.90
4.47
6.41
7.81
8.78
9.47
10.08
10.72
11.38
11.99
12.48
12.92
13.45
14.22
15.30
16.59
17.86
18.89
19.47
19.55
19.17
18.42
17.40
16.18
14.76
13.13
11.33
9.43
7.57
5.84
4.25
2.72
1.13
-0.66
-2.69
-4.91
-7.19
-9.34
-11.23
-12.88
-14.44
-16.20
-18.48
-21.51
-25.23
-29.31
-33.11
-35.90
-37.03
-36.14
-33.25
-28.69
-22.99
-16.73
-10.43
-4.50
0.68
4.86
7.84
9.59
10.28
10.36
10.35
10.77
11.86
13.51
15.29
16.66
17.25
17.03
16.37
15.83
15.84
16.57
17.84
19.28
20.46
21.04
20.84
19.75
17.86
15.33
12.47
9.54
6.73
4.08
1.48
-1.14
-3.73
-6.12
-8.19
-9.86
-11.32
-12.91
-14.94
-17.62
-20.93
-24.63
-28.28
-31.30
-33.09
-33.12
-31.14
-27.24
-21.91
-15.82
-9.64
-3.90
1.05
5.01
7.88
9.64
10.46
10.62
10.49
10.40
10.49
10.69
10.84
10.78
10.48
10.02
9.57
9.28
9.24
9.43
9.75
10.10
10.36
10.44
10.23
9.65
8.59
7.00
4.89
2.42
-0.21
-2.79
-5.25
-7.73
-10.46
-13.70
-17.51
-21.67
-25.69
-28.94
-30.80
-30.80
-28.75
-24.77
-19.32
-13.02
-6.60
-0.72
4.14
7.78
10.18
11.48
11.93
11.79
11.39
11.02
10.82
10.78
10.70
10.35
9.61
8.60
7.61
6.99
6.93
7.30
7.79
8.02
7.70
6.73
5.13
2.99
0.36
-2.68
-6.01
-9.40
-12.62
-15.54
-18.24
-20.98
-24.06
-27.55
-31.18
-34.29
-36.06
-35.81
-33.21
-28.47
-22.17
-15.08
-7.94
-1.31
4.43
9.08
12.58
14.99
16.48
17.29
17.71
17.98
18.25
18.57
18.94
19.27
19.51
19.66
19.71
19.73
19.80
19.93
20.02
19.89
19.31
18.09
16.19
13.67
10.73
7.58
4.42
1.40
-1.43
-4.12
-6.83
-9.83
-13.43
-17.81
-22.91
-28.33
-33.41
-37.27
-39.12
-38.39
-34.94
-29.16
-21.83
-13.97
-6.51
-0.03
5.30
9.63
13.28
16.47
19.24
21.51
23.20
24.37
25.22
25.94
26.69
27.43
28.05
28.43
28.55
28.50
28.35
28.14
27.78
27.14
26.11
24.67
22.95
21.16
19.48
17.98
16.58
15.11
13.30
10.98
8.11
4.79
1.25
-2.21
-5.45
-8.42
-11.27
-14.20
-17.47
-21.19
-25.37
-29.78
-34.00
-37.39
-39.27
-39.04
-36.41
-31.50
-24.80
-17.11
-9.31
-2.14
3.93
8.74
12.42
15.24
17.50
19.37
20.94
22.24
23.28
24.13
24.87
25.57
26.20
26.73
27.12
27.42
27.74
28.18
28.76
29.39
29.86
29.94
29.46
28.39
26.78
24.72
22.32
19.61
16.63
13.46
10.24
7.15
4.40
2.10
0.20
-1.44
-3.12
-5.01
-7.22
-9.69
-12.31
-15.07
-18.08
-21.52
-25.53
-30.00
-34.52
-38.43
-40.91
-41.29
-39.21
-34.80
-28.61
-21.47
-14.23
-7.52
-1.72
3.09
7.02
10.24
12.87
15.03
16.81
18.30
19.64
20.92
22.14
23.24
24.12
24.69
24.93
24.90
24.75
24.69
24.88
25.39
26.12
26.77
26.96
26.37
24.88
22.64
20.01
17.44
15.25
13.56
12.25
11.01
9.55
7.65
5.26
2.52
-0.34
-3.06
-5.45
-7.47
-9.26
-11.06
-13.14
-15.72
-18.94
-22.76
-26.95
-31.10
-34.60
-36.77
-37.00
-34.96
-30.72
-24.85
-18.25
-11.86
-6.36
-2.05
1.21
3.83
6.22
8.64
11.03
13.14
14.66
15.43
15.50
15.12
14.60
14.18
13.96
14.00
14.30
14.89
15.76
16.81
17.77
18.29
18.06
16.98
15.20
13.10
11.06
9.34
7.98
6.80
5.56
4.03
2.12
-0.08
-2.38
-4.55
-6.47
-8.12
-9.64
-11.23
-13.09
-15.32
-17.95
-20.82
-23.63
-25.89
-26.98
-26.38
-23.88
-19.64
-14.26
-8.56
-3.26
1.18
4.66
7.30
9.29
10.77
11.76
12.23
12.20
11.78
11.20
10.72
10.57
10.82
11.43
12.19
12.91
13.43
13.77
14.02
14.23
14.34
14.16
13.47
12.16
10.33
8.25
6.23
4.52
3.14
1.94
0.64
-0.99
-3.02
-5.29
-7.53
-9.49
-11.04
-12.28
-13.45
-14.80
-16.49
-18.51
-20.75
-23.04
-25.20
-26.97
-28.03
-28.01
-26.64
-23.87
-19.97
-15.52
-11.12
-7.25
-4.13
-1.75
0.05
1.46
2.63
3.65
4.60
5.53
6.45
7.37
8.29
9.19
10.06
10.85
11.52
11.98
12.18
12.11
11.84
11.48
11.11
10.78
10.48
10.20
9.96
9.76
9.53
9.12
8.32
6.96
5.06
2.85
0.66
-1.18
-2.52
-3.39
-4.00
-4.59
-5.28
-6.08
-6.87
-7.56
-8.12
-8.70
-9.48
-10.64
-12.30
-14.41
-16.85
-19.43
-21.93
-24.04
-25.45
-25.82
-24.95
-22.86
-19.81
-16.24
-12.69
-9.54
-6.93
-4.84
-3.12
-1.64
-0.29
0.98
2.19
3.36
4.46
5.42
6.12
6.44
6.33
5.84
5.17
4.58
4.32
4.52
5.13
5.94
6.64
6.98
6.84
6.30
5.58
4.91
4.45
4.25
4.27
4.45
4.70
4.88
4.83
4.35
3.35
1.88
0.17
-1.49
-2.89
-3.96
-4.80
-5.54
-6.27
-6.97
-7.59
-8.16
-8.81
-9.78
-11.26
-13.26
-15.64
-18.05
-20.16
-21.63
-22.23
-21.80
-20.29
-17.80
-14.56
-10.96
-7.43
-4.32
-1.84
-0.03
1.21
2.04
2.58
2.91
3.06
3.10
3.06
2.98
2.85
2.68
2.48
2.33
2.36
2.63
3.11
3.63
4.00
4.06
3.88
3.65
3.67
4.08
4.83
5.61
6.01
5.72
4.65
2.97
1.00
-0.96
-2.66
-4.02
-5.03
-5.74
-6.20
-6.50
-6.78
-7.20
-7.89
-8.89
-10.12
-11.38
-12.38
-12.97
-13.10
-12.96
-12.84
-12.98
-13.46
-14.08
-14.44
-14.06
-12.68
-10.26
-7.05
-3.49
-0.00
3.16
5.87
8.12
9.83
10.86
11.05
10.41
9.16
7.71
6.53
5.93
5.88
6.17
6.47
6.57
6.43
6.14
5.81
5.55
5.33
5.15
4.94
4.65
4.20
3.51
2.59
1.49
0.30
-0.90
-2.11
-3.40
-4.90
-6.59
-8.32
-9.80
-10.79
-11.20
-11.18
-11.04
-11.17
-11.84
-13.11
-14.86
-16.86
-18.82
-20.52
-21.79
-22.47
-22.37
-21.32
-19.20
-16.17
-12.53
-8.73
-5.17
-2.09
0.48
2.63
4.46
5.97
7.08
7.73
7.99
7.99
7.93
7.93
8.03
8.17
8.30
8.39
8.49
8.61
8.70
8.69
8.45
7.86
6.87
5.54
4.02
2.54
1.28
0.39
-0.12
-0.40
-0.70
-1.29
-2.35
-3.95
-5.92
-8.01
-9.93
-11.48
-12.61
-13.49
-14.37
-15.49
-16.96
-18.65
-20.26
-21.44
-21.86
-21.34
-19.86
-17.50
-14.42
-10.84
-7.04
-3.34
-0.06
2.56
4.41
5.56
6.15
6.43
6.60
6.81
7.12
7.47
7.80
8.05
8.24
8.44
8.76
9.20
9.72
10.21
10.60
10.93
11.31
11.78
12.23
12.33
11.67
9.99
7.37
4.12
0.68
-2.59
-5.59
-8.38
-11.07
-13.75
-16.40
-18.96
-21.36
-23.55
-25.39
-26.61
-26.84
-25.72
-23.13
-19.21
-14.38
-9.20
-4.14
0.41
4.30
7.48
9.91
11.57
12.43
12.52
11.92
10.79
9.26
7.54
5.83
4.34
3.27
2.72
2.62
2.77
2.88
2.78
2.43
1.94
1.45
1.04
0.65
0.13
-0.72
-2.08
-4.11
-6.93
-10.60
-14.95
-19.48
-23.48
-26.16
-27.01
-25.91
-23.22
-19.50
-15.29
-10.96
-6.76
-2.94
0.21
2.33
3.27
3.09
2.10
0.67
-0.94
-2.60
-4.29
-5.93
-7.39
-8.55
-9.43
-10.16
-11.03
-12.16
-13.43
-14.52
-15.06
-14.91
-14.26
-13.66
-13.77
-15.14
-18.01
-22.19
-27.18
-32.32
-36.92
-40.39
-42.35
-42.54
-40.86
-37.32
-32.15
-25.80
-18.94
-12.23
-6.22
-1.12
3.13
6.72
9.74
12.14
13.76
14.49
14.42
13.89
13.33
13.14
13.42
14.06
14.82
15.43
15.79
15.84
15.62
15.17
14.49
13.52
12.22
10.55
8.47
5.91
2.74
-1.22
-6.10
-11.83
-18.03
-23.96
-28.70
-31.43
-31.57
-29.03
-24.13
-17.56
-10.06
-2.32
5.17
12.08
18.20
23.37
27.44
30.38
32.34
33.64
34.64
35.61
36.60
37.43
37.81
37.48
36.40
34.77
32.89
31.04
29.40
28.00
26.73
25.43
23.93
22.03
19.59
16.52
12.86
8.75
4.40
-0.04
-4.52
-9.17
-14.16
-19.60
-25.33
-30.88
-35.44
-38.13
-38.29
-35.70
-30.72
-24.15
-16.95
-9.93
-3.51
2.27
7.64
12.83
17.88
22.56
26.57
29.63
31.74
33.08
33.97
34.64
35.20
35.63
35.91
36.01
35.97
35.81
35.55
35.14
34.54
33.70
32.58
31.12
29.25
26.87
23.92
20.45
16.59
12.58
8.62
4.74
0.81
-3.41
-8.22
-13.74
-19.91
-26.41
-32.74
-38.34
-42.67
-45.27
-45.78
-44.00
-39.89
-33.70
-25.88
-17.15
-8.28
-0.00
7.20
13.11
17.77
21.38
24.18
26.35
27.93
28.91
29.28
29.13
28.58
27.80
26.96
26.15
25.46
25.04
25.01
25.41
26.13
26.80
26.94
26.14
24.21
21.33
17.86
14.19
10.59
7.10
3.60
-0.10
-4.19
-8.78
-13.90
-19.41
-24.96
-29.92
-33.45
-34.75
-33.28
-28.95
-22.25
-14.08
-5.55
2.32
8.82
13.67
16.98
19.14
20.60
21.68
22.49
22.96
22.95
22.43
21.50
20.34
19.20
18.21
17.48
17.03
16.84
16.78
16.66
16.20
15.15
13.36
10.88
7.89
4.64
1.36
-1.85
-4.99
-8.17
-11.54
-15.30
-19.58
-24.31
-29.17
-33.46
-36.31
-36.82
-34.52
-29.52
-22.51
-14.55
-6.72
0.24
6.02
10.70
14.54
17.82
20.68
23.09
24.97
26.21
26.84
26.93
26.60
25.99
25.21
24.37
23.61
23.03
22.73
22.69
22.75
22.61
21.89
20.27
17.61
13.99
9.74
5.31
1.09
-2.67
-5.92
-8.84
-11.68
-14.73
-18.22
-22.22
-26.58
-30.89
-34.45
-36.52
-36.41
-33.82
-28.91
-22.27
-14.71
-7.07
0.03
6.25
11.44
15.61
18.81
21.12
22.66
23.56
24.03
24.25
24.37
24.49
24.63
24.80
25.03
25.37
25.81
26.27
26.55
26.44
25.75
24.46
22.67
20.54
18.17
15.53
12.56
9.17
5.43
1.53
-2.25
-5.69
-8.67
-11.19
-13.45
-15.71
-18.28
-21.43
-25.25
-29.62
-34.11
-38.11
-40.89
-41.80
-40.43
-36.72
-30.97
-23.85
-16.19
-8.83
-2.43
2.66
6.43
9.15
11.25
13.15
15.11
17.12
19.01
20.55
21.58
22.08
22.20
22.15
22.17
22.36
22.74
23.23
23.71
24.06
24.21
24.08
23.63
22.83
21.66
20.15
18.35
16.31
14.17
12.02
9.95
7.96
5.95
3.78
1.35
-1.34
-4.13
-6.81
-9.18
-11.13
-12.75
-14.19
-15.62
-17.20
-19.04
-21.29
-24.09
-27.53
-31.38
-35.10
-37.87
-38.86
-37.56
-34.02
-28.83
-22.81
-16.76
-11.14
-6.06
-1.48
2.63
6.15
8.84
10.56
11.41
11.69
11.84
12.20
12.86
13.67
14.38
14.78
14.83
14.67
14.50
14.45
14.55
14.74
14.94
15.15
15.37
15.54
15.48
14.95
13.79
11.96
9.67
7.28
5.11
3.31
1.83
0.49
-0.82
-2.16
-3.47
-4.74
-6.04
-7.47
-9.09
-10.80
-12.42
-13.86
-15.21
-16.79
-18.97
-21.94
-25.54
-29.26
-32.38
-34.23
-34.43
-32.93
-29.99
-26.01
-21.48
-16.77
-12.18
-7.87
-3.98
-0.63
2.03
3.90
4.98
5.46
5.63
5.86
6.43
7.42
8.69
10.00
11.06
11.76
12.10
12.18
12.16
12.17
12.26
12.42
12.57
12.59
12.36
11.77
10.77
9.43
7.91
6.39
4.98
3.68
2.37
0.89
-0.86
-2.87
-4.96
-6.86
-8.32
-9.22
-9.70
-10.07
-10.75
-12.07
-14.13
-16.75
-19.57
-22.15
-24.08
-25.10
-25.02
-23.77
-21.35
-17.92
-13.82
-9.48
-5.39
-1.89
0.81
2.73
3.96
4.66
5.02
5.19
5.31
5.46
5.61
5.68
5.60
5.39
5.18
5.12
5.29
5.64
5.97
6.09
5.86
5.32
4.58
3.77
2.96
2.17
1.39
0.62
-0.13
-0.84
-1.54
-2.30
-3.24
-4.44
-5.92
-7.66
-9.58
-11.64
-13.75
-15.81
-17.63
-18.86
-19.18
-18.31
-16.25
-13.30
-9.89
-6.49
-3.39
-0.69
1.62
3.50
4.80
5.34
5.05
4.11
2.95
1.99
1.50
1.44
1.54
1.52
1.29
0.99
0.84
0.97
1.28
1.50
1.33
0.61
-0.59
-2.06
-3.52
-4.79
-5.83
-6.72
-7.60
-8.62
-9.87
-11.43
-13.29
-15.40
-17.58
-19.59
-21.11
-21.77
-21.28
-19.51
-16.62
-13.00
-9.21
-5.77
-2.99
-0.91
0.62
1.85
2.93
3.85
4.54
4.92
5.00
4.85
4.58
4.25
3.90
3.56
3.31
3.27
3.53
4.05
4.63
4.99
4.91
4.31
3.33
2.22
1.20
0.29
-0.63
-1.73
-3.14
-4.78
-6.48
-8.14
-9.79
-11.61
-13.79
-16.26
-18.70
-20.53
-21.17
-20.29
-17.90
-14.36
-10.20
-5.94
-1.94
1.52
4.32
6.41
7.82
8.69
9.21
9.55
9.77
9.79
9.47
8.71
7.56
6.24
5.08
4.36
4.20
4.55
5.18
5.80
6.16
6.11
5.60
4.70
3.55
2.29
1.08
-0.05
-1.11
-2.20
-3.38
-4.66
-5.99
-7.30
-8.52
-9.64
-10.76
-11.99
-13.45
-15.20
-17.21
-19.31
-21.22
-22.59
-23.07
-22.43
-20.66
-17.91
-14.49
-10.71
-6.83
-3.05
0.47
3.56
6.03
7.74
8.68
9.01
9.00
8.98
9.14
9.50
9.91
10.19
10.23
10.05
9.75
9.40
9.05
8.65
8.18
7.72
7.41
7.39
7.63
7.96
8.04
7.61
6.51
4.84
2.88
0.93
-0.76
-2.10
-3.18
-4.18
-5.22
-6.38
-7.64
-8.95
-10.28
-11.64
-13.08
-14.66
-16.43
-18.40
-20.53
-22.70
-24.65
-25.98
-26.25
-25.11
-22.49
-18.66
-14.12
-9.46
-5.10
-1.24
2.05
4.72
6.69
7.91
8.39
8.37
8.15
8.05
8.21
8.54
8.87
8.99
8.87
8.58
8.32
8.23
8.38
8.71
9.10
9.38
9.43
9.21
8.75
8.15
7.49
6.83
6.15
5.36
4.39
3.17
1.73
0.08
-1.73
-3.70
-5.76
-7.87
-9.88
-11.72
-13.35
-14.87
-16.47
-18.36
-20.62
-23.15
-25.66
-27.66
-28.65
-28.20
-26.12
-22.51
-17.75
-12.40
-7.01
-2.05
2.20
5.67
8.35
10.27
11.45
11.97
11.96
11.66
11.31
11.12
11.14
11.33
11.60
11.88
12.19
12.55
12.95
13.29
13.41
13.16
12.48
11.49
10.44
9.63
9.27
9.32
9.52
9.38
8.40
6.26
3.02
-0.91
-4.90
-8.37
-11.05
-13.05
-14.76
-16.61
-18.80
-21.18
-23.34
-24.78
-25.12
-24.19
-21.98
-18.54
-13.94
-8.32
-1.94
4.63
10.66
15.44
18.49
19.81
19.75
18.89
17.71
16.50
15.31
14.13
13.01
12.01
11.21
10.61
10.07
9.47
8.75
8.03
7.50
7.26
7.22
7.10
6.54
5.25
3.19
0.51
-2.53
-5.63
-8.58
-11.33
-13.94
-16.64
-19.66
-23.15
-27.09
-31.19
-34.95
-37.73
-38.98
-38.35
-35.77
-31.46
-25.81
-19.30
-12.52
-6.00
-0.24
4.42
7.85
10.11
11.39
11.95
11.98
11.65
11.10
10.46
9.87
9.42
9.18
9.17
9.38
9.80
10.46
11.35
12.42
13.53
14.48
14.99
14.80
13.74
11.77
9.08
5.92
2.65
-0.50
-3.50
-6.52
-9.84
-13.68
-18.07
-22.77
-27.33
-31.15
-33.63
-34.25
-32.69
-28.84
-22.95
-15.58
-7.55
0.25
7.07
12.54
16.68
19.82
22.39
24.59
26.40
27.60
28.00
27.65
26.81
25.95
25.43
25.39
25.73
26.14
26.35
26.22
25.78
25.15
24.43
23.57
22.42
20.77
18.49
15.58
12.18
8.53
4.83
1.23
-2.22
-5.52
-8.71
-11.86
-15.04
-18.35
-21.90
-25.68
-29.58
-33.23
-36.10
-37.56
-37.11
-34.50
-29.91
-23.84
-17.02
-10.17
-3.84
1.64
6.17
9.73
12.40
14.25
15.42
16.07
16.37
16.45
16.38
16.13
15.67
15.02
14.26
13.61
13.30
13.51
14.23
15.23
16.10
16.41
15.83
14.37
12.25
9.83
7.37
4.94
2.40
-0.46
-3.78
-7.55
-11.55
-15.48
-18.98
-21.64
-23.08
-22.95
-21.03
-17.35
-12.24
-6.25
-0.06
5.72
10.64
14.51
17.28
19.04
19.94
20.12
19.77
19.05
18.13
17.15
16.17
15.17
14.12
13.01
11.89
10.92
10.23
9.86
9.72
9.53
8.98
7.88
6.19
4.09
1.76
-0.68
-3.30
-6.29
-9.85
-14.04
-18.67
-23.37
-27.60
-30.75
-32.26
-31.67
-28.79
-23.74
-17.04
-9.51
-2.06
4.50
9.74
13.62
16.42
18.55
20.28
21.63
22.42
22.46
21.67
20.20
18.42
16.72
15.43
14.74
14.61
14.83
15.06
14.93
14.17
12.72
10.76
8.64
6.65
4.89
3.18
1.18
-1.47
-4.93
-9.11
-13.70
-18.35
-22.70
-26.34
-28.83
-29.73
-28.66
-25.55
-20.67
-14.67
-8.30
-2.23
3.12
7.56
11.09
13.75
15.68
17.01
17.94
18.66
19.27
19.77
20.03
19.92
19.42
18.67
17.82
17.01
16.30
15.68
15.11
14.60
14.12
13.58
12.82
11.61
9.82
7.46
4.71
1.80
-1.08
-3.90
-6.76
-9.78
-13.01
-16.36
-19.67
-22.71
-25.25
-27.05
-27.85
-27.36
-25.36
-21.81
-16.86
-10.96
-4.72
1.24
6.47
10.68
13.87
16.19
17.84
19.01
19.89
20.60
21.20
21.67
21.93
21.84
21.33
20.39
19.18
17.90
16.80
16.06
15.75
15.76
15.89
15.87
15.44
14.45
12.90
10.93
8.80
6.81
5.12
3.73
2.45
1.01
-0.79
-3.00
-5.53
-8.14
-10.60
-12.74
-14.55
-16.17
-17.91
-20.09
-22.92
-26.34
-29.97
-33.08
-34.83
-34.52
-31.87
-27.12
-21.02
-14.47
-8.30
-2.98
1.39
4.94
7.80
10.04
11.59
12.42
12.59
12.35
11.98
11.75
11.77
12.03
12.50
13.15
14.00
15.01
16.07
16.99
17.53
17.56
17.07
16.24
15.25
14.28
13.40
12.59
11.82
10.99
10.04
8.89
7.53
6.00
4.37
2.77
1.27
-0.12
-1.48
-2.92
-4.50
-6.24
-8.04
-9.80
-11.43
-12.88
-14.21
-15.49
-16.81
-18.27
-20.00
-22.10
-24.59
-27.28
-29.75
-31.37
-31.49
-29.70
-26.01
-20.89
-15.11
-9.44
-4.43
-0.37
2.76
5.09
6.74
7.79
8.37
8.59
8.67
8.79
9.07
9.50
9.99
10.43
10.71
10.85
10.90
10.92
11.00
11.18
11.47
11.82
12.13
12.24
12.06
11.55
10.78
9.88
9.01
8.25
7.55
6.78
5.82
4.59
3.16
1.68
0.30
-0.96
-2.16
-3.42
-4.81
-6.27
-7.66
-8.91
-10.11
-11.46
-13.22
-15.42
-17.88
-20.23
-22.14
-23.49
-24.35
-24.89
-25.13
-24.91
-23.90
-21.84
-18.68
-14.59
-9.96
-5.17
-0.63
3.36
6.51
8.63
9.72
9.91
9.52
8.91
8.36
8.04
7.95
8.00
8.07
8.05
7.89
7.64
7.37
7.21
7.24
7.51
7.93
8.35
8.59
8.44
7.81
6.72
5.35
3.97
2.89
2.23
1.96
1.83
1.47
0.62
-0.84
-2.80
-4.97
-7.02
-8.74
-10.03
-10.93
-11.61
-12.26
-13.00
-13.92
-14.99
-16.11
-17.18
-18.03
-18.50
-18.39
-17.50
-15.76
-13.23
-10.14
-6.86
-3.74
-1.00
1.27
3.02
4.24
4.92
5.07
4.88
4.58
4.44
4.59
4.96
5.32
5.46
5.29
4.91
4.57
4.45
4.61
4.94
5.29
5.49
5.51
5.38
5.13
4.77
4.24
3.45
2.25
0.55
-1.58
-3.91
-6.12
-7.83
-8.86
-9.28
-9.38
-9.59
-10.29
-11.68
-13.79
-16.39
-19.15
-21.61
-23.33
-23.89
-23.11
-21.00
-17.82
-13.96
-9.84
-5.80
-2.07
1.18
3.86
5.91
7.30
8.06
8.27
8.08
7.69
7.30
7.09
7.13
7.37
7.70
7.97
8.14
8.17
8.07
7.88
7.63
7.39
7.28
7.37
7.60
7.79
7.62
6.88
5.56
3.88
2.23
0.92
0.05
-0.55
-1.15
-2.00
-3.21
-4.77
-6.54
-8.42
-10.33
-12.25
-14.18
-16.09
-18.00
-19.88
-21.71
-23.41
-24.77
-25.51
-25.31
-23.91
-21.31
-17.66
-13.36
-8.79
-4.31
-0.20
3.37
6.17
8.05
8.90
8.80
8.06
7.15
6.55
6.54
7.14
8.10
9.06
9.76
10.06
10.04
9.88
9.75
9.77
9.93
10.16
10.36
10.45
10.43
10.32
10.14
9.83
9.25
8.29
6.90
5.19
3.38
1.71
0.32
-0.77
-1.70
-2.62
-3.64
-4.85
-6.29
-7.97
-9.85
-11.83
-13.79
-15.65
-17.38
-19.04
-20.78
-22.67
-24.66
-26.60
-28.27
-29.44
-29.89
-29.45
-27.97
-25.35
-21.58
-16.84
-11.44
-5.89
-0.76
3.39
6.22
7.64
7.94
7.60
7.23
7.22
7.72
8.58
9.50
10.20
10.51
10.50
10.34
10.25
10.41
10.89
11.61
12.47
13.27
13.84
14.02
13.72
12.88
11.52
9.74
7.74
5.80
4.22
3.21
2.76
2.73
2.80
2.60
1.88
0.49
-1.53
-3.98
-6.58
-9.03
-11.17
-13.01
-14.76
-16.65
-18.87
-21.39
-24.09
-26.76
-29.20
-31.24
-32.52
-32.58
-30.92
-27.28
-21.87
-15.40
-8.76
-2.76
2.22
6.15
9.17
11.39
12.77
13.32
13.15
12.61
12.08
11.85
12.01
12.45
13.07
13.83
14.78
15.91
17.12
18.18
18.80
18.85
18.33
17.42
16.32
15.23
14.25
13.40
12.59
11.78
10.92
10.07
9.32
8.68
8.07
7.29
6.18
4.68
2.91
1.11
-0.56
-2.16
-3.97
-6.30
-9.26
-12.53
-15.48
-17.35
-17.53
-15.74
-12.07
-6.90
-0.77
5.76
12.11
17.78
22.42
25.91
28.29
29.83
30.81
31.56
32.41
33.77
36.09
39.88
45.56
53.36
63.13
74.21
85.35
94.67
99.99
99.18
90.82
74.65
51.61
23.79
-6.19
-35.57
-61.92
-83.42
-99.04
-108.66
-112.95
-113.18
-110.83
-107.13
-102.82
-98.11
-92.91
-87.06
-80.52
-73.32
-65.60
-57.48
-49.17
-41.02
-33.44
-26.85
-21.48
-17.32
-14.25
-12.16
-11.16
-11.52
-13.55
-17.29
-22.35
-27.97
-33.16
-37.08
-39.23
-39.61
-38.57
-36.65
-34.36
-31.98
-29.56
-26.88
-23.72
-19.91
-15.55
-10.93
-6.44
-2.33
1.30
4.50
7.30
9.57
11.00
11.19
9.84
6.92
2.80
-1.88
-6.32
-9.79
-11.68
-11.63
-9.48
-5.25
0.83
8.35
16.73
25.30
33.38
40.43
46.04
50.07
52.56
53.78
54.05
53.72
52.97
51.79
50.06
47.57
44.31
40.48
36.35
32.13
27.77
23.01
17.55
11.31
4.46
-2.64
-9.75
-16.91
-24.46
-32.72
-41.61
-50.37
-57.60
-61.74
-61.65
-57.18
-49.38
-40.18
-31.73
-25.67
-22.62
-21.96
-22.05
-20.68
-15.69
-5.64
9.66
28.93
49.63
68.78
83.87
93.72
98.67
100.16
99.96
99.36
98.80
98.04
96.52
93.76
89.61
84.15
77.66
70.56
63.40
56.89
51.69
48.25
46.54
46.03
45.85
45.10
43.13
39.67
34.77
28.67
21.67
14.07
6.17
-1.71
-9.36
-16.86
-24.46
-32.47
-40.98
-49.62
-57.77
-64.85
-70.75
-75.95
-81.30
-87.43
-94.34
-101.21
-106.71
-109.65
-109.43
-106.34
-101.34
-95.71
-90.49
-86.22
-82.93
-80.23
-77.61
-74.72
-71.54
-68.29
-65.37
-63.15
-61.94
-61.83
-62.64
-63.88
-64.59
-63.42
-58.94
-50.13
-36.78
-19.69
-0.50
18.88
36.85
52.47
65.45
75.93
84.15
90.34
94.61
97.02
97.65
96.60
94.03
90.20
85.42
79.97
74.02
67.50
60.28
52.38
44.15
36.33
29.91
25.77
24.41
25.84
29.68
35.24
41.83
48.64
54.72
59.07
60.74
59.08
53.97
45.95
36.07
25.69
16.09
8.20
2.44
-1.20
-3.08
-3.70
-3.51
-2.85
-1.93
-0.78
0.65
2.42
4.44
6.45
8.02
8.72
8.29
6.71
4.15
0.86
-2.98
-7.35
-12.25
-17.63
-23.20
-28.46
-32.86
-35.94
-37.45
-37.36
-35.69
-32.45
-27.63
-21.29
-13.74
-5.58
2.38
9.35
14.79
18.55
20.86
22.17
22.90
23.28
23.33
22.99
22.25
21.30
20.41
19.82
19.64
19.82
20.17
20.53
20.87
21.21
21.59
21.90
21.92
21.38
20.08
18.09
15.71
13.30
11.07
9.06
7.09
4.98
2.73
0.52
-1.35
-2.56
-2.90
-2.31
-0.85
1.22
3.49
5.42
6.52
6.68
6.25
5.96
6.57
8.54
11.80
15.88
20.24
24.47
28.43
31.99
34.86
36.49
36.28
33.92
29.62
24.11
18.40
13.39
9.62
7.15
5.70
4.80
4.06
3.14
1.89
0.24
-1.75
-3.99
-6.33
-8.66
-10.89
-13.01
-15.03
-16.92
-18.66
-20.22
-21.59
-22.86
-24.18
-25.73
-27.62
-29.86
-32.33
-34.78
-36.87
-38.22
-38.47
-37.41
-34.99
-31.30
-26.59
-21.20
-15.54
-9.97
-4.83
-0.37
3.26
6.02
8.03
9.42
10.39
11.13
11.81
12.58
13.48
14.50
15.48
16.34
17.00
17.50
17.89
18.22
18.43
18.46
18.29
17.95
17.55
17.14
16.73
16.21
15.43
14.31
12.91
11.35
9.85
8.51
7.34
6.20
4.88
3.20
1.09
-1.32
-3.81
-6.10
-8.03
-9.58
-10.83
-11.92
-12.98
-14.06
-15.25
-16.67
-18.47
-20.73
-23.40
-26.26
-28.94
-31.07
-32.33
-32.45
-31.28
-28.72
-24.86
-19.96
-14.47
-8.99
-4.06
-0.07
2.86
4.75
5.78
6.16
6.10
5.83
5.56
5.47
5.66
6.09
6.69
7.33
7.89
8.36
8.75
9.14
9.63
10.29
11.13
12.09
13.05
13.79
14.10
13.85
13.01
11.68
10.05
8.36
6.79
5.44
4.35
3.41
2.54
1.64
0.66
-0.41
-1.51
-2.62
-3.74
-4.89
-6.11
-7.40
-8.71
-10.00
-11.23
-12.49
-13.81
-15.28
-16.86
-18.47
-19.94
-21.16
-22.04
-22.52
-22.54
-21.98
-20.71
-18.62
-15.76
-12.34
-8.70
-5.18
-2.04
0.61
2.75
4.42
5.68
6.49
6.88
6.89
6.69
6.51
6.60
7.07
7.85
8.73
9.48
9.92
10.06
10.04
10.01
10.09
10.32
10.69
11.16
11.67
12.14
12.40
12.30
11.78
10.95
10.13
9.69
9.84
10.52
11.43
12.11
12.26
11.84
11.10
10.50
10.42
10.98
11.91
12.70
12.87
12.25
11.22
10.54
11.07
13.25
16.88
21.12
24.87
27.34
28.38
28.64
29.26
31.48
36.23
43.72
53.18
62.72
69.57
70.71
63.95
48.86
27.34
3.36
-18.08
-32.50
-37.44
-33.35
-23.49
-12.78
-6.08
-6.46
-14.26
-27.31
-42.01
-54.94
-64.11
-69.28
-71.38
-71.58
-70.54
-68.28
-64.72
-60.17
-55.59
-52.19
-50.84
-51.59
-53.55
-55.38
-55.89
-54.68
-52.27
-49.82
-48.43
-48.68
-50.38
-52.77
-55.04
-56.69
-57.74
-58.54
-59.44
-60.52
-61.56
-62.23
-62.20
-61.33
-59.58
-57.00
-53.56
-49.35
-44.54
-39.41
-34.31
-29.42
-24.71
-20.00
-15.03
-9.63
-3.79
2.41
8.86
15.52
22.37
29.32
36.16
42.56
48.21
52.90
56.53
59.17
60.93
61.95
62.37
62.40
62.33
62.52
63.29
64.75
66.67
68.49
69.40
68.56
65.45
60.05
52.92
45.10
37.76
31.81
27.68
25.20
23.86
23.03
22.20
21.12
19.70
18.01
16.09
14.03
11.86
9.64
7.39
5.09
2.69
0.19
-2.39
-4.97
-7.58
-10.35
-13.49
-17.18
-21.45
-26.08
-30.74
-35.13
-39.09
-42.58
-45.64
-48.24
-50.30
-51.77
-52.66
-53.07
-53.12
-52.83
-52.12
-50.81
-48.76
-46.02
-42.77
-39.32
-35.87
-32.49
-29.07
-25.43
-21.38
-16.88
-12.09
-7.35
-3.10
0.26
2.56
3.92
4.77
5.67
7.13
9.42
12.57
16.38
20.54
24.63
28.15
30.54
31.53
31.21
30.15
29.19
28.97
29.67
30.94
32.22
33.09
33.59
