1520261268.00
64.000000
-0.00
-0.00
-0.00
-0.00
-0.00
-0.00
-0.00
-0.00
-0.00
-0.00
0.00
0.01
0.01
-0.00
-0.03
-0.05
-0.05
0.00
0.13
0.36
0.66
1.01
1.37
1.72
2.06
2.40
2.79
3.24
3.80
4.42
5.06
5.66
6.20
6.68
7.15
7.68
8.31
9.14
10.09
11.04
11.88
12.56
13.14
13.76
14.65
15.96
17.91
20.32
22.90
25.38
27.58
29.57
31.68
34.32
37.81
42.54
48.15
54.10
59.83
64.97
69.58
74.14
79.34
85.71
93.76
103.00
112.62
121.73
129.77
136.75
143.30
150.75
157.77
166.64
177.95
191.79
206.97
220.57
228.25
225.36
208.53
176.87
132.76
80.05
23.07
-34.94
-92.44
-149.16
-205.23
-260.37
-313.74
-363.87
-409.83
-450.91
-486.50
-515.74
-537.23
-549.22
-549.96
-538.37
-514.21
-478.67
-433.88
-382.45
-327.02
-269.84
-212.63
-156.66
-102.95
-52.37
-5.90
35.58
71.43
101.35
125.50
144.38
158.69
169.15
176.37
180.75
182.57
182.07
179.51
175.23
169.65
163.18
156.15
148.81
141.30
133.69
126.02
118.33
110.69
103.16
95.80
88.68
81.83
75.25
68.95
62.95
57.25
51.86
46.78
42.03
37.59
33.45
29.61
26.07
22.81
19.83
17.11
14.67
12.48
10.54
8.83
7.35
6.07
4.97
4.05
3.27
2.62
2.09
1.65
1.30
1.01
0.79
0.61
0.47
0.37
0.28
0.23
0.18
0.15
0.13
0.13
0.13
0.14
0.16
0.18
0.21
0.24
0.28
0.32
0.36
0.41
0.46
0.50
0.55
0.61
0.66
0.72
0.78
0.84
0.92
1.00
1.08
1.18
1.29
1.41
1.55
1.70
1.87
2.06
2.28
2.51
2.77
3.06
3.37
3.72
4.10
4.51
4.96
5.45
5.97
6.54
7.15
7.79
8.49
9.23
10.01
10.84
11.71
12.63
13.60
14.63
15.72
16.88
18.09
19.36
20.65
21.94
23.13
24.16
24.90
25.23
25.03
24.20
22.67
20.41
17.44
13.82
9.69
5.24
0.67
-3.81
-7.96
-11.62
-14.63
-16.93
-18.51
-19.39
-19.66
-19.42
-18.74
-17.71
-16.41
-14.91
-13.31
-11.67
-10.02
-8.45
-6.93
-5.43
-3.89
-2.25
-0.51
1.31
3.16
5.04
6.81
8.49
10.15
11.92
13.89
16.07
18.36
20.66
22.89
24.79
26.40
27.93
29.69
31.91
34.57
37.48
40.30
42.81
44.50
45.41
45.94
46.64
47.90
49.74
51.73
53.22
53.74
52.48
49.38
44.88
39.50
33.44
26.17
16.29
1.37
-16.65
-37.96
-62.84
-91.14
-121.80
-152.43
-179.43
-198.71
-207.00
-202.96
-188.52
-167.34
-143.66
-120.82
-100.48
-82.86
-67.42
-53.81
-42.14
-33.26
-27.49
-24.31
-22.43
-20.49
-17.60
-13.84
-10.08
-7.52
-7.27
-9.54
-13.45
-17.41
-19.73
-19.12
-15.10
-7.98
1.37
11.69
21.87
31.10
38.86
44.92
49.19
51.65
52.41
51.61
49.63
46.96
44.25
41.94
40.16
38.67
36.98
34.74
31.90
28.91
26.38
24.79
24.17
24.07
23.77
22.58
20.10
16.28
11.37
5.87
0.44
-4.13
-7.21
-8.69
-9.13
-9.62
-11.25
-14.40
-18.42
-21.78
-22.70
-20.00
-13.57
-4.30
6.28
16.70
25.82
33.04
38.13
41.21
42.52
42.45
41.45
39.89
38.11
36.33
34.78
33.62
32.88
32.45
32.02
31.26
29.98
28.24
26.33
24.60
23.27
22.21
20.94
18.83
15.37
10.42
4.35
-2.04
-7.83
-12.44
-15.87
-18.67
-21.67
-25.51
-30.30
-35.52
-40.31
-43.75
-45.18
-44.30
-41.03
-35.46
-27.78
-18.48
-8.31
1.64
10.23
16.61
20.41
21.86
21.68
20.78
20.00
19.83
20.31
21.12
21.78
21.87
21.19
19.83
18.08
16.27
14.70
13.62
13.13
13.19
13.54
13.69
13.10
11.40
8.56
5.03
1.43
-1.66
-4.03
-5.90
-7.68
-9.74
-12.21
-14.95
-17.71
-20.34
-22.92
-25.62
-28.64
-32.05
-35.78
-39.67
-43.48
-46.87
-49.34
-50.20
-48.72
-44.44
-37.37
-28.17
-17.93
-7.78
1.34
9.02
15.21
20.07
23.78
26.43
28.06
28.77
28.72
28.20
27.45
26.68
25.98
25.35
24.80
24.32
23.93
23.64
23.39
23.09
22.63
21.93
20.99
19.85
18.53
17.03
15.34
13.48
11.55
9.69
7.98
6.32
4.49
2.22
-0.56
-3.71
-6.92
-9.85
-12.38
-14.66
-17.08
-20.05
-23.85
-28.49
-33.66
-38.77
-43.12
-45.93
-46.55
-44.57
-40.00
-33.27
-25.24
-16.98
-9.49
-3.50
0.69
3.29
4.76
5.71
6.64
7.86
9.43
11.23
12.95
14.30
15.01
15.00
14.42
13.58
12.89
12.66
13.04
13.92
14.98
15.86
16.19
15.79
14.70
13.15
11.45
9.89
8.63
7.59
6.57
5.29
3.57
1.40
-1.13
-3.85
-6.66
-9.55
-12.55
-15.69
-18.93
-22.25
-25.65
-29.17
-32.86
-36.55
-39.77
-41.75
-41.63
-38.81
-33.24
-25.50
-16.71
-8.09
-0.61
5.26
9.55
12.60
14.75
16.19
16.85
16.66
15.63
14.03
12.34
11.06
10.48
10.61
11.14
11.71
12.10
12.39
12.80
13.54
14.53
15.44
15.77
15.15
13.42
10.76
7.53
4.10
0.77
-2.23
-4.81
-6.92
-8.67
-10.35
-12.37
-15.12
-18.74
-22.95
-27.11
-30.35
-31.87
-31.16
-28.15
-23.19
-16.94
-10.12
-3.38
2.85
8.32
12.79
16.04
17.84
18.01
16.60
13.90
10.36
6.52
2.85
-0.17
-2.15
-2.68
-1.47
1.49
5.91
11.17
16.42
20.95
24.20
25.86
25.77
23.83
20.08
14.78
8.50
2.01
-3.93
-8.82
-12.62
-15.63
-18.32
-21.05
-23.94
-26.89
-29.58
-31.68
-32.77
-32.49
-30.54
-26.78
-21.43
-15.09
-8.62
-2.93
1.40
4.22
5.80
6.59
6.96
7.07
6.91
6.38
5.54
4.53
3.59
2.93
2.58
2.46
2.36
2.18
1.86
1.55
1.46
1.72
2.35
3.14
3.75
3.88
3.37
2.34
1.02
-0.28
-1.48
-2.75
-4.37
-6.61
-9.55
-13.04
-16.78
-20.59
-24.47
-28.60
-33.17
-38.12
-43.07
-47.23
-49.72
-49.80
-47.23
-42.38
-36.09
-29.47
-23.44
-18.53
-14.79
-11.91
-9.45
-7.11
-4.84
-2.88
-1.55
-1.08
-1.53
-2.73
-4.40
-6.27
-8.15
-9.86
-11.23
-12.06
-12.15
-11.41
-9.87
-7.69
-5.08
-2.22
0.78
3.87
6.99
9.97
12.58
14.54
15.63
15.84
15.36
14.49
13.46
12.25
10.59
8.03
4.24
-0.83
-6.86
-13.14
-18.84
-23.15
-25.42
-25.30
-22.75
-18.16
-12.28
-5.99
0.02
5.51
10.74
16.28
22.45
29.10
35.44
40.43
43.32
44.07
43.40
42.51
42.52
44.01
46.87
50.55
54.35
57.73
60.39
62.10
62.49
61.01
57.07
50.33
40.99
29.78
17.75
5.91
-5.05
-14.84
-23.55
-31.48
-39.06
-46.83
-55.34
-64.97
-75.86
-87.76
-100.02
-111.52
-120.65
-125.40
-123.70
-113.75
-94.55
-66.33
-30.75
9.25
49.95
87.51
118.89
142.29
157.49
165.54
168.21
167.21
163.61
157.67
149.19
137.97
124.20
108.43
91.18
72.47
51.89
28.64
2.12
-27.80
-60.49
-94.23
-126.11
-151.87
-166.53
-165.51
-146.35
-110.15
-62.05
-10.25
36.23
70.25
88.62
92.58
86.68
76.35
65.66
55.81
45.42
31.99
13.93
-8.11
-31.23
-51.39
-65.33
-71.75
-71.61
-67.35
-61.53
-55.94
-51.33
-47.93
-45.96
-46.00
-48.69
-54.21
-61.85
-69.97
-76.62
-80.31
-80.81
-79.25
-77.64
-77.98
-81.35
-87.46
-94.80
-101.31
-105.13
-105.20
-101.39
-94.39
-85.31
-75.22
-64.82
-54.19
-42.82
-29.89
-14.71
2.79
21.84
40.95
58.38
72.55
82.44
87.63
88.29
85.10
79.08
71.49
63.57
56.34
50.35
45.69
42.24
39.92
38.82
39.07
40.46
42.21
43.13
41.96
37.86
30.88
21.93
12.68
5.15
1.21
2.02
7.63
16.66
26.66
34.74
38.47
36.62
29.36
17.97
4.11
-10.75
-25.54
-39.53
-52.04
-62.37
-69.95
-74.51
-76.11
-75.09
-71.95
-67.26
-61.49
-54.93
-47.52
-38.84
-28.29
-15.68
-1.76
11.56
21.61
25.89
23.28
14.76
3.39
-6.67
-11.40
-8.11
4.22
24.93
52.16
83.30
115.34
145.27
170.51
189.41
201.55
207.82
209.81
209.02
206.01
200.16
190.07
174.12
151.21
120.77
82.61
36.80
-15.93
-73.32
-130.97
-182.47
-220.90
-241.03
-241.43
-225.20
-198.88
-169.99
-144.35
-124.57
-110.10
-98.68
-88.12
-77.26
-66.10
-55.05
-44.16
-32.82
-20.25
-6.00
9.55
25.35
40.16
52.94
63.21
70.90
76.14
79.09
79.97
79.14
77.08
74.39
71.56
68.92
66.68
65.06
64.38
64.99
67.05
70.27
73.81
76.41
76.80
74.21
68.66
60.93
52.19
43.48
35.25
27.32
19.14
10.29
0.84
-8.70
-17.55
-25.12
-31.27
-36.29
-40.74
-45.22
-50.12
-55.53
-61.24
-66.64
-70.97
-73.50
-73.81
-71.94
-68.38
-63.68
-58.23
-52.10
-45.17
-37.40
-29.16
-21.18
-14.44
-9.88
-8.17
-9.39
-12.77
-16.49
-17.90
-14.21
-3.51
14.16
36.51
59.62
79.39
92.96
99.61
100.50
97.73
93.15
87.73
81.51
74.09
65.21
55.03
44.11
33.12
22.58
12.73
3.61
-4.86
-12.66
-19.72
-26.01
-31.63
-36.86
-42.07
-47.44
-52.69
-57.00
-59.11
-57.74
-52.09
-42.30
-29.49
-15.46
-2.13
9.01
17.30
22.84
26.24
28.19
29.24
29.70
29.63
28.93
27.46
25.12
22.16
19.22
17.41
17.92
21.53
28.26
37.27
47.15
56.42
63.88
68.66
70.12
67.72
61.22
50.87
37.61
23.02
8.85
-3.40
-12.93
-19.65
-24.04
-27.02
-29.64
-32.96
-37.65
-43.81
-50.70
-56.98
-61.13
-62.02
-59.40
-53.87
-46.52
-38.37
-30.00
-21.51
-12.82
-3.85
5.20
13.96
22.13
29.70
36.85
43.71
50.25
56.13
60.86
63.98
65.27
64.76
62.61
59.08
54.54
49.45
44.29
39.44
34.89
30.19
24.62
17.47
8.55
-1.57
-11.64
-20.17
-26.11
-29.35
-30.92
-32.72
-36.75
-44.39
-55.87
-70.13
-85.25
-99.01
-109.47
-115.54
-117.07
-114.92
-110.73
-106.53
-104.21
-104.94
-108.88
-115.04
-121.63
-126.54
-127.95
-124.71
-116.67
-104.65
-90.00
-74.04
-57.49
-40.18
-21.18
0.60
25.84
54.35
85.05
116.14
145.56
171.30
191.79
206.19
214.60
218.03
217.97
215.56
210.88
202.79
189.41
169.08
141.11
106.04
65.18
20.00
-28.13
-77.79
-126.74
-171.31
-206.59
-227.26
-229.12
-210.43
-172.60
-119.96
-58.92
3.32
59.99
105.82
137.76
155.46
160.90
157.66
149.38
138.29
124.53
106.28
81.27
48.43
9.28
-32.10
-70.18
-99.84
-118.06
-124.59
-121.56
-112.37
-100.36
-87.98
-76.66
-67.14
-59.90
-55.49
-54.31
-56.37
-61.02
-67.12
-73.36
-78.77
-82.85
-85.38
-86.00
-83.93
-78.12
-67.79
-52.99
-34.91
-15.64
2.44
17.41
28.24
34.82
37.66
37.54
35.25
31.43
26.67
21.57
16.72
12.57
9.24
6.51
3.86
0.77
-3.10
-7.68
-12.69
-17.72
-22.35
-26.11
-28.24
-27.76
-23.81
-16.25
-6.17
4.07
11.52
13.78
10.11
1.84
-8.09
-16.27
-20.08
-18.39
-11.60
-1.10
11.43
24.36
36.17
45.44
50.90
51.77
48.18
41.32
33.09
25.47
19.79
16.26
14.14
12.27
9.72
6.15
1.85
-2.52
-6.33
-9.16
-10.85
-11.45
-11.08
-10.03
-8.68
-7.60
-7.32
-8.11
-9.84
-12.05
-14.23
-16.19
-18.22
-20.80
-24.12
-27.76
-30.51
-30.98
-28.22
-22.33
-14.44
-6.15
1.24
7.33
12.52
17.55
22.80
27.97
32.21
34.59
34.70
32.85
29.85
26.57
23.51
20.68
17.81
14.71
11.38
8.08
5.04
2.35
-0.14
-2.63
-5.31
-8.25
-11.44
-14.85
-18.41
-22.05
-25.56
-28.60
-30.81
-31.89
-31.70
-30.35
-28.24
-26.05
-24.59
-24.53
-25.95
-28.06
-29.26
-27.60
-21.59
-10.90
3.31
18.66
32.35
42.09
46.79
46.69
43.10
37.69
31.96
26.85
22.79
19.77
17.54
15.78
14.16
12.36
10.18
7.56
4.60
1.63
-0.91
-2.45
-2.45
-0.61
3.00
7.76
12.53
16.06
17.44
16.56
14.13
11.39
9.42
8.60
8.49
8.08
6.33
2.68
-2.79
-9.43
-16.25
-22.21
-26.44
-28.40
-27.94
-25.29
-21.00
-15.78
-10.39
-5.48
-1.51
1.35
3.15
4.08
4.43
4.41
4.19
3.92
3.75
3.91
4.58
5.91
7.83
10.10
12.36
14.35
15.89
16.97
17.64
17.91
17.76
17.18
16.23
15.03
13.82
12.89
12.51
12.81
13.76
15.06
16.20
16.54
15.33
12.05
6.63
-0.30
-7.48
-13.33
-16.55
-16.72
-14.49
-11.17
-8.01
-5.46
-2.88
0.96
7.14
15.82
25.99
35.83
43.37
47.22
46.94
43.07
36.96
30.36
25.04
22.36
22.85
26.04
30.61
34.66
36.38
34.41
28.14
17.77
4.12
-11.43
-27.23
-41.63
-53.31
-61.80
-67.76
-72.92
-79.44
-88.98
-101.70
-115.81
-128.09
-135.13
-135.21
-129.28
-121.04
-115.69
-118.03
-131.03
-155.47
-190.77
-235.79
-288.85
-346.71
-403.50
-450.72
-479.30
-482.65
-459.65
-415.16
-358.20
-298.22
-241.73
-190.98
-144.90
-101.34
-59.09
-18.44
19.69
54.96
88.29
121.43
155.86
191.93
228.84
265.17
300.13
334.07
368.29
403.93
440.73
476.30
506.46
526.37
532.15
521.91
496.05
457.26
410.12
360.85
316.77
284.97
270.45
274.09
291.66
314.57
332.63
337.41
324.84
295.98
255.69
210.19
164.75
122.49
84.45
50.37
19.52
-8.90
-35.82
-62.33
-89.51
-117.86
-147.38
-177.56
-207.42
-236.15
-263.42
-289.65
-316.26
-345.11
-377.43
-412.85
-448.43
-478.62
-496.59
-496.71
-476.67
-438.57
-387.60
-329.35
-268.42
-207.61
-148.05
-90.68
-37.30
9.19
45.37
68.89
79.98
80.71
74.30
64.61
55.01
47.48
43.97
44.34
43.68
40.23
35.57
31.64
30.08
31.41
34.71
38.18
39.93
39.18
37.29
36.42
38.62
45.31
56.56
71.05
86.44
99.93
109.52
114.91
116.69
115.66
112.64
108.38
103.75
100.00
98.23
98.87
101.28
103.37
102.60
97.53
88.82
78.79
70.14
64.35
61.09
58.92
56.19
52.19
47.46
43.13
39.84
37.04
33.18
26.67
16.89
4.62
-8.19
-19.33
-26.90
-29.63
-26.69
-17.68
-2.99
15.52
34.11
47.76
51.76
43.69
24.72
-0.85
-27.36
-50.15
-66.93
-77.85
-84.14
-86.85
-86.23
-82.10
-74.64
-64.87
-54.42
-44.96
-37.68
-33.21
-31.78
-33.30
-37.20
-42.38
-47.21
-50.13
-50.28
-47.92
-44.20
-40.63
-38.21
-37.10
-36.59
-35.67
-33.62
-30.32
-26.18
-21.70
-17.19
-12.62
-7.77
-2.40
3.46
9.50
15.18
19.93
23.38
25.69
27.65
30.49
35.39
42.72
51.65
60.16
65.88
67.24
64.23
58.43
52.02
46.68
42.78
39.69
36.64
33.58
31.15
30.09
30.36
30.95
30.42
27.97
24.09
20.13
17.38
15.92
14.25
9.91
0.75
-13.71
-31.79
-50.09
-64.67
-72.53
-72.70
-66.54
-57.02
-47.49
-40.41
-36.66
-35.78
-36.58
-37.99
-39.36
-40.49
-41.14
-40.92
-39.39
-36.37
-32.17
-27.49
-23.16
-19.73
-17.36
-15.85
-14.86
-14.09
-13.40
-12.74
-12.13
-11.52
-10.73
-9.56
-7.76
-5.37
-2.72
-0.48
0.54
-0.52
-4.34
-11.01
-19.79
-28.96
-36.15
-39.01
-36.38
-28.91
-19.04
-9.87
-3.77
-1.49
-2.06
-3.64
-4.64
-4.22
-2.19
1.39
6.46
12.78
19.58
25.52
29.24
30.04
28.09
24.25
19.25
13.30
6.17
-2.25
-11.47
-20.25
-27.04
-30.70
-30.86
-28.06
-23.51
-18.71
-14.98
-13.23
-13.55
-15.22
-16.87
-16.93
-14.15
-8.00
1.21
12.56
24.67
36.00
45.12
51.08
53.74
53.87
52.82
51.93
51.89
52.60
53.22
52.86
50.98
47.67
43.55
39.45
36.16
33.96
32.61
31.24
28.71
24.01
16.73
7.21
-3.55
-14.31
-23.95
-31.82
-37.78
-42.04
-45.17
-47.90
-50.98
-55.10
-60.51
-66.85
-73.02
-77.40
-78.25
-74.49
-66.10
-54.41
-41.68
-30.26
-21.69
-16.14
-12.52
-9.24
-5.09
0.30
6.43
12.39
17.36
20.85
22.83
23.56
23.50
23.22
23.20
23.60
24.30
24.99
25.42
25.53
25.35
24.69
23.09
20.02
15.22
9.18
3.04
-1.98
-5.04
-6.21
-6.37
-6.88
-9.04
-13.67
-20.76
-29.48
-38.40
-45.93
-50.87
-52.80
-52.02
-49.18
-44.76
-38.91
-31.52
-22.68
-12.92
-3.10
6.03
14.09
21.11
27.17
32.14
35.63
37.34
37.31
35.86
33.31
29.62
24.57
18.21
11.48
6.16
4.14
6.41
12.27
19.73
26.37
30.55
31.90
31.10
29.12
26.60
23.78
20.82
18.17
16.50
16.28
17.16
17.82
16.33
10.87
0.69
-13.43
-29.13
-43.24
-52.77
-55.94
-52.80
-45.03
-35.15
-25.50
-17.40
-11.01
-5.76
-0.84
4.28
9.86
15.90
22.29
28.80
35.01
40.36
44.33
46.48
46.51
44.34
40.10
34.41
28.37
23.33
20.42
19.96
21.25
22.89
23.48
22.30
19.52
15.90
12.31
9.35
7.34
6.48
6.84
8.23
10.06
11.35
11.10
8.51
3.16
-5.05
-15.93
-28.72
-41.81
-52.80
-59.33
-60.10
-55.88
-49.24
-43.18
-39.32
-36.96
-33.69
-27.23
-17.21
-5.58
4.60
11.24
14.51
16.53
19.66
24.70
30.30
33.98
33.95
30.36
25.01
20.15
16.93
14.89
12.62
9.07
4.40
-0.18
-3.30
-4.45
-4.19
-3.51
-2.93
-2.10
-0.18
3.21
7.41
10.88
12.06
10.33
6.32
1.46
-2.92
-6.09
-7.93
-8.42
-7.23
-3.80
2.07
9.86
18.32
26.17
32.57
37.32
40.47
41.86
41.26
38.69
35.24
32.91
33.80
38.65
46.22
53.96
59.50
61.81
61.28
59.03
55.97
52.33
47.84
42.22
35.63
28.32
20.48
11.62
1.61
-8.73
-17.65
-23.66
-26.69
-28.03
-29.44
-31.76
-35.54
-40.30
-44.62
-46.79
-45.58
-40.23
-29.94
-13.94
7.68
31.00
51.23
66.01
77.00
87.49
99.51
112.46
123.55
129.66
125.62
109.20
83.50
55.32
30.22
10.05
-5.52
-16.66
-22.75
-28.81
-42.38
-69.91
-114.47
-176.89
-256.60
-351.27
-457.04
-536.40
-557.07
-513.85
-429.13
-327.97
-224.74
-126.95
-40.64
29.09
80.27
110.20
119.46
113.58
101.21
89.16
80.19
74.74
72.96
75.52
79.05
79.26
74.18
65.28
54.95
45.03
36.77
31.20
29.23
28.68
26.60
21.45
13.98
5.61
-2.45
-9.30
-14.17
-16.27
-16.34
-15.55
-14.51
-12.89
-10.17
-6.40
-1.31
5.08
12.70
20.98
29.23
36.97
44.02
50.19
55.16
58.54
60.04
59.68
57.84
55.13
52.24
49.64
47.49
45.60
43.62
41.05
37.67
33.65
29.57
26.33
24.95
26.45
31.22
38.50
46.03
50.62
49.08
39.41
21.57
-2.43
-28.97
-53.94
-73.73
-86.07
-90.21
-86.81
-77.44
-63.95
-48.77
-33.99
-20.63
-8.48
3.37
15.60
27.73
38.03
44.24
44.50
38.30
26.44
10.32
-8.87
-30.58
-54.34
-78.90
-101.69
-119.34
-129.19
-130.88
-126.90
-121.54
-118.68
-120.01
-124.71
-130.72
-136.54
-142.07
-147.86
-153.65
-157.33
-155.55
-145.66
-127.55
-104.01
-79.45
-57.69
-40.43
-27.18
-16.32
-6.20
4.56
17.17
32.87
52.38
75.11
98.91
120.64
137.68
149.00
155.17
157.13
154.97
147.54
133.54
113.16
89.04
65.80
48.40
40.31
42.68
54.60
73.94
97.89
122.98
145.02
159.43
162.53
152.91
132.52
106.25
80.27
59.85
47.78
43.99
46.45
52.53
59.99
67.35
73.65
78.18
80.42
80.24
78.06
74.90
72.02
70.35
70.11
70.68
70.88
69.54
65.97
60.32
53.42
46.45
40.40
35.75
32.36
29.54
26.44
22.30
16.71
9.71
1.75
-6.43
-14.03
-20.43
-25.38
-29.07
-32.06
-35.06
-38.58
-42.80
-47.53
-52.21
-56.10
-58.42
-58.52
-56.03
-51.02
-43.94
-35.68
-27.27
-19.66
-13.50
-9.10
-6.35
-4.93
-4.41
-4.38
-4.47
-4.41
-4.02
-3.28
-2.34
-1.46
-0.93
-0.84
-1.13
-1.54
-1.76
-1.62
-1.08
-0.30
0.51
1.12
1.28
0.80
-0.49
-2.58
-5.28
-8.27
-11.15
-13.66
-15.77
-17.65
-19.60
-21.85
-24.58
-27.78
-31.32
-34.92
-38.19
-40.55
-41.32
-39.92
-36.04
-29.89
-22.25
-14.25
-7.08
-1.54
2.20
4.51
6.15
7.77
9.65
11.65
13.31
14.10
13.82
12.58
10.81
9.05
7.70
6.90
6.50
6.26
5.95
5.57
5.23
5.08
5.15
5.21
4.86
3.68
1.48
-1.59
-5.07
-8.34
-10.95
-12.77
-14.10
-15.45
-17.33
-19.99
-23.36
-27.03
-30.52
-33.25
-34.78
-34.70
-32.71
-28.73
-22.92
-15.83
-8.32
-1.32
4.48
8.77
11.66
13.50
14.60
15.11
15.00
14.22
12.83
11.06
9.26
7.75
6.70
6.11
5.86
5.83
5.95
6.20
6.53
6.77
6.69
6.06
4.75
2.82
0.49
-2.04
-4.64
-7.40
-10.42
-13.76
-17.36
-20.92
-24.12
-26.59
-28.00
-28.04
-26.53
-23.38
-18.81
-13.28
-7.50
-2.15
2.33
5.87
8.72
11.19
13.39
15.21
16.39
16.73
16.31
15.40
14.42
13.67
13.27
13.15
13.16
13.16
13.09
12.93
12.65
12.19
11.44
10.31
8.74
6.72
4.29
1.52
-1.53
-4.79
-8.18
-11.67
-15.16
-18.49
-21.34
-23.32
-24.01
-23.11
-20.56
-16.51
-11.41
-5.87
-0.60
3.82
6.97
8.79
9.56
9.78
9.96
10.41
11.11
11.79
12.11
11.88
11.19
10.26
9.36
8.60
7.93
7.22
6.37
5.38
4.32
3.24
2.12
0.79
-0.98
-3.37
-6.44
-10.08
-14.10
-18.30
-22.56
-26.85
-31.16
-35.39
-39.25
-42.33
-44.12
-44.24
-42.56
-39.20
-34.58
-29.17
-23.52
-18.09
-13.21
-9.11
-5.79
-3.13
-0.90
1.10
2.99
4.82
6.63
8.41
10.13
11.70
12.96
13.82
14.30
14.53
14.74
15.04
15.41
15.64
15.51
14.91
13.93
12.73
11.41
9.99
8.35
6.38
4.01
1.28
-1.74
-4.94
-8.19
-11.28
-13.93
-15.83
-16.67
-16.24
-14.49
-11.56
-7.76
-3.53
0.65
4.37
7.38
9.70
11.60
13.38
15.22
17.04
18.58
19.50
19.63
19.05
18.14
17.44
17.40
18.25
19.92
22.06
24.26
26.23
27.96
29.66
31.66
34.19
37.18
40.32
43.17
45.32
46.66
47.38
47.94
49.05
51.57
56.39
64.19
75.07
87.97
100.52
109.35
111.23
104.49
90.02
71.34
53.32
40.44
35.14
37.11
44.00
52.74
60.95
67.45
71.90
74.02
72.95
67.45
56.54
40.16
19.34
-4.34
-29.47
-55.22
-81.25
-107.07
-131.55
-152.88
-169.24
-179.72
-184.91
-186.80
-187.94
-190.43
-195.02
-200.89
-206.01
-208.12
-205.92
-199.78
-191.74
-184.45
-179.61
-176.82
-173.62
-166.93
-155.13
-139.38
-123.29
-110.95
-104.71
-103.93
-105.51
-105.71
-101.72
-92.17
-76.57
-54.70
-26.99
4.50
35.44
60.16
74.20
77.15
73.96
73.16
82.95
106.97
142.41
181.33
214.71
236.49
245.66
245.41
240.23
233.19
224.91
214.53
201.80
188.34
177.48
172.69
175.73
185.77
199.91
214.77
228.03
239.17
248.96
258.44
267.73
275.49
279.28
276.32
264.61
243.66
214.76
180.70
144.95
110.76
80.26
54.12
31.63
11.18
-9.15
-30.86
-54.64
-80.04
-105.85
-130.47
-152.66
-172.06
-189.37
-206.22
-224.95
-248.29
-278.80
-317.76
-363.79
-411.78
-453.27
-478.37
-479.08
-452.31
-401.25
-334.22
-261.67
-192.74
-133.18
-85.04
-48.03
-21.08
-3.13
6.84
10.48
10.19
8.76
8.50
10.53
14.58
19.29
22.98
24.46
23.47
20.68
17.36
14.76
13.57
13.70
14.37
14.49
13.20
10.12
5.52
0.13
-5.19
-9.68
-13.01
-15.38
-17.34
-19.53
-22.31
-25.43
-28.04
-29.01
-27.39
-22.93
-16.16
-8.27
-0.63
5.74
10.34
13.24
14.84
15.58
15.85
15.83
15.60
15.21
14.67
13.99
13.24
12.53
11.95
11.58
11.45
11.52
11.68
11.77
11.65
11.16
10.26
8.90
7.08
4.84
2.17
-0.88
-4.29
-8.01
-11.92
-15.74
-19.00
-21.08
-21.37
-19.51
-15.62
-10.29
-4.42
1.09
5.69
9.24
11.92
13.99
15.57
16.60
16.97
16.66
15.85
14.89
14.07
13.60
13.44
13.36
13.10
12.43
11.26
9.66
7.81
5.92
4.22
2.82
1.71
0.71
-0.45
-2.04
-4.29
-7.26
-10.84
-14.67
-18.29
-21.11
-22.55
-22.18
-19.86
-15.82
-10.67
-5.24
-0.29
3.69
6.61
8.65
10.07
11.05
11.68
11.97
12.00
11.99
12.16
12.60
13.24
13.81
14.08
14.00
13.72
13.56
13.75
14.30
15.00
15.53
15.61
15.18
14.34
13.21
11.84
10.16
8.02
5.38
2.38
-0.80
-3.91
-6.87
-9.64
-12.15
-14.08
-14.95
-14.25
-11.75
-7.71
-2.82
2.00
5.97
8.71
10.32
11.18
11.75
12.35
13.04
13.72
14.27
14.60
14.76
14.85
14.98
15.18
15.36
15.39
15.18
14.75
14.26
13.87
13.61
13.32
12.73
11.54
9.66
7.26
4.67
2.25
0.17
-1.58
-3.19
-4.94
-7.02
-9.55
-12.58
-16.18
-20.39
-25.09
-29.87
-33.96
-36.35
-36.12
-32.84
-26.81
-19.03
-10.95
-3.91
1.28
4.47
6.07
6.74
7.09
7.48
8.03
8.75
9.61
10.57
11.60
12.67
13.69
14.52
15.04
15.14
14.79
14.11
13.36
12.81
12.70
13.08
13.72
14.27
14.30
13.54
11.98
9.80
7.24
4.52
1.82
-0.80
-3.26
-5.50
-7.50
-9.25
-10.81
-12.18
-13.25
-13.71
-13.22
-11.48
-8.44
-4.33
0.43
5.32
9.89
13.82
16.97
19.31
20.86
21.74
22.11
22.17
22.13
22.14
22.26
22.44
22.56
22.51
22.20
21.66
20.93
20.14
19.37
18.69
18.13
17.69
17.25
16.60
15.49
13.74
11.29
8.22
4.78
1.22
-2.26
-5.53
-8.54
-11.12
-13.00
-13.91
-13.62
-12.10
-9.54
-6.27
-2.69
0.83
4.02
6.62
8.44
9.36
9.35
8.62
7.46
6.30
5.46
5.09
5.07
5.13
4.98
4.52
3.80
3.06
2.52
2.25
2.14
1.94
1.47
0.71
-0.14
-0.82
-1.14
-1.16
-1.18
-1.61
-2.77
-4.72
-7.27
-10.12
-12.93
-15.46
-17.51
-18.89
-19.29
-18.38
-15.98
-12.27
-7.79
-3.37
0.22
2.49
3.45
3.50
3.18
2.97
3.06
3.41
3.86
4.30
4.65
4.94
5.18
5.35
5.43
5.36
5.13
4.76
4.29
3.84
3.53
3.40
3.37
3.22
2.73
1.72
0.24
-1.43
-2.95
-4.08
-4.84
-5.53
-6.54
-8.20
-10.56
-13.39
-16.20
-18.36
-19.36
-18.82
-16.72
-13.30
-9.09
-4.66
-0.58
2.80
5.34
7.06
8.13
8.77
9.19
9.58
10.06
10.64
11.32
11.95
12.40
12.55
12.32
11.75
10.91
10.02
9.26
8.79
8.67
8.81
9.05
9.16
8.92
8.24
7.09
5.56
3.85
2.17
0.68
-0.61
-1.84
-3.24
-5.03
-7.28
-9.95
-12.84
-15.80
-18.70
-21.37
-23.65
-25.19
-25.63
-24.56
-21.79
-17.48
-12.13
-6.56
-1.57
2.23
4.62
5.80
6.21
6.30
6.31
6.27
6.07
5.69
5.21
4.82
4.68
4.73
4.83
4.82
4.71
4.68
4.99
5.79
7.04
8.46
9.72
10.51
10.67
10.18
9.10
7.55
5.71
3.79
2.03
0.54
-0.64
-1.66
-2.72
-4.02
-5.60
-7.39
-9.27
-11.07
-12.66
-13.94
-14.94
-15.73
-16.45
-17.20
-17.88
-18.17
-17.59
-15.70
-12.34
-7.87
-3.08
0.99
3.47
3.98
2.78
0.71
-1.12
-1.78
-0.90
1.18
3.40
4.50
3.56
0.53
-3.58
-7.05
-8.19
-6.18
-1.65
3.38
6.29
5.04
-0.74
-9.37
-17.67
-22.37
-21.57
-15.64
-7.16
0.20
3.16
-0.01
-9.10
-21.99
-35.09
-43.78
-43.29
-30.31
-5.03
27.37
57.35
74.27
71.22
48.90
16.15
-13.32
-26.68
-17.00
14.87
62.03
115.30
166.48
209.79
241.61
259.62
262.62
250.96
226.92
194.28
157.36
119.78
83.78
50.25
19.17
-10.34
-39.81
-71.14
-105.55
-142.40
-178.59
-209.37
-230.10
-238.34
-235.02
-223.97
-210.21
-197.84
-188.37
-180.12
-169.37
-152.20
-126.61
-93.78
-57.55
-22.86
6.47
29.38
48.00
66.61
89.27
117.35
148.22
176.03
194.29
199.11
191.51
177.56
165.75
162.94
170.90
185.19
197.22
198.14
182.97
152.44
112.04
69.09
29.50
-4.28
-33.17
-59.49
-84.68
-107.55
-124.35
-130.65
-123.86
-104.83
-77.32
-45.72
-12.64
21.98
59.20
97.90
132.50
153.63
152.22
124.58
75.70
18.58
-30.45
-57.54
-55.45
-24.50
29.49
97.84
170.87
238.83
292.73
325.77
335.51
324.78
300.75
272.08
245.36
222.80
202.59
181.24
156.23
127.36
96.23
64.70
33.50
2.18
-30.13
-63.72
-98.11
-132.51
-166.37
-199.72
-232.86
-265.81
-297.85
-327.31
-351.89
-369.25
-377.72
-376.62
-366.54
-349.08
-326.48
-301.07
-274.63
-248.04
-221.14
-193.20
-163.64
-132.78
-102.08
-73.83
-50.16
-32.13
-19.25
-9.75
-1.48
7.23
16.98
27.52
38.29
48.90
59.29
69.40
78.79
86.51
91.27
92.10
88.90
82.82
75.95
70.60
68.43
69.64
72.83
75.67
76.03
72.88
66.76
59.38
52.62
47.58
44.08
40.90
36.47
29.71
20.42
9.29
-2.55
-13.95
-24.01
-32.11
-37.94
-41.64
-43.98
-46.44
-50.83
-58.54
-69.94
-84.10
-99.15
-113.04
-124.22
-131.90
-135.80
-135.86
-132.10
-124.76
-114.41
-101.76
-87.27
-70.73
-51.39
-28.74
-3.36
22.46
45.09
60.47
65.44
58.68
41.18
16.15
-11.65
-37.01
-55.64
-65.40
-66.88
-62.99
-57.74
-54.58
-55.32
-59.74
-65.98
-71.41
-73.57
-70.95
-63.41
-52.09
-39.04
-26.45
-16.11
-8.95
-5.05
-4.00
-5.16
-8.03
-12.27
-17.74
-24.29
-31.57
-38.63
-43.95
-45.48
-41.12
-29.76
-11.65
11.64
37.83
65.16
92.99
121.58
151.18
180.95
208.56
230.79
244.75
248.86
243.28
229.55
210.06
187.81
166.53
150.75
145.26
153.45
175.45
206.96
239.94
265.28
275.92
269.29
247.51
215.64
178.99
141.11
103.37
65.46
26.84
-12.16
-50.10
-84.79
-114.27
-137.65
-155.55
-169.63
-181.63
-192.19
-200.30
-203.95
-201.44
-192.90
-180.56
-167.81
-157.38
-149.87
-143.69
-136.40
-126.51
-114.46
-102.50
-93.44
-89.63
-92.38
-101.74
-116.66
-134.86
-152.96
-166.77
-172.53
-168.26
-154.64
-134.93
-113.55
-94.40
-79.41
-68.26
-59.24
-50.44
-40.74
-30.09
-19.22
-8.98
0.03
7.59
13.66
18.16
20.96
22.22
22.58
23.12
24.89
28.25
32.57
36.33
37.89
35.98
30.15
20.55
7.76
-7.27
-23.15
-38.18
-50.80
-60.31
-67.15
-72.70
-78.10
-83.27
-86.65
-85.98
-79.61
-67.56
-51.51
-33.97
-17.20
-2.50
9.69
19.41
26.86
32.30
36.15
38.89
40.78
41.77
41.54
39.88
36.97
33.34
29.57
25.96
22.46
19.00
15.72
13.11
11.67
11.62
12.69
14.25
15.57
15.99
15.12
12.88
9.53
5.76
2.55
0.69
0.46
1.38
2.60
3.49
4.08
4.98
6.76
9.43
12.19
14.12
14.88
15.25
16.79
20.97
28.22
37.50
46.78
53.88
57.58
57.98
56.32
54.17
52.60
51.70
50.70
48.47
44.26
38.36
31.96
26.81
24.29
24.64
26.82
28.87
28.91
25.96
20.41
13.67
7.33
2.39
-1.11
-3.82
-6.53
-9.64
-13.04
-16.30
-18.84
-20.03
-19.27
-16.17
-10.81
-3.95
3.15
9.30
13.93
17.35
20.52
24.34
28.95
33.63
37.16
38.51
37.42
34.49
30.67
26.85
23.51
20.77
18.69
17.38
17.01
17.67
19.23
21.34
23.57
25.48
26.72
27.01
26.12
23.96
20.60
16.37
11.87
7.81
4.72
2.75
1.70
1.12
0.52
-0.40
-1.80
-3.69
-5.94
-8.32
-10.70
-13.00
-15.40
-18.17
-21.51
-25.55
-30.15
-35.06
-39.83
-43.76
-45.78
-44.61
-39.19
-29.37
-16.29
-2.36
9.59
17.46
20.64
20.20
18.15
16.46
16.23
17.52
19.64
21.80
23.39
24.11
23.79
22.30
19.60
15.96
12.03
8.78
7.18
7.78
10.53
14.70
19.23
23.05
25.44
26.18
25.54
24.00
22.09
20.23
18.74
17.93
18.00
18.94
20.30
21.30
21.08
19.19
15.93
12.19
8.87
6.32
4.09
1.24
-2.95
-8.55
-15.01
-21.59
-27.94
-34.22
-40.75
-47.58
-54.28
-60.11
-64.29
-66.32
-65.84
-62.45
-55.86
-46.20
-34.41
-22.24
-11.73
-4.44
-0.85
-0.21
-1.00
-1.50
-0.50
2.41
6.68
11.02
13.90
14.12
11.52
6.94
1.82
-2.57
-5.70
-7.79
-9.29
-10.31
-10.47
-9.24
-6.61
-3.26
-0.25
1.68
2.54
2.93
3.47
4.17
4.41
3.53
1.47
-0.83
-1.91
-0.66
2.86
7.40
11.00
12.00
9.77
4.92
-1.15
-6.97
-11.67
-15.10
-17.66
-19.87
-22.13
-24.68
-27.63
-31.06
-34.79
-38.21
-40.27
-39.79
-35.99
-29.03
-20.12
-11.06
-3.56
1.48
4.17
5.34
5.88
6.17
5.93
4.60
1.88
-1.80
-5.30
-7.25
-6.94
-4.85
-2.64
-2.46
-5.74
-12.32
-20.45
-27.59
-31.69
-32.16
-30.06
-27.52
-26.75
-29.32
-35.94
-46.36
-59.33
-72.37
-81.66
-82.67
-71.45
-46.37
-9.44
33.62
74.92
106.94
124.99
128.59
121.06
107.56
92.85
79.69
68.70
59.40
51.49
45.51
42.50
43.00
46.20
49.96
51.68
49.62
43.75
35.66
27.67
21.79
18.87
18.57
19.67
20.67
20.37
18.13
14.00
8.62
2.98
-1.94
-5.47
-7.39
-7.93
-7.46
-6.20
-4.03
-0.69
3.91
9.35
14.57
18.26
19.35
17.57
13.55
8.51
3.74
0.13
-1.98
-2.81
-2.91
-2.91
-3.41
-4.86
-7.47
-11.18
-15.69
-20.57
-25.36
-29.44
-32.10
-32.49
-29.92
-24.21
-15.89
-6.22
3.20
10.95
16.18
18.74
19.12
18.19
16.87
15.96
15.89
16.62
17.66
18.38
18.37
17.68
16.80
16.23
16.17
16.30
16.04
14.97
13.12
10.94
8.95
7.42
6.30
5.51
5.12
5.45
6.72
8.70
10.44
10.61
8.12
2.76
-4.61
-12.48
-19.30
-24.17
-27.04
-28.56
-29.56
-30.71
-32.30
-34.31
-36.51
-38.61
-40.41
-41.92
-43.39
-45.08
-47.10
-49.12
-50.37
-49.90
-46.88
-41.15
-33.26
-24.41
-15.95
-9.09
-4.48
-2.04
-1.12
-0.72
0.09
1.87
4.55
7.59
10.30
12.23
13.40
14.15
14.78
15.27
15.43
15.14
14.70
14.87
16.38
19.45
23.41
27.02
29.07
29.11
27.57
25.42
23.53
22.23
21.31
20.43
19.60
19.06
19.11
19.66
20.25
20.27
19.38
17.89
16.45
15.77
16.12
17.23
18.41
18.89
18.01
15.29
10.33
2.72
-8.00
-22.33
-40.49
-62.28
-86.65
-111.73
-134.86
-153.03
-163.46
-164.10
-154.07
-133.74
-104.76
-69.89
-32.84
2.05
30.50
49.04
55.93
51.44
37.60
17.43
-5.75
-28.58
-47.41
-58.17
-56.98
-41.37
-11.86
27.34
69.08
105.50
130.71
142.59
142.84
135.36
124.35
112.80
102.37
93.76
87.22
82.48
78.42
72.95
63.66
48.93
28.98
6.01
-16.55
-35.24
-47.81
-53.62
-53.45
-48.85
-41.63
-33.54
-26.15
-20.84
-18.70
-20.33
-25.71
-34.28
-45.01
-56.64
-67.85
-77.37
-84.14
-87.26
-86.15
-80.50
-70.53
-57.04
-41.61
-26.31
-13.28
-4.07
0.85
2.20
1.57
0.68
0.82
2.39
4.92
7.54
9.36
9.95
9.38
8.14
6.76
5.80
5.60
6.49
8.72
12.43
17.46
23.36
29.39
34.78
38.99
41.81
43.35
43.89
43.69
42.96
41.89
40.60
39.19
37.56
35.46
32.57
28.73
24.01
18.74
13.28
7.90
2.74
-2.00
-6.02
-8.94
-10.54
-11.00
-10.85
-10.59
-10.30
-9.35
-6.56
-0.84
8.19
19.72
31.85
41.99
47.66
47.20
40.36
28.36
13.64
-0.78
-12.19
-18.78
-20.02
-16.39
-8.94
1.11
12.39
23.12
31.05
33.72
29.39
17.99
1.47
-16.58
-32.20
-42.41
-46.09
-43.97
-37.84
-29.61
-20.67
-11.75
-3.38
3.70
8.43
9.61
6.49
-0.81
-11.19
-22.85
-33.88
-42.84
-49.14
-52.93
-54.86
-55.64
-55.85
-55.85
-55.96
-56.35
-56.98
-57.50
-57.14
-55.00
-50.35
-42.92
-33.06
-21.60
-9.62
1.68
11.24
18.38
22.87
25.09
25.75
25.65
25.27
24.64
23.49
21.59
19.02
16.24
13.92
12.60
12.62
14.04
16.84
20.81
25.54
30.40
34.58
37.46
38.76
38.68
37.70
36.34
34.93
33.61
32.33
30.94
29.27
27.15
24.43
21.03
17.02
12.48
7.44
1.89
-4.18
-10.64
-17.10
-22.98
-27.69
-30.90
-32.70
-33.60
-34.35
-35.76
-38.44
-42.64
-48.07
-53.88
-58.76
-61.40
-60.76
-56.54
-49.09
-39.31
-28.36
-17.34
-7.21
1.32
7.78
12.14
14.75
16.24
17.18
17.76
17.78
16.82
14.82
12.29
10.33
10.12
12.31
16.69
22.35
28.11
33.10
36.98
39.94
42.25
44.02
45.16
45.45
44.79
43.34
41.48
39.55
37.76
35.98
33.90
31.17
27.72
23.68
19.56
15.89
12.99
10.83
8.94
6.65
3.31
-1.32
-7.05
-13.22
-19.04
-23.92
-27.68
-30.67
-33.53
-36.99
-41.49
-47.05
-53.14
-58.83
-63.00
-64.59
-62.94
-57.94
-50.02
-40.04
-28.97
-17.73
-7.07
2.50
10.78
17.78
23.64
28.58
32.58
35.43
36.68
36.04
33.57
29.80
25.57
21.66
18.57
16.54
15.57
15.68
16.88
18.95
21.37
23.45
24.51
24.30
23.02
21.24
19.56
18.38
17.78
17.59
17.52
17.27
16.62
15.41
13.68
11.64
9.65
8.07
7.09
6.64
6.35
5.77
4.52
2.40
-0.64
-4.62
-9.56
-15.44
-22.01
-28.74
-34.93
-40.07
-44.19
-47.86
-51.89
-56.58
-61.24
-64.28
-63.93
-59.17
-50.29
-38.72
-26.13
-13.75
-2.04
8.91
18.85
27.17
33.15
36.48
37.48
36.90
35.35
32.95
29.62
25.51
21.43
18.84
19.16
23.26
31.04
41.57
53.49
65.44
76.31
85.38
92.26
96.88
99.41
100.04
98.90
96.15
92.27
88.16
85.02
83.68
83.90
84.18
82.28
76.25
65.50
51.01
34.88
19.28
5.79
-4.86
-12.49
-17.24
-19.66
-21.01
-23.36
-28.99
-39.49
-54.80
-73.08
-91.48
-107.41
-119.55
-128.04
-133.92
-138.02
-140.36
-140.10
-136.22
-128.30
-117.16
-104.62
-93.08
-84.57
-80.02
-78.76
-78.63
-76.67
-70.13
-57.58
-39.42
-17.74
4.51
24.63
40.98
53.25
62.16
68.70
73.63
77.20
79.38
80.22
80.06
79.41
78.62
77.58
75.77
72.54
67.47
60.71
52.81
44.45
36.08
27.96
20.09
12.47
5.04
-2.29
-9.65
-17.02
-24.04
-30.19
-35.17
-39.32
-43.66
-49.22
-56.15
-63.16
-67.99
-68.60
-64.38
-56.38
-46.50
-36.15
-25.49
-13.85
-0.83
12.75
25.07
34.31
39.75
42.07
42.56
42.05
40.46
37.37
32.95
28.38
25.44
25.27
27.63
30.97
33.47
34.17
33.32
31.81
30.37
29.05
27.42
25.23
22.67
20.13
17.61
14.41
9.57
2.73
-5.23
-12.38
-16.81
-17.87
-16.64
-15.46
-16.62
-21.17
-28.67
-37.72
-46.94
-55.64
-63.77
-71.51
-78.93
-86.02
-92.88
-99.96
-107.81
-116.68
-126.12
-135.04
-142.24
-147.17
-150.38
-153.25
-157.09
-161.88
-165.50
-163.76
-151.49
-124.47
-81.48
-25.83
34.81
90.07
129.86
147.33
140.72
113.60
73.65
30.65
-5.65
-27.33
-29.85
-13.06
18.56
57.09
93.49
120.52
134.91
137.74
132.87
124.53
115.48
106.61
97.89
89.55
82.65
78.59
78.06
80.33
83.24
84.11
80.81
72.65
60.55
46.58
33.12
22.02
13.90
8.25
3.93
-0.02
-3.71
-6.54
-7.76
-7.34
-6.23
-6.08
-8.44
-14.05
-22.76
-33.88
-46.69
-60.48
-74.36
-86.93
-96.49
-101.50
-101.23
-96.00
-86.73
-74.44
-59.86
-43.51
-26.10
-8.90
6.52
18.85
27.54
32.96
36.01
37.47
37.74
36.83
34.82
32.03
28.98
26.08
23.36
20.52
17.32
13.85
10.68
8.52
7.89
8.80
10.76
13.12
15.24
16.71
17.23
16.41
13.73
8.64
0.89
-9.13
-20.43
-31.71
-41.81
-50.02
-55.88
-58.74
-57.41
-50.40
-36.82
-17.46
4.75
25.30
39.75
45.46
42.64
33.90
22.73
11.71
1.59
-8.37
-19.09
-30.38
-40.45
-46.68
-46.91
-40.62
-29.25
-15.47
-1.98
9.42
18.21
24.74
29.62
33.20
35.44
36.11
35.07
32.48
28.89
25.13
22.19
20.89
21.69
24.46
28.55
33.03
37.11
40.46
43.12
45.32
47.11
48.22
48.17
46.58
43.32
38.64
33.07
27.25
21.79
17.06
13.20
10.00
7.02
3.70
-0.45
-5.56
-11.42
-17.51
-23.23
-28.18
-32.29
-35.90
-39.57
-43.86
-49.05
-54.91
-60.65
-65.09
-66.99
-65.48
-60.29
-51.80
-40.92
-28.76
-16.41
-4.73
5.73
14.68
22.04
27.87
32.29
35.40
37.28
38.04
37.86
37.10
36.20
35.61
35.67
36.42
37.77
39.52
41.49
43.50
45.33
46.67
47.16
46.55
44.79
42.13
39.07
36.15
33.79
32.07
30.76
29.37
27.37
24.44
20.63
16.29
11.95
8.00
4.55
1.45
-1.50
-4.42
-7.27
-9.90
-12.38
-15.07
-18.54
-23.26
-29.27
-36.02
-42.62
-48.43
-53.43
-58.35
-64.10
-71.06
-78.54
-84.73
-87.49
-85.23
-77.66
-65.80
-51.56
-36.83
-22.97
-10.57
0.32
9.80
17.93
24.58
29.63
32.97
34.65
34.88
34.05
32.73
31.49
30.93
31.47
33.24
36.12
39.65
43.17
45.94
47.45
47.54
46.51
44.97
43.52
42.52
41.89
41.22
40.01
37.92
34.89
31.16
27.12
23.16
19.60
16.55
13.99
11.79
9.74
7.63
5.40
3.11
0.92
-0.96
-2.46
-3.72
-5.16
-7.29
-10.59
-15.27
-21.16
-27.68
-34.09
-39.68
-44.09
-47.39
-50.09
-52.95
-56.64
-61.51
-67.31
-73.21
-77.97
-80.22
-78.88
-73.47
-64.19
-51.91
-37.90
-23.53
-9.98
1.86
11.47
18.60
23.25
25.66
26.33
25.96
25.27
24.84
24.99
25.73
26.90
28.18
29.29
30.07
30.48
30.66
30.85
31.31
32.21
33.56
35.22
36.98
38.63
40.00
40.91
41.04
39.89
37.06
32.45
26.58
20.40
14.98
11.02
8.55
7.06
5.84
4.37
2.46
0.14
-2.66
-6.19
-10.76
-16.42
-22.73
-28.88
-34.02
-37.72
-40.12
-41.79
-43.46
-45.67
-48.77
-52.94
-58.28
-64.68
-71.68
-78.23
-82.78
-83.78
-80.15
-71.84
-59.84
-45.92
-31.91
-19.23
-8.50
0.35
7.66
13.66
18.19
20.86
21.37
19.89
17.16
14.40
12.76
12.96
15.01
18.30
21.94
25.14
27.50
29.03
29.99
30.78
31.74
33.09
34.84
36.83
38.75
40.24
40.98
40.81
39.70
37.72
34.99
31.61
27.73
23.58
19.49
15.80
12.75
10.34
8.34
6.39
4.11
1.21
-2.46
-6.92
-11.97
-17.19
-22.06
-26.02
-28.74
-30.26
-31.12
-32.28
-34.96
-40.22
-48.54
-59.39
-71.15
-81.32
-87.33
-87.36
-80.97
-69.20
-54.01
-37.56
-21.56
-7.07
5.38
15.48
23.02
27.92
30.36
30.84
29.98
28.40
26.52
24.66
23.02
21.82
21.18
21.10
21.48
22.16
23.03
23.94
24.73
25.10
24.77
23.68
22.09
20.53
19.56
19.44
19.94
20.45
20.30
19.05
16.66
13.39
9.64
5.75
1.97
-1.59
-4.93
-8.10
-11.26
-14.57
-18.19
-22.09
-26.03
-29.54
-32.15
-33.57
-33.95
-33.85
-34.00
-34.94
-36.64
-38.44
-39.26
-38.08
-34.42
-28.47
-20.92
-12.61
-4.18
4.01
11.78
18.91
25.07
29.84
32.86
33.95
33.21
31.10
28.32
25.80
24.38
24.61
26.50
29.56
32.97
36.00
38.32
40.04
41.55
43.20
44.99
46.61
47.50
47.20
45.49
42.52
38.70
34.51
30.33
26.36
22.67
19.20
15.94
12.90
10.09
7.40
4.58
1.28
-2.83
-7.82
-13.53
-19.55
-25.39
-30.67
-35.18
-38.87
-41.88
-44.51
-47.25
-50.74
-55.54
-61.89
-69.32
-76.67
-82.23
-84.31
-81.88
-74.90
-64.41
-52.09
-39.67
-28.47
-19.11
-11.65
-5.74
-0.99
2.95
6.33
9.38
12.31
15.24
18.13
20.80
22.95
24.39
25.21
25.75
26.48
27.68
29.32
30.98
32.10
32.34
31.71
30.66
29.73
29.32
29.45
29.80
29.95
29.55
28.45
26.66
24.27
21.37
18.08
14.59
11.17
8.19
5.94
4.59
4.01
3.76
3.13
1.38
-1.93
-6.77
-12.57
-18.42
-23.43
-27.09
-29.42
-30.89
-32.29
-34.41
-37.90
-43.09
-49.86
-57.49
-64.70
-69.86
-71.44
-68.53
-61.06
-49.84
-36.26
-21.89
-8.05
4.29
14.59
22.73
28.86
33.34
36.66
39.25
41.41
43.23
44.58
45.14
44.58
42.70
39.62
35.79
31.98
28.96
27.28
27.05
28.00
29.66
31.59
33.50
35.19
36.46
37.01
36.50
34.68
31.61
27.67
23.46
19.60
16.48
14.16
12.47
11.20
10.22
9.58
9.41
9.78
10.50
11.03
10.53
8.14
3.29
-4.09
-13.58
-24.46
-36.00
-47.62
-58.91
-69.46
-78.94
-87.03
-93.63
-98.79
-102.54
-104.76
-104.87
-102.11
-95.81
-85.82
-72.79
-57.98
-42.90
-28.94
-17.04
-7.68
-0.89
3.57
6.06
7.02
6.88
6.04
4.95
4.10
4.03
5.11
7.44
10.72
14.44
18.13
21.47
24.47
27.19
29.71
31.95
33.79
35.17
36.14
36.75
36.92
36.48
35.21
33.08
30.24
27.04
23.68
20.18
16.36
12.02
7.21
2.17
-2.74
-7.32
-11.58
-15.69
-19.75
-23.76
-27.62
-31.36
-35.22
-39.47
-44.14
-48.72
-52.21
-53.36
-51.22
-45.49
-36.57
-25.42
-13.17
-0.90
10.50
20.37
28.27
34.03
37.75
39.75
40.43
40.16
39.17
37.67
35.83
33.96
32.42
31.56
31.58
32.49
34.09
36.07
38.13
40.00
41.49
42.38
42.37
41.05
38.09
33.49
27.67
21.35
15.34
10.10
5.67
1.62
-2.53
-7.11
-12.04
-16.99
-21.61
-25.78
-29.69
-33.72
-38.21
-43.34
-49.04
-54.99
-60.59
-65.01
-67.33
-66.76
-62.92
-56.06
-46.92
-36.60
-26.16
-16.43
-7.86
-0.62
5.26
9.75
12.80
14.41
14.70
13.99
12.83
11.83
11.56
12.23
13.71
15.54
17.16
18.25
18.94
19.83
21.79
25.58
31.50
39.18
47.62
55.53
61.62
64.96
65.05
61.72
55.11
45.49
33.52
20.10
6.44
-6.20
-16.89
-25.19
-31.15
-35.13
-37.50
-38.50
-38.27
-37.01
-35.23
-33.79
-33.76
-36.04
-41.00
-48.06
-55.90
-62.70
-66.77
-67.01
-63.16
-55.69
-45.58
-33.92
-21.72
-9.90
0.80
9.81
16.86
21.99
25.60
28.18
30.20
31.95
33.56
34.99
36.18
37.08
37.65
37.94
38.01
37.96
37.89
37.80
37.69
37.54
37.26
36.84
36.25
35.49
34.57
33.49
32.13
30.30
27.79
24.52
20.67
16.70
13.21
10.58
8.80
7.35
5.58
2.91
-0.81
-5.32
-10.15
-14.87
-19.23
-23.25
-27.05
-30.87
-34.96
-39.57
-44.82
-50.59
-56.37
-61.33
-64.56
-65.32
-63.30
-58.62
-51.75
-43.30
-33.94
-24.27
-14.81
-6.01
1.79
8.38
13.71
17.80
20.77
22.78
23.98
24.58
24.81
24.93
25.19
25.76
26.63
27.65
28.56
29.15
29.32
29.15
28.83
28.57
28.46
28.49
28.47
28.12
27.22
25.63
23.39
20.70
17.76
14.80
11.93
9.22
6.77
4.70
3.09
1.89
0.86
-0.47
-2.53
-5.66
-9.83
-14.70
-19.79
-24.56
-28.72
-32.21
-35.27
-38.23
-41.39
-44.77
-48.00
-50.36
-50.97
-49.17
-44.74
-38.11
-30.09
-21.67
-13.66
-6.46
-0.16
5.42
10.36
14.63
18.07
20.53
22.10
23.06
23.85
24.82
26.12
27.70
29.40
31.10
32.72
34.21
35.41
36.11
36.10
35.36
34.15
32.87
31.89
31.29
30.85
30.15
28.78
26.58
23.65
20.23
16.66
13.17
9.84
6.67
3.59
0.49
-2.68
-5.97
-9.39
-12.92
-16.55
-20.31
-24.26
-28.47
-32.95
-37.55
-41.84
-45.20
-46.91
-46.37
-43.38
-38.18
-31.41
-23.80
-16.00
-8.29
-0.79
6.47
13.33
19.51
24.66
28.48
30.86
31.89
31.87
31.24
30.41
29.82
29.74
30.31
31.50
33.16
35.04
36.84
38.25
38.99
38.90
37.98
36.44
34.66
33.01
31.69
30.67
29.74
28.55
26.82
24.42
21.37
17.85
14.15
10.58
7.46
4.91
2.81
0.85
-1.40
-4.28
-7.90
-12.10
-16.53
-20.76
-24.47
-27.53
-30.06
-32.36
-34.82
-37.84
-41.65
-46.22
-51.19
-55.92
-59.59
-61.43
-60.87
-57.66
-51.92
-44.08
-34.77
-24.70
-14.55
-4.92
3.68
10.83
16.17
19.48
20.78
20.38
18.93
17.29
16.28
16.42
17.79
20.02
22.54
24.84
26.68
28.02
28.96
29.51
29.62
29.23
28.46
27.55
26.74
26.14
25.59
24.80
23.51
21.63
19.25
16.57
13.76
10.96
8.31
5.93
3.95
2.40
1.09
-0.23
-1.79
-3.62
-5.50
-7.18
-8.47
-9.42
-10.27
-11.27
-12.63
-14.39
-16.52
-18.99
-21.73
-24.70
-27.77
-30.86
-33.99
-37.26
-40.84
-44.74
-48.72
-52.15
-54.21
-54.16
-51.62
-46.70
-39.95
-32.16
-24.10
-16.39
-9.42
-3.43
1.50
5.35
8.27
10.44
12.08
13.28
14.11
14.50
14.44
13.98
13.24
12.43
11.75
11.36
11.34
11.65
12.23
12.98
13.88
14.94
16.21
17.70
19.27
20.56
21.17
20.77
19.30
17.09
14.68
12.56
10.94
9.69
8.49
7.03
5.27
3.43
1.82
0.63
-0.20
-0.93
-1.87
-3.08
-4.45
-5.77
-6.94
-8.11
-9.56
-11.59
-14.26
-17.34
-20.47
-23.40
-26.18
-29.16
-32.83
-37.39
-42.60
-47.58
-51.17
-52.34
-50.58
-46.05
-39.55
-32.09
-24.49
-17.24
-10.51
-4.31
1.26
5.96
9.46
11.57
12.26
11.70
10.23
8.20
5.99
4.00
2.64
2.19
2.79
4.37
6.69
9.44
12.32
15.05
17.36
19.01
19.89
20.10
19.99
19.91
20.11
20.55
20.90
20.80
20.04
18.71
17.04
15.31
13.55
11.65
9.38
6.62
3.46
0.17
-2.89
-5.47
-7.48
-9.06
-10.44
-11.90
-13.64
-15.66
-17.88
-20.12
-22.29
-24.32
-26.21
-28.03
-29.83
-31.80
-34.09
-36.80
-39.75
-42.41
-43.99
-43.69
-41.02
-35.92
-28.86
-20.64
-12.22
-4.50
1.78
6.24
8.89
10.16
10.64
10.89
11.12
11.16
10.72
9.71
8.41
7.44
7.35
8.37
10.23
12.45
14.58
16.47
18.25
20.07
21.94
23.63
24.80
25.27
25.06
24.45
23.69
22.91
22.02
20.87
19.34
17.48
15.49
13.58
11.86
10.32
8.80
7.18
5.43
3.58
1.68
-0.29
-2.42
-4.79
-7.34
-9.83
-11.92
-13.32
-13.97
-14.15
-14.37
-15.15
-16.84
-19.38
-22.28
-24.78
-25.96
-25.04
-21.61
-15.65
-7.72
1.35
10.57
19.21
26.84
33.43
39.13
43.98
47.81
50.27
51.06
50.15
47.83
44.66
41.10
37.49
33.93
30.57
27.61
25.30
23.68
22.44
21.03
18.97
16.16
12.91
9.76
6.96
4.38
1.59
-1.71
-5.46
-9.26
-12.72
-15.74
-18.48
-21.15
-23.63
-25.52
-26.49
-26.61
-26.53
-27.11
-28.88
-31.73
-35.02
-38.07
-40.55
-42.62
-44.59
-46.59
-48.51
-50.22
-51.84
-53.87
-56.82
-60.82
-65.43
-69.94
-73.84
-77.19
-80.41
-83.78
-86.93
-88.82
-88.18
-84.31
-77.40
-68.42
-58.52
-48.44
-38.34
-28.17
-18.11
-8.78
-1.06
4.43
7.62
8.99
9.21
8.80
8.06
7.24
6.69
6.84
8.03
10.28
13.23
16.44
19.64
22.81
26.07
29.37
32.50
35.13
37.12
38.54
39.64
40.48
40.91
40.64
39.57
38.00
36.55
35.69
35.42
35.24
34.40
32.40
29.30
25.57
21.78
18.21
14.85
11.51
8.12
4.82
1.83
-0.77
-3.20
-5.84
-9.02
-12.83
-17.05
-21.46
-25.95
-30.60
-35.56
-40.77
-45.91
-50.50
-54.09
-56.43
-57.41
-56.88
-54.54
-49.96
-42.88
-33.52
-22.71
-11.68
-1.57
6.93
13.78
19.23
23.55
26.75
28.70
29.37
29.18
28.91
29.38
31.00
33.56
36.43
38.98
40.86
42.14
43.11
43.97
44.78
45.52
46.15
46.73
47.13
47.01
45.88
43.43
39.82
35.70
31.91
29.01
27.01
25.40
23.62
21.46
19.09
16.83
14.79
12.66
9.97
6.46
2.34
-1.75
-5.05
-7.13
-8.04
-8.31
-8.60
-9.53
-11.46
-14.50
-18.50
-23.16
-28.19
-33.39
-38.77
-44.50
-50.71
-57.23
-63.40
-68.19
-70.44
-69.35
-64.69
-56.85
-46.61
-34.85
-22.35
-9.82
1.96
12.18
20.10
25.33
28.02
28.85
28.66
28.14
27.54
26.81
25.83
24.75
23.95
23.92
24.93
26.86
29.21
31.47
33.26
34.55
35.48
36.30
37.12
37.99
38.89
39.70
40.24
40.14
39.02
36.64
33.12
28.97
24.87
21.35
18.50
15.97
13.20
9.83
5.92
1.92
-1.70
-4.60
-6.81
-8.57
-10.13
-11.68
-13.31
-15.12
-17.29
-19.97
-23.14
-26.45
-29.45
-31.85
-33.83
-36.03
-39.21
-43.74
-49.27
-54.74
-58.83
-60.50
-59.22
-55.04
-48.24
-39.19
-28.38
-16.60
-4.99
5.16
12.87
17.82
20.42
21.37
21.27
20.39
18.83
16.87
15.20
14.74
16.14
19.42
23.82
28.29
32.03
34.74
36.67
38.21
39.61
40.83
41.78
42.39
42.74
42.88
42.70
41.91
40.23
37.54
33.99
29.93
25.70
21.64
17.98
14.96
12.74
11.27
10.15
8.73
6.36
2.74
-1.88
-6.86
-11.56
-15.60
-18.93
-21.73
-24.02
-25.82
-27.24
-28.74
-31.22
-35.47
-41.68
-49.00
-55.69
-59.83
-60.10
-56.23
-48.93
-39.34
-28.56
-17.37
-6.39
3.70
12.18
18.41
22.16
23.71
23.67
22.73
21.44
20.17
19.21
18.88
19.38
20.64
22.22
23.45
23.81
23.29
22.37
21.80
22.13
23.46
25.39
27.36
28.89
29.80
30.04
29.58
28.29
26.06
23.03
19.62
16.50
14.20
12.90
12.25
11.62
10.46
8.51
5.87
2.87
-0.16
-3.04
-5.70
-8.21
-10.64
-13.11
-15.75
-18.63
-21.70
-24.79
-27.71
-30.48
-33.40
-36.97
-41.53
-46.88
-52.11
-55.89
-56.97
-54.76
-49.46
-41.90
-33.13
-24.01
-15.14
-6.99
0.08
5.73
9.84
12.60
14.40
15.57
16.19
16.11
15.23
13.81
12.47
11.93
12.51
13.96
15.60
16.83
17.55
18.19
19.35
21.28
23.65
25.72
26.83
26.80
25.97
24.87
23.79
22.67
21.24
19.35
17.10
14.77
12.56
10.35
7.90
5.00
1.71
-1.65
-4.76
-7.45
-9.81
-11.96
-13.94
-15.63
-16.94
-17.96
-18.95
-20.22
-21.83
-23.67
-25.59
-27.70
-30.47
-34.44
-39.78
-45.98
-51.90
-56.19
-57.85
-56.50
-52.37
-45.97
-37.73
-28.05
-17.42
-6.72
2.91
10.41
15.19
17.35
17.54
16.62
15.30
14.05
13.19
13.12
14.17
16.41
19.30
21.88
23.16
22.74
21.11
19.35
18.51
18.97
20.39
22.02
23.32
24.21
24.95
25.56
25.67
24.57
21.84
17.74
13.25
9.56
7.37
6.55
6.34
5.83
4.49
2.27
-0.61
-3.94
-7.64
-11.62
-15.64
-19.30
-22.35
-24.85
-27.23
-29.88
-32.82
-35.46
-36.86
-36.24
-33.39
-28.66
-22.78
-16.29
-9.47
-2.46
4.50
10.89
16.09
19.74
21.89
22.92
23.23
22.97
22.06
20.45
18.41
16.50
15.33
15.19
15.95
17.17
18.45
19.63
20.83
22.17
23.63
24.94
25.75
25.74
24.76
22.83
20.06
16.69
13.06
9.59
6.64
4.38
2.65
1.07
-0.74
-2.96
-5.48
-8.07
-10.62
-13.28
-16.41
-20.33
-25.07
-30.30
-35.43
-39.78
-42.75
-43.84
-42.65
-38.95
-32.82
-24.81
-15.95
-7.45
-0.31
5.01
8.67
11.13
12.81
13.84
14.10
13.43
12.00
10.31
8.97
8.37
8.51
9.06
9.67
10.17
10.58
10.99
11.37
11.56
11.47
11.25
11.29
11.99
13.41
15.10
16.27
16.22
14.70
12.06
9.01
6.17
3.81
1.90
0.27
-1.12
-2.24
-3.13
-4.07
-5.58
-8.07
-11.54
-15.49
-19.12
-21.80
-23.37
-24.33
-25.56
-27.89
-31.80
-37.17
-43.31
-49.14
-53.43
-55.04
-53.24
-47.88
-39.55
-29.40
-18.85
-9.19
-1.23
4.80
9.20
12.47
15.01
16.99
18.35
18.99
18.97
18.57
18.19
18.20
18.67
19.40
20.04
20.21
19.79
18.89
17.82
16.95
16.62
17.04
18.16
19.69
21.10
21.80
21.35
19.66
17.06
14.06
11.15
8.46
5.90
3.32
0.70
-1.74
-3.74
-5.24
-6.51
-8.11
-10.56
-14.13
-18.78
-24.21
-29.97
-35.65
-40.74
-44.90
-48.05
-50.68
-53.75
-58.49
-65.54
-74.42
-83.37
-89.98
-92.35
-90.08
-84.60
-78.58
-74.87
-75.36
-80.50
-89.38
-100.25
-110.93
-119.17
-123.05
-121.71
-116.26
-110.23
-109.01
-118.04
-140.31
-174.55
-215.14
-254.05
-283.83
-300.24
-303.29
-296.20
-283.30
-268.06
-252.26
-236.44
-220.95
-206.71
-195.05
-186.89
-181.95
-178.53
-174.08
-166.29
-154.21
-138.51
-121.16
-104.30
-89.16
-75.38
-61.16
-44.08
-22.26
4.77
35.84
68.73
101.13
131.60
160.13
187.98
217.15
249.69
287.16
329.99
376.98
424.87
468.53
501.96
520.00
520.12
503.51
474.69
439.89
404.86
373.22
346.02
322.56
301.65
282.68
265.74
251.28
239.40
229.54
220.63
211.52
201.43
190.25
178.55
167.43
158.13
151.60
148.05
146.62
145.46
142.28
135.15
123.20
106.85
87.51
66.90
46.45
27.01
8.93
-7.73
-23.22
-38.12
-53.33
-69.51
-86.29
-101.59
-111.57
-111.44
-96.90
-65.91
-20.01
35.26
91.18
137.99
167.58
175.80
163.54
135.95
100.20
62.82
27.80
-3.85
-33.15
-61.60
-89.94
-117.80
-144.04
-167.38
-186.77
-201.53
-211.24
-215.65
-214.79
-209.03
-199.08
-186.01
-171.07
-155.56
-140.40
-126.01
-112.14
-98.23
-83.90
-69.43
-55.86
-44.54
-36.48
-31.82
-29.75
-28.96
-28.19
-26.89
-25.10
-23.17
-21.19
-18.83
-15.66
-11.64
-7.37
-3.88
-1.88
-1.17
-0.47
1.88
6.83
13.69
20.17
23.41
21.55
14.75
5.25
-3.78
-9.79
-11.88
-11.00
-9.08
-7.94
-8.44
-10.39
-12.96
-15.24
-16.87
-17.87
-18.63
-19.52
-20.72
-22.04
-23.05
-23.26
-22.39
-20.56
-18.18
-15.83
-13.98
-12.80
-12.23
-12.09
-12.24
-12.62
-13.31
-14.39
-15.95
-17.93
-20.16
-22.29
-23.90
-24.69
-24.70
-24.46
-24.73
-26.22
-29.15
-33.02
-36.86
-39.67
-40.85
-40.38
-38.73
-36.33
-33.36
-29.70
-25.11
-19.62
-13.67
-7.98
-3.21
0.38
2.96
5.01
6.98
8.98
10.89
12.42
13.36
13.74
13.73
13.53
13.28
13.03
12.82
12.73
12.94
13.63
14.86
16.44
17.99
19.01
19.14
18.28
16.58
14.42
12.15
9.95
7.83
5.64
3.15
0.22
-3.24
-7.19
-11.47
-15.73
-19.46
-22.02
-22.85
-21.64
-18.39
-13.46
-7.43
-0.98
5.20
10.51
14.52
17.00
18.07
18.14
17.78
17.58
17.92
18.83
20.04
21.09
21.61
21.51
21.03
20.58
20.58
21.15
22.09
22.97
23.35
22.91
21.60
19.51
16.83
13.77
10.57
7.43
4.56
2.04
-0.28
-2.66
-5.45
-8.90
-13.02
-17.54
-22.05
-26.05
-29.07
-30.69
-30.63
-28.75
-25.20
-20.38
-14.83
-9.11
-3.61
1.38
5.67
9.11
11.55
12.99
13.68
14.04
14.57
15.58
17.08
18.73
20.10
20.86
20.94
20.64
20.36
20.52
21.30
22.63
24.17
25.47
26.16
26.00
25.02
23.42
21.52
19.55
17.66
15.88
14.17
12.47
10.74
8.92
6.92
4.64
2.06
-0.78
-3.66
-6.41
-8.88
-11.12
-13.37
-15.93
-19.08
-22.87
-27.09
-31.24
-34.68
-36.70
-36.74
-34.56
-30.30
-24.47
-17.81
-11.10
-4.98
0.16
4.14
6.95
8.66
9.43
9.55
9.40
9.36
9.70
10.45
11.42
12.36
13.14
13.82
14.60
15.63
16.96
18.41
19.69
20.58
21.02
21.06
20.84
20.34
19.43
17.98
15.98
13.62
11.22
9.09
7.41
6.22
5.47
5.09
5.00
5.02
4.95
4.54
3.64
2.25
0.51
-1.35
-3.20
-5.02
-6.88
-8.84
-10.80
-12.58
-14.04
-15.19
-16.34
-17.92
-20.30
-23.54
-27.29
-30.89
-33.66
-35.09
-35.06
-33.64
-31.00
-27.21
-22.27
-16.33
-9.84
-3.61
1.48
4.79
6.25
6.34
5.84
5.45
5.57
6.29
7.43
8.76
10.04
11.07
11.68
11.76
11.31
10.56
9.86
9.58
9.88
10.68
11.59
12.16
12.09
11.33
10.06
8.60
7.22
6.02
5.02
4.15
3.38
2.67
2.00
1.28
0.43
-0.61
-1.76
-2.93
-4.00
-4.92
-5.76
-6.59
-7.44
-8.31
-9.20
-10.21
-11.45
-12.95
-14.57
-16.06
-17.28
-18.35
-19.70
-21.72
-24.43
-27.35
-29.64
-30.53
-29.70
-27.39
-24.10
-20.27
-15.99
-11.19
-5.87
-0.44
4.35
7.73
9.28
9.15
7.97
6.57
5.54
5.15
5.28
5.72
6.19
6.57
6.86
7.11
7.41
7.76
8.13
8.37
8.36
7.99
7.28
6.37
5.49
4.84
4.47
4.22
3.80
2.88
1.36
-0.65
-2.72
-4.36
-5.25
-5.43
-5.19
-4.96
-5.04
-5.50
-6.17
-6.90
-7.66
-8.54
-9.62
-10.84
-11.95
-12.64
-12.80
-12.60
-12.53
-13.08
-14.58
-17.07
-20.24
-23.61
-26.64
-28.85
-29.93
-29.83
-28.62
-26.39
-23.16
-18.91
-13.74
-8.07
-2.71
1.34
3.35
3.21
1.57
-0.45
-1.74
-1.81
-0.87
0.35
1.13
1.16
0.60
-0.10
-0.51
-0.49
-0.12
0.46
1.16
2.04
3.15
4.43
5.67
6.55
6.89
6.61
5.83
4.75
3.56
2.44
1.55
1.03
0.87
0.92
0.85
0.36
-0.68
-2.16
-3.77
-5.24
-6.50
-7.69
-9.02
-10.58
-12.18
-13.54
-14.43
-14.95
-15.50
-16.62
-18.64
-21.50
-24.70
-27.51
-29.28
-29.68
-28.74
-26.69
-23.76
-20.02
-15.44
-10.08
-4.34
1.10
5.47
8.27
9.45
9.44
8.91
8.43
8.30
8.54
8.99
9.57
10.30
11.18
12.14
13.03
13.64
13.84
13.71
13.50
13.46
13.73
14.25
14.76
14.94
14.54
13.47
11.85
9.89
7.81
5.79
3.93
2.32
1.04
0.14
-0.41
-0.73
-1.05
-1.58
-2.48
-3.81
-5.49
-7.37
-9.19
-10.71
-11.75
-12.34
-12.77
-13.50
-14.99
-17.41
-20.54
-23.78
-26.45
-28.05
-28.47
-27.80
-26.17
-23.53
-19.74
-14.78
-8.99
-3.13
1.84
5.14
6.50
6.25
5.19
4.22
4.04
4.97
6.86
9.34
11.85
13.94
15.37
16.25
16.85
17.53
18.45
19.54
20.60
21.46
22.11
22.69
23.35
24.09
24.57
24.36
23.04
20.62
17.46
14.23
11.57
9.78
8.76
8.12
7.42
6.34
4.80
2.95
0.99
-0.92
-2.76
-4.58
-6.48
-8.46
-10.47
-12.39
-14.05
-15.37
-16.40
-17.45
-18.96
-21.37
-24.81
-29.00
-33.28
-36.87
-39.06
-39.48
-38.01
-34.74
-29.86
-23.72
-16.76
-9.63
-3.03
2.47
6.57
9.29
10.89
11.72
12.07
12.13
12.15
12.33
12.93
14.10
15.81
17.81
19.71
21.15
21.97
22.29
22.48
22.91
23.78
24.99
26.13
26.73
26.47
25.33
23.57
21.65
19.94
18.59
17.49
16.38
15.03
13.42
11.70
10.13
8.85
7.82
6.78
5.35
3.31
0.70
-2.23
-5.08
-7.61
-9.78
-11.75
-13.71
-15.83
-18.17
-20.81
-23.94
-27.78
-32.54
-38.06
-43.83
-49.00
-52.58
-53.72
-51.95
-47.27
-40.18
-31.54
-22.42
-13.93
-6.91
-1.89
1.11
2.49
2.90
3.02
3.43
4.47
6.20
8.42
10.76
12.79
14.17
14.83
15.03
15.17
15.73
16.94
18.78
20.96
23.05
24.61
25.36
25.12
23.91
21.85
19.13
16.11
13.24
10.91
9.35
8.53
8.11
7.61
6.60
4.91
2.66
0.16
-2.26
-4.44
-6.45
-8.47
-10.71
-13.21
-15.90
-18.69
-21.61
-24.81
-28.53
-32.83
-37.55
-42.29
-46.58
-50.01
-52.26
-53.04
-52.03
-48.81
-43.08
-34.89
-24.82
-14.06
-4.05
3.90
9.06
11.47
11.81
11.08
10.20
9.78
10.13
11.26
13.03
15.20
17.46
19.50
21.02
21.86
22.13
22.20
22.52
23.42
24.90
26.61
28.04
28.68
28.30
26.98
25.06
22.94
20.87
18.91
16.92
14.65
11.97
8.93
5.74
2.68
-0.06
-2.46
-4.70
-7.04
-9.79
-13.10
-16.96
-21.15
-25.40
-29.40
-32.98
-36.00
-38.31
-39.61
-39.36
-36.95
-31.93
-24.34
-14.91
-4.86
4.43
11.91
17.25
20.77
23.12
24.89
26.39
27.62
28.46
28.86
29.01
29.16
29.63
30.56
31.90
33.42
34.86
36.01
36.86
37.51
38.11
38.62
38.82
38.30
36.74
34.10
30.74
27.24
24.09
21.48
19.20
16.86
14.21
11.29
8.38
5.78
3.56
1.47
-0.91
-3.87
-7.41
-11.22
-14.88
-18.19
-21.31
-24.74
-29.00
-34.31
-40.37
-46.38
-51.26
-54.03
-54.02
-50.98
-45.11
-36.90
-27.08
-16.55
-6.28
2.83
10.06
15.11
18.17
19.80
20.79
21.85
23.35
25.31
27.44
29.30
30.59
31.19
31.30
31.27
31.50
32.18
33.27
34.49
35.41
35.64
34.93
33.33
31.13
28.78
26.76
25.44
24.92
24.94
25.03
24.60
23.26
20.93
17.94
14.81
12.06
9.95
8.37
6.96
5.31
3.17
0.53
-2.41
-5.46
-8.47
-11.51
-14.76
-18.59
-23.39
-29.42
-36.65
-44.56
-52.24
-58.58
-62.56
-63.60
-61.50
-56.48
-48.99
-39.66
-29.29
-18.94
-9.74
-2.59
2.26
5.24
7.29
9.26
11.51
13.86
15.81
17.06
17.73
18.31
19.31
20.87
22.66
24.07
24.53
23.76
21.88
19.28
16.44
13.76
11.40
9.40
7.68
6.18
4.82
3.55
2.29
0.90
-0.80
-2.98
-5.68
-8.74
-11.85
-14.60
-16.67
-17.89
-18.34
-18.34
-18.41
-19.22
-21.36
-25.08
-30.13
-35.80
-41.04
-44.83
-46.43
-45.52
-42.07
-36.28
-28.44
-19.10
-9.16
0.14
7.43
11.73
12.91
11.75
9.70
8.22
8.26
9.99
12.93
16.27
19.31
21.54
22.66
22.49
20.99
18.43
15.46
13.05
12.01
12.58
14.30
16.13
17.01
16.39
14.38
11.59
8.69
6.05
3.66
1.24
-1.36
-4.08
-6.64
-8.77
-10.40
-11.79
-13.41
-15.74
-19.00
-23.00
-26.98
-29.87
-30.67
-28.84
-24.62
-18.85
-12.62
-6.73
-1.46
3.37
8.00
12.44
16.38
19.37
21.15
21.84
21.82
21.51
21.11
20.52
19.52
18.05
16.32
14.86
14.28
15.02
17.19
20.50
24.32
27.80
30.07
30.47
28.78
25.23
20.49
15.43
10.86
7.33
5.00
3.68
3.02
2.69
2.44
2.06
1.35
0.06
-2.03
-4.99
-8.66
-12.67
-16.57
-20.03
-22.95
-25.48
-27.81
-30.10
-32.24
-33.87
-34.40
-33.24
-30.03
-24.77
-18.01
-10.63
-3.65
2.09
6.21
8.78
10.25
11.17
11.96
12.84
13.84
14.87
15.82
16.53
16.81
16.38
15.12
13.12
10.76
8.64
7.43
7.57
9.08
11.60
14.49
17.08
18.88
19.70
19.61
18.83
17.62
16.24
14.96
13.90
13.15
12.57
11.92
10.86
9.17
6.79
3.89
0.79
-2.24
-5.00
-7.47
-9.74
-11.98
-14.43
-17.32
-20.82
-24.91
-29.35
-33.68
-37.34
-39.84
-40.87
-40.31
-38.18
-34.55
-29.60
-23.63
-17.22
-11.09
-5.93
-2.19
0.12
1.39
2.22
3.16
4.50
6.22
8.06
9.70
10.90
11.62
11.99
12.25
12.57
13.06
13.68
14.33
14.94
15.49
15.98
16.35
16.45
16.02
14.79
12.69
9.86
6.76
3.94
1.80
0.51
-0.12
-0.41
-0.73
-1.27
-2.16
-3.41
-5.08
-7.25
-9.97
-13.17
-16.66
-20.15
-23.31
-25.95
-28.00
-29.48
-30.32
-30.24
-28.76
-25.44
-20.23
-13.65
-6.83
-1.11
2.51
3.74
3.10
1.55
0.04
-0.89
-1.14
-0.90
-0.31
0.62
1.94
3.61
5.44
7.18
8.64
9.79
10.74
11.63
12.50
13.25
13.66
13.57
12.88
11.71
10.28
8.89
7.74
6.90
6.27
5.65
4.82
3.62
1.92
-0.34
-3.11
-6.26
-9.49
-12.38
-14.51
-15.61
-15.61
-14.59
-12.70
-9.96
-6.36
-1.86
3.36
8.86
13.91
17.76
19.82
19.88
18.20
15.31
11.83
8.36
5.32
3.02
1.64
1.24
1.69
2.70
3.90
4.97
5.73
6.21
6.53
6.71
6.58
5.82
4.26
2.00
-0.45
-2.35
-3.14
-2.66
-1.27
0.35
1.50
1.69
0.84
-0.87
-3.11
-5.54
-7.91
-10.08
-11.99
-13.60
-14.82
-15.47
-15.29
-14.07
-11.78
-8.61
-4.99
-1.35
1.98
4.83
7.19
9.08
10.48
11.32
11.51
10.97
9.63
7.59
5.09
2.62
0.76
0.01
0.56
2.22
4.53
7.06
9.58
12.06
14.49
16.59
17.88
17.85
16.31
13.53
10.13
6.78
3.89
1.62
-0.09
-1.19
-1.60
-1.29
-0.47
0.37
0.65
-0.02
-1.59
-3.67
-5.72
-7.46
-8.95
-10.49
-12.42
-14.77
-17.30
-19.59
-21.32
-22.39
-22.85
-22.75
-22.01
-20.40
-17.71
-14.01
-9.66
-5.28
-1.46
1.36
3.11
3.97
4.34
4.63
5.17
6.13
7.44
8.94
10.38
11.56
12.40
12.91
13.13
13.12
12.94
12.70
12.56
12.66
13.06
13.69
14.29
14.54
14.11
12.93
11.06
8.83
6.68
4.98
3.92
3.41
3.12
2.65
1.76
0.44
-1.11
-2.66
-4.17
-5.74
-7.57
-9.68
-11.86
-13.73
-15.00
-15.71
-16.28
-17.28
-19.10
-21.61
-24.26
-26.35
-27.44
-27.56
-27.08
-26.34
-25.34
-23.72
-21.00
-17.00
-12.11
-7.14
-3.04
-0.41
0.68
0.61
-0.05
-0.83
-1.48
-1.89
-1.98
-1.60
-0.61
1.00
3.02
5.07
6.78
7.92
8.57
8.96
9.33
9.80
10.29
10.57
10.45
9.82
8.73
7.33
5.84
4.46
3.35
2.60
2.27
2.29
2.55
2.77
2.59
1.65
-0.28
-3.11
-6.43
-9.68
-12.42
-14.51
-16.17
-17.77
-19.62
-21.75
-23.90
-25.68
-26.65
-26.51
-24.99
-22.00
-17.62
-12.22
-6.45
-1.12
3.12
5.96
7.51
8.11
8.13
7.79
7.25
6.62
6.16
6.14
6.82
8.26
10.29
12.53
14.55
15.99
16.70
16.74
16.28
15.47
14.34
12.84
10.92
8.63
6.13
3.66
1.48
-0.25
-1.51
-2.45
-3.27
-4.17
-5.27
-6.61
-8.17
-9.93
-11.87
-13.91
-15.97
-17.84
-19.29
-20.04
-19.88
-18.73
-16.61
-13.63
-9.91
-5.62
-1.09
3.22
6.76
9.09
10.12
10.14
9.70
9.33
9.34
9.76
10.46
11.29
12.22
13.22
14.26
15.10
15.49
15.23
14.36
13.20
12.12
11.40
11.00
10.59
9.77
8.34
6.46
4.58
3.24
2.70
2.76
2.82
2.21
0.59
-1.82
-4.36
-6.31
-7.20
-7.07
-6.34
-5.59
-5.28
-5.68
-6.86
-8.80
-11.44
-14.56
-17.82
-20.75
-22.91
-23.99
-24.05
-23.41
-22.53
-21.73
-21.04
-20.17
-18.65
-16.12
-12.57
-8.43
-4.40
-1.10
1.20
2.69
3.82
4.94
6.11
7.20
8.19
9.44
11.57
15.00
19.55
24.37
28.31
30.77
32.11
33.52
36.36
41.21
47.39
53.25
56.97
57.53
55.09
50.80
46.02
41.69
38.06
34.90
31.91
29.06
26.53
24.51
22.89
21.25
19.02
15.76
11.36
6.06
0.31
-5.49
-11.07
-16.37
-21.45
-26.36
-31.09
-35.46
-39.12
-41.65
-42.65
-42.01
-39.91
-36.89
-33.57
-30.44
-27.73
-25.44
-23.50
-21.87
-20.64
-19.87
-19.44
-19.06
-18.36
-17.06
-15.12
-12.74
-10.29
-8.12
-6.40
-5.11
-4.05
-2.90
-1.48
0.24
2.04
3.53
4.34
4.29
3.49
2.19
0.66
-0.94
-2.53
-4.07
-5.44
-6.52
-7.28
-7.80
-8.30
-8.90
-9.57
-10.13
-10.44
-10.64
-11.17
-12.61
-15.36
-19.31
-23.86
-28.15
-31.33
-32.94
-32.89
-31.42
-28.86
-25.53
-21.62
-17.28
-12.73
-8.27
-4.33
-1.22
0.92
2.27
3.12
3.80
4.40
4.88
5.07
4.96
4.68
4.52
4.75
5.51
6.78
8.41
10.12
11.64
12.67
12.94
12.37
11.07
9.34
7.62
6.20
5.11
4.15
3.06
1.66
-0.07
-2.04
-4.14
-6.37
-8.78
-11.43
-14.24
-16.95
-19.16
-20.43
-20.41
-18.95
-16.07
-11.96
-6.86
-1.16
4.70
10.15
14.59
17.61
19.04
19.12
18.35
17.35
16.59
16.26
16.29
16.53
16.91
17.51
18.50
19.97
21.82
23.72
25.24
25.96
25.61
24.17
21.78
18.73
15.37
11.98
8.68
5.44
2.11
-1.45
-5.30
-9.42
-13.69
-17.95
-21.90
-25.17
-27.29
-27.81
-26.44
-23.21
-18.47
-12.85
-7.03
-1.53
3.35
7.45
10.77
13.31
15.11
16.30
17.03
17.49
17.71
17.69
17.26
16.35
15.04
13.55
12.32
11.69
11.82
12.55
13.49
14.15
14.14
13.26
11.50
8.98
5.84
2.26
-1.55
-5.32
-8.74
-11.55
-13.69
-15.36
-16.91
-18.81
-21.44
-24.94
-29.17
-33.70
-37.85
-40.81
-41.93
-40.76
-37.28
-31.80
-24.91
-17.29
-9.57
-2.29
4.10
9.29
13.13
15.70
17.30
18.34
19.18
20.03
20.90
21.72
22.43
23.04
23.55
23.99
24.27
24.34
24.27
24.23
24.48
25.14
26.05
26.78
26.84
25.89
23.98
21.49
18.89
16.59
14.74
13.17
11.63
9.94
8.01
5.94
3.80
1.58
-0.81
-3.44
-6.29
-9.18
-11.85
-14.10
-15.88
-17.29
-18.54
-19.89
-21.61
-23.97
-27.18
-31.30
-36.08
-40.83
-44.60
-46.49
-45.96
-43.02
-38.16
-32.03
-25.17
-17.93
-10.62
-3.68
2.32
6.90
9.92
11.71
12.88
13.99
15.29
16.68
17.84
18.60
19.02
19.32
19.69
20.14
20.53
20.72
20.70
20.67
20.86
21.34
21.90
22.19
21.82
20.61
18.65
16.26
13.83
11.62
9.72
8.06
6.47
4.87
3.21
1.51
-0.26
-2.17
-4.29
-6.68
-9.29
-11.99
-14.64
-17.18
-19.70
-22.45
-25.71
-29.63
-34.03
-38.39
-41.94
-43.88
-43.64
-41.05
-36.37
-30.11
-22.91
-15.41
-8.25
-2.00
2.88
6.14
7.87
8.43
8.32
8.02
7.89
8.10
8.77
9.90
11.43
13.26
15.24
17.20
18.97
20.40
21.39
21.84
21.76
21.26
20.53
19.77
18.98
18.00
16.55
14.44
11.76
8.78
5.94
3.51
1.60
0.08
-1.29
-2.81
-4.78
-7.44
-10.89
-14.97
-19.20
-22.92
-25.43
-26.22
-25.10
-22.13
-17.58
-11.85
-5.45
0.97
6.81
11.56
15.03
17.33
18.78
19.75
20.52
21.29
22.22
23.40
24.73
25.94
26.59
26.34
25.19
23.58
22.16
21.53
21.88
22.90
24.01
24.64
24.47
23.48
21.79
19.58
17.02
14.29
11.61
9.18
7.10
5.29
3.56
1.70
-0.40
-2.71
-5.10
-7.48
-9.82
-12.24
-14.94
-18.17
-22.08
-26.57
-31.16
-35.09
-37.53
-37.89
-36.07
-32.47
-27.75
-22.50
-17.07
-11.55
-6.07
-0.97
3.25
6.18
7.77
8.41
8.78
9.40
10.45
11.71
12.84
13.61
14.03
14.30
14.61
15.04
15.57
16.14
16.74
17.45
18.26
19.06
19.58
19.55
18.80
17.33
15.30
12.91
10.40
7.96
5.76
3.90
2.35
0.97
-0.50
-2.29
-4.41
-6.62
-8.66
-10.41
-11.94
-13.51
-15.32
-17.37
-19.52
-21.63
-23.83
-26.44
-29.65
-33.28
-36.72
-39.12
-39.81
-38.63
-35.88
-31.98
-27.22
-21.65
-15.35
-8.68
-2.37
2.74
6.05
7.58
7.84
7.62
7.54
7.89
8.61
9.48
10.33
11.03
11.55
11.85
11.89
11.65
11.16
10.51
9.83
9.19
8.69
8.37
8.24
8.21
8.10
7.64
6.58
4.84
2.58
0.15
-2.07
-3.82
-5.10
-6.06
-6.86
-7.61
-8.30
-8.91
-9.51
-10.26
-11.26
-12.58
-14.15
-15.99
-18.22
-21.10
-24.81
-29.23
-33.80
-37.67
-40.07
-40.58
-39.26
-36.42
-32.30
-26.96
-20.45
-13.18
-6.09
-0.40
2.90
3.65
2.62
1.14
0.41
0.90
2.30
3.85
4.86
4.99
4.12
2.28
-0.38
-3.31
-5.35
-4.93
-0.63
7.94
19.72
32.41
43.32
50.34
52.56
50.24
44.33
36.00
26.31
16.23
6.65
-1.59
-7.95
-12.30
-14.98
-16.55
-17.69
-19.02
-20.98
-23.78
-27.24
-30.74
-33.39
-34.40
-33.46
-30.88
-27.39
-23.66
-19.93
-16.02
-11.62
-6.71
-1.72
2.68
5.93
7.92
8.91
9.40
9.76
10.20
10.79
11.52
12.43
13.39
14.22
14.70
14.74
14.52
14.41
14.68
15.39
16.23
16.72
16.55
15.64
14.16
12.31
10.17
7.63
4.61
1.22
-2.21
-5.21
-7.56
-9.42
-11.32
-13.86
-17.28
-21.28
-25.02
-27.50
-27.97
-26.19
-22.47
-17.37
-11.48
-5.31
0.71
6.15
10.62
13.88
15.98
17.23
18.07
18.82
19.56
20.14
20.46
20.55
20.62
20.89
21.43
22.08
22.53
22.59
22.27
21.83
21.51
21.42
21.41
21.22
20.60
19.45
17.82
15.79
13.42
10.66
7.50
4.00
0.39
-3.01
-5.90
-8.19
-10.00
-11.61
-13.43
-15.81
-19.05
-23.23
-28.18
-33.41
-38.17
-41.57
-42.92
-41.90
-38.63
-33.66
-27.68
-21.36
-15.15
-9.38
-4.25
-0.02
3.09
5.10
6.22
6.91
7.64
8.73
10.18
11.80
13.27
14.38
15.10
15.58
16.04
16.63
17.43
18.45
19.68
21.11
22.66
24.09
24.99
24.86
23.34
20.40
16.41
12.14
8.43
5.93
4.82
4.73
4.98
4.77
3.54
1.14
-2.16
-5.85
-9.36
-12.27
-14.51
-16.35
-18.23
-20.57
-23.60
-27.30
-31.56
-36.30
-41.56
-47.33
-53.34
-58.96
-63.22
-65.19
-64.33
-60.78
-55.28
-48.83
-42.36
-36.52
-31.65
-27.88
-25.24
-23.67
-23.00
-23.01
-23.49
-24.43
-25.94
-28.10
-30.80
-33.64
-36.16
-38.29
-40.70
-44.60
-51.11
-60.31
-70.53
-78.66
-81.53
-77.46
-67.58
-55.63
-46.20
-42.60
-45.73
-54.51
-67.65
-85.02
-107.19
-133.73
-161.58
-185.34
-199.87
-203.37
-198.83
-192.51
-190.11
-193.31
-198.82
-200.64
-193.80
-177.15
-153.27
-126.18
-98.32
-69.18
-36.20
2.92
47.96
95.54
139.99
175.67
199.17
210.39
212.35
209.61
206.04
203.32
200.70
195.98
187.19
173.87
157.31
139.84
123.78
110.59
100.77
94.16
90.40
89.20
90.41
93.87
99.14
105.49
111.91
117.30
120.79
121.89
120.70
117.82
114.10
110.26
106.69
103.35
99.89
95.86
90.83
84.48
76.61
67.17
56.28
44.33
31.88
19.64
8.32
-1.43
-8.99
-13.78
-15.31
-13.40
-8.30
-0.89
7.49
15.40
21.75
26.10
28.71
30.24
31.37
32.50
33.64
34.53
34.83
34.32
33.01
31.10
28.88
26.64
24.57
22.72
21.06
19.58
18.35
17.49
17.02
16.74
16.25
15.04
12.84
9.76
6.31
3.16
0.79
-0.72
-1.69
-2.61
-3.96
-6.00
-8.85
-12.48
-16.78
-21.51
-26.19
-30.12
-32.49
-32.64
-30.25
-25.48
-18.96
-11.59
-4.28
2.19
7.37
11.10
13.47
14.75
15.30
15.44
15.47
15.54
15.67
15.71
15.47
14.79
13.65
12.15
10.45
8.68
6.88
5.07
3.37
2.01
1.20
1.04
1.34
1.73
1.76
1.19
0.04
-1.42
-2.95
-4.43
-6.00
-7.93
-10.47
-13.76
-17.78
-22.40
-27.53
-33.07
-38.89
-44.75
-50.22
-54.76
-57.81
-58.89
-57.81
-54.60
-49.56
-43.11
-35.70
-27.77
-19.74
-11.99
-4.87
1.36
6.56
10.70
13.90
16.31
18.08
19.32
20.10
20.46
20.44
20.14
19.65
19.11
18.64
18.33
18.21
18.31
18.54
18.75
18.70
18.17
16.98
15.19
13.07
11.05
9.41
8.22
7.22
5.96
4.04
1.38
-1.83
-5.21
-8.50
-11.69
-15.00
-18.72
-22.92
-27.41
-31.73
-35.36
-37.84
-38.89
-38.30
-35.97
-31.87
-26.16
-19.32
-12.09
-5.31
0.34
4.58
7.57
9.70
11.41
12.96
14.39
15.63
16.58
17.27
17.77
18.16
18.42
18.45
18.13
17.43
16.53
15.70
15.27
15.42
16.08
16.83
17.11
16.40
14.44
11.43
7.89
4.45
1.55
-0.76
-2.77
-4.88
-7.39
-10.38
-13.73
-17.31
-21.06
-24.85
-28.44
-31.33
-32.82
-32.28
-29.40
-24.38
-17.89
-10.86
-4.21
1.43
5.80
8.92
11.01
12.34
13.14
13.55
13.68
13.62
13.44
13.21
12.96
12.67
12.34
12.03
11.85
11.92
12.24
12.66
12.89
12.53
11.33
9.23
6.42
3.25
0.10
-2.80
-5.43
-8.02
-10.85
-14.14
-17.92
-21.95
-25.86
-29.14
-31.41
-32.33
-31.67
-29.34
-25.30
-19.77
-13.23
-6.41
-0.05
5.23
9.21
12.06
14.15
15.88
17.44
18.75
19.63
19.95
19.75
19.28
18.81
18.45
18.19
17.88
17.36
16.60
15.73
14.97
14.48
14.22
13.95
13.25
11.79
9.42
6.29
2.77
-0.68
-3.76
-6.38
-8.70
-11.03
-13.71
-16.97
-20.87
-25.27
-29.76
-33.83
-36.80
-38.10
-37.32
-34.37
-29.50
-23.30
-16.50
-9.81
-3.79
1.28
5.36
8.60
11.12
13.05
14.44
15.35
15.98
16.54
17.22
18.05
18.90
19.53
19.72
19.47
18.96
18.53
18.43
18.80
19.54
20.40
21.05
21.23
20.77
19.63
17.92
15.82
13.59
11.43
9.47
7.72
6.09
4.45
2.67
0.69
-1.51
-3.89
-6.39
-8.94
-11.45
-13.83
-15.97
-17.88
-19.64
-21.52
-23.85
-26.90
-30.69
-34.90
-38.93
-42.02
-43.51
-43.00
-40.42
-36.01
-30.22
-23.59
-16.69
-10.06
-4.16
0.71
4.40
7.03
8.90
10.36
11.71
13.06
14.35
15.44
16.24
16.74
17.07
17.33
17.61
17.83
17.91
17.78
17.44
17.04
16.78
16.74
16.86
16.93
16.65
15.80
14.38
12.55
10.62
8.86
7.39
6.19
5.10
3.95
2.63
1.15
-0.43
-2.05
-3.66
-5.34
-7.19
-9.30
-11.67
-14.21
-16.68
-18.89
-20.72
-22.23
-23.65
-25.26
-27.25
-29.63
-32.08
-34.09
-35.08
-34.60
-32.40
-28.53
-23.30
-17.21
-10.90
-5.04
-0.21
3.29
5.43
6.44
6.74
6.78
6.91
7.26
7.84
8.51
9.16
9.72
10.24
10.81
11.54
12.48
13.57
14.73
15.86
16.85
17.59
17.93
17.75
16.95
15.58
13.83
12.07
10.60
9.60
8.96
8.45
7.78
6.79
5.49
4.03
2.53
1.04
-0.49
-2.13
-3.85
-5.61
-7.33
-8.96
-10.51
-11.95
-13.28
-14.44
-15.50
-16.66
-18.20
-20.35
-23.14
-26.31
-29.36
-31.78
-33.13
-33.19
-31.91
-29.34
-25.62
-20.95
-15.65
-10.22
-5.16
-0.96
2.15
4.20
5.42
6.21
6.90
7.67
8.58
9.53
10.37
10.98
11.27
11.27
11.05
10.72
10.37
10.10
10.00
10.14
10.60
11.40
12.48
13.57
14.32
14.37
13.54
11.96
10.04
8.28
7.01
6.28
5.84
5.32
4.42
3.03
1.20
-0.94
-3.29
-5.72
-8.11
-10.28
-12.03
-13.20
-13.79
-13.95
-14.04
-14.45
-15.48
-17.25
-19.62
-22.25
-24.76
-26.78
-28.08
-28.54
-28.09
-26.70
-24.33
-21.01
-16.95
-12.52
-8.24
-4.55
-1.75
0.21
1.56
2.72
3.99
5.52
7.24
8.91
10.21
10.90
10.89
10.31
9.47
8.70
8.27
8.25
8.54
8.95
9.29
9.49
9.57
9.57
9.49
9.28
8.87
8.24
7.43
6.48
5.43
4.24
2.93
1.48
-0.04
-1.54
-3.00
-4.43
-5.88
-7.37
-8.82
-10.09
-11.05
-11.67
-12.04
-12.31
-12.68
-13.32
-14.33
-15.77
-17.66
-19.92
-22.37
-24.78
-26.79
-28.00
-28.02
-26.58
-23.66
-19.48
-14.52
-9.39
-4.71
-0.90
1.88
3.76
5.05
6.08
7.11
8.23
9.32
10.16
10.60
10.62
10.39
10.21
10.35
10.92
11.87
12.99
14.03
14.78
15.04
14.72
13.89
12.72
11.49
10.51
9.94
9.73
9.58
9.14
8.16
6.67
4.93
3.28
1.92
0.84
-0.15
-1.31
-2.75
-4.38
-5.94
-7.19
-8.00
-8.47
-8.91
-9.63
-10.81
-12.42
-14.23
-15.97
-17.54
-19.08
-20.85
-23.10
-25.87
-28.87
-31.60
-33.44
-33.91
-32.76
-30.01
-25.91
-20.89
-15.42
-9.98
-4.99
-0.77
2.54
4.95
6.57
7.56
8.15
8.50
8.84
9.35
10.14
11.12
12.05
12.67
12.77
12.36
11.71
11.17
11.05
11.45
12.27
13.21
14.00
14.46
14.55
14.35
14.02
13.69
13.41
13.13
12.72
12.08
11.18
10.09
8.88
7.62
6.33
4.94
3.41
1.71
-0.18
-2.27
-4.53
-6.92
-9.36
-11.71
-13.84
-15.68
-17.22
-18.47
-19.50
-20.43
-21.42
-22.74
-24.67
-27.32
-30.51
-33.74
-36.35
-37.73
-37.57
-35.82
-32.71
-28.52
-23.46
-17.75
-11.67
-5.68
-0.36
3.79
6.56
8.16
9.07
9.84
10.77
11.87
12.93
13.72
14.20
14.53
14.97
15.66
16.61
17.60
18.46
19.13
19.68
20.27
20.97
21.68
22.15
22.14
21.48
20.23
18.60
16.84
15.21
13.80
12.59
11.41
10.13
8.61
6.80
4.84
2.88
1.11
-0.42
-1.86
-3.44
-5.44
-7.96
-10.86
-13.82
-16.51
-18.78
-20.69
-22.51
-24.50
-26.81
-29.45
-32.28
-35.16
-37.87
-40.14
-41.60
-41.78
-40.25
-36.83
-31.62
-25.15
-18.14
-11.36
-5.34
-0.27
3.89
7.26
9.87
11.60
12.41
12.44
12.12
12.01
12.51
13.67
15.24
16.82
18.21
19.47
20.83
22.42
24.11
25.52
26.24
26.12
25.32
24.20
23.12
22.20
21.37
20.47
19.43
18.29
17.16
16.12
15.11
13.96
12.52
10.69
8.58
6.40
4.36
2.53
0.75
-1.25
-3.71
-6.72
-10.12
-13.63
-16.94
-19.95
-22.74
-25.58
-28.70
-32.22
-36.05
-39.96
-43.66
-46.81
-49.02
-49.89
-49.03
-46.18
-41.28
-34.57
-26.59
-18.07
-9.77
-2.35
3.77
8.48
11.86
14.19
15.74
16.75
17.41
17.87
18.26
18.76
19.51
20.65
22.15
23.86
25.53
26.91
27.83
28.27
28.30
28.01
27.47
26.78
26.01
25.27
24.63
24.05
23.36
22.28
20.59
18.24
15.44
12.52
9.79
7.34
5.05
2.69
0.05
-2.88
-5.97
-8.99
-11.79
-14.33
-16.73
-19.17
-21.82
-24.85
-28.32
-32.24
-36.53
-41.04
-45.53
-49.61
-52.75
-54.25
-53.47
-49.94
-43.68
-35.21
-25.55
-15.84
-7.09
0.14
5.79
10.10
13.44
16.08
18.14
19.65
20.69
21.43
22.11
23.01
24.16
25.46
26.65
27.47
27.84
27.97
28.15
28.62
29.33
29.96
30.08
29.34
27.81
25.81
23.84
22.23
20.96
19.72
18.08
15.74
12.71
9.31
6.04
3.26
1.11
-0.60
-2.25
-4.22
-6.72
-9.70
-12.85
-15.81
-18.39
-20.68
-23.06
-26.06
-30.13
-35.42
-41.64
-48.04
-53.57
-57.04
-57.46
-54.18
-47.05
-36.45
-23.35
-9.28
3.89
14.26
20.50
22.21
20.21
16.17
12.06
9.34
8.51
9.18
10.47
11.62
12.35
12.86
13.56
14.67
16.10
17.50
18.56
19.26
19.88
20.92
22.77
25.46
28.58
31.42
33.28
33.68
32.51
29.97
26.44
22.27
17.74
13.02
8.22
3.40
-1.46
-6.38
-11.29
-15.95
-19.91
-22.70
-24.11
-24.40
-24.32
-24.83
-26.78
-30.50
-35.78
-41.93
-48.04
-53.19
-56.61
-57.68
-55.99
-51.37
-44.05
-34.67
-24.27
-14.00
-4.90
2.42
7.86
11.75
14.56
16.76
18.64
20.31
21.80
23.16
24.45
25.71
26.88
27.84
28.44
28.73
28.89
29.26
30.09
31.39
32.85
33.97
34.27
33.51
31.73
29.19
26.29
23.33
20.49
17.81
15.22
12.55
9.66
6.42
2.84
-0.95
-4.71
-8.12
-10.99
-13.37
-15.63
-18.30
-21.98
-26.97
-33.14
-39.91
-46.37
-51.49
-54.33
-54.26
-50.94
-44.40
-35.03
-23.52
-10.86
1.85
13.59
23.63
31.68
37.85
42.59
46.45
50.05
53.94
58.50
63.84
69.75
75.67
80.90
84.94
87.75
89.88
92.32
95.96
101.21
107.69
114.41
120.20
124.21
126.16
126.12
124.12
119.71
112.19
101.24
87.24
71.11
53.41
33.63
10.21
-17.92
-50.07
-82.97
-111.62
-131.65
-141.64
-143.93
-143.40
-144.62
-149.32
-155.78
-160.28
-159.81
-154.06
-145.63
-138.52
-135.95
-138.97
-146.15
-154.59
-161.16
-163.63
-161.17
-153.99
-143.04
-129.38
-113.95
-97.50
-80.68
-64.26
-49.33
-37.19
-28.50
-22.69
-17.79
-11.12
-0.93
12.38
26.13
36.66
41.46
40.79
37.50
35.39
36.95
41.86
47.28
49.69
46.91
39.24
29.20
19.71
12.65
8.16
4.98
1.77
-1.69
-3.96
-2.41
5.59
21.21
43.36
68.72
92.91
111.94
123.59
127.90
126.61
122.16
116.45
110.38
103.89
96.63
88.61
80.39
72.66
65.71
59.03
51.40
41.62
29.25
15.07
0.99
-10.60
-17.79
-19.77
-17.05
-11.17
-4.00
2.92
8.71
13.20
16.64
19.36
21.56
23.25
24.39
24.98
25.18
25.19
25.18
25.21
25.18
24.95
24.42
23.60
22.66
21.93
21.67
22.05
22.94
23.98
24.67
24.64
23.81
22.42
20.95
19.90
19.50
19.74
20.34
21.01
21.48
21.63
21.41
20.72
19.51
17.76
15.62
13.31
11.03
8.81
6.36
3.07
-1.83
-9.08
-19.18
-32.01
-46.82
-62.19
-76.37
-87.65
-94.89
-97.87
-97.25
-94.28
-90.26
-86.09
-82.03
-77.76
-72.79
-66.71
-59.42
-51.13
-42.29
-33.43
-25.08
-17.65
-11.37
-6.27
-2.11
1.59
5.51
10.42
17.00
25.57
35.79
46.65
56.55
63.72
66.89
65.70
60.83
53.71
45.89
38.50
31.97
26.07
20.31
14.21
7.52
0.21
-7.64
-15.90
-24.43
-33.07
-41.60
-49.64
-56.63
-61.64
-63.46
-60.72
-52.51
-38.86
-21.16
-1.94
15.88
29.90
38.94
43.15
43.61
41.55
37.87
33.02
27.22
20.84
14.47
8.85
4.50
1.54
-0.37
-1.78
-3.19
-4.80
-6.46
-7.82
-8.46
-8.19
-7.14
-5.77
-4.64
-4.23
-4.67
-5.70
-6.73
-6.98
-5.80
-2.93
1.39
6.32
10.66
13.22
13.26
10.69
6.04
0.14
-6.24
-12.59
-18.59
-23.82
-27.54
-28.70
-26.33
-20.03
-10.34
1.29
12.99
23.05
30.45
35.01
37.23
37.88
37.73
37.32
36.91
36.52
36.03
35.11
33.35
30.27
25.48
18.80
10.31
0.37
-10.32
-20.75
-29.66
-35.74
-38.08
-36.41
-31.35
-24.17
-16.29
-8.78
-1.97
4.46
11.02
17.89
24.64
30.28
33.63
33.87
30.86
25.20
17.83
9.70
1.32
-7.27
-16.33
-25.98
-35.93
-45.37
-53.18
-58.26
-59.96
-58.23
-53.52
-46.67
-38.52
-29.85
-21.28
-13.31
-6.40
-0.80
3.45
6.58
9.03
11.21
13.34
15.41
17.27
18.73
19.71
20.20
20.34
20.27
20.27
20.73
22.15
25.02
29.63
35.92
43.44
51.45
59.12
65.55
69.92
71.50
69.85
65.00
57.50
48.33
38.63
29.23
20.33
11.56
2.34
-7.60
-17.87
-27.66
-36.14
-43.11
-49.10
-55.18
-62.16
-69.86
-76.94
-81.39
-81.40
-76.38
-67.30
-56.46
-46.52
-39.46
-35.89
-35.09
-35.42
-35.18
-33.30
-29.75
-25.50
-22.20
-21.37
-23.83
-28.88
-34.10
-35.74
-29.56
-12.09
18.16
59.55
107.04
152.97
188.88
208.08
207.95
190.94
163.61
133.97
108.30
88.94
74.34
60.93
45.92
28.87
11.66
-3.38
-15.30
-25.28
-35.67
-48.28
-62.96
-77.66
-89.70
-97.36
-100.92
-102.25
-103.50
-105.85
-108.91
-111.11
-110.60
-106.16
-97.80
-86.80
-75.36
-65.92
-60.32
-59.17
-61.59
-65.54
-68.69
-69.40
-67.35
-63.53
-59.65
-57.29
-57.28
-59.49
-63.18
-67.34
-71.18
-74.36
-77.04
-79.66
-82.71
-86.39
-90.45
-94.34
-97.32
-98.91
-98.89
-97.33
-94.38
-90.05
-84.20
-76.48
-66.32
-52.99
-35.71
-13.98
12.08
41.45
72.25
102.13
128.87
150.91
167.56
178.95
185.83
189.27
190.53
190.80
190.93
191.25
191.43
190.64
187.96
182.91
175.68
167.26
159.09
152.76
149.70
150.92
156.63
165.94
176.55
185.01
187.49
180.97
164.22
138.12
105.25
68.93
32.28
-2.31
-33.18
-59.21
-79.78
-94.90
-105.43
-113.03
-119.74
-127.29
-136.41
-146.72
-156.86
-165.23
-170.62
-172.60
-171.62
-168.55
-164.33
-159.47
-154.06
-147.97
-141.13
-133.71
-126.06
-118.53
-111.18
-103.79
-95.95
-87.29
-77.66
-67.24
-56.46
-45.87
-35.95
-26.92
-18.65
-10.66
-2.28
7.04
17.52
28.93
40.66
51.99
62.24
70.97
77.95
83.09
86.41
87.97
87.96
86.72
84.76
82.66
80.94
79.81
79.15
78.53
77.44
75.52
72.73
69.32
65.59
61.73
57.71
53.36
48.54
43.40
38.38
34.21
31.78
31.98
35.47
42.49
52.61
64.66
76.86
87.20
93.87
95.73
92.40
84.23
72.08
57.10
40.54
23.72
7.95
-5.60
-15.98
-22.71
-25.86
-26.16
-24.78
-23.02
-21.93
-22.05
-23.39
-25.62
-28.42
-31.66
-35.43
-39.79
-44.59
-49.45
-53.93
-57.87
-61.64
-66.06
