1520864561.00
64.000000
-0.00
-0.00
-0.00
-0.00
-0.00
-0.00
-0.00
-0.00
-0.00
-0.00
0.00
0.01
0.01
-0.00
-0.03
-0.05
-0.05
0.00
0.13
0.36
0.66
1.01
1.37
1.72
2.06
2.40
2.79
3.24
3.80
4.42
5.06
5.66
6.20
6.68
7.15
7.68
8.31
9.14
10.09
11.04
11.88
12.56
13.14
13.76
14.65
15.96
17.91
20.32
22.90
25.38
27.58
29.57
31.68
34.32
37.81
42.54
48.15
54.10
59.83
64.97
69.58
74.14
79.34
85.71
93.76
103.00
112.62
121.73
129.77
136.75
143.30
150.75
157.77
166.64
177.95
191.79
206.97
220.57
228.25
225.36
208.53
176.87
132.76
80.05
23.07
-34.94
-92.44
-149.16
-205.23
-260.37
-313.74
-363.87
-409.83
-450.91
-486.50
-515.74
-537.23
-549.22
-549.96
-538.37
-514.21
-478.67
-433.88
-382.45
-327.02
-269.84
-212.63
-156.66
-102.95
-52.38
-5.91
35.58
71.43
101.37
125.53
144.42
158.76
169.24
176.49
180.91
182.77
182.32
179.80
175.58
170.06
163.64
156.67
149.39
141.95
134.41
126.80
119.19
111.62
104.18
96.92
89.90
83.15
76.69
70.54
64.69
59.16
53.96
49.10
44.58
40.40
36.56
33.05
29.86
26.99
24.44
22.21
20.28
18.65
17.32
16.27
15.49
14.96
14.68
14.62
14.76
15.10
15.60
16.26
17.06
17.99
19.05
20.24
21.55
22.97
24.47
26.03
27.57
29.02
30.25
31.13
31.51
31.25
30.22
28.34
25.58
21.98
17.61
12.64
7.28
1.77
-3.63
-8.67
-13.15
-16.89
-19.78
-21.79
-22.92
-23.24
-22.87
-21.92
-20.53
-18.82
-16.88
-14.80
-12.63
-10.38
-8.09
-5.78
-3.45
-1.11
1.27
3.70
6.18
8.75
11.45
14.21
17.03
19.89
22.79
25.77
28.83
32.04
35.44
39.13
43.00
47.00
51.10
55.32
59.68
64.21
68.97
74.07
79.60
85.41
91.39
97.47
103.63
109.84
116.07
122.34
128.69
135.19
141.51
147.40
152.63
156.95
160.06
161.52
160.72
156.76
151.33
144.98
138.07
130.81
123.38
115.89
108.48
101.25
94.35
87.96
81.86
75.94
70.14
64.46
58.92
53.57
48.48
43.77
39.60
35.79
32.29
29.05
26.02
23.20
20.57
18.14
15.93
14.00
12.23
10.57
9.00
7.53
6.16
4.91
3.79
2.85
2.09
1.45
0.89
0.37
-0.14
-0.65
-1.18
-1.73
-2.27
-2.81
-3.34
-3.85
-4.34
-4.83
-5.30
-5.78
-6.29
-6.83
-7.38
-7.93
-8.44
-8.88
-9.28
-9.65
-10.03
-10.44
-10.86
-11.26
-11.60
-11.81
-11.87
-11.79
-11.67
-11.63
-11.75
-12.12
-12.73
-13.53
-14.44
-15.43
-16.57
-18.01
-19.93
-22.47
-25.64
-29.28
-33.12
-36.86
-40.32
-43.58
-46.92
-50.77
-55.48
-61.16
-67.62
-74.40
-81.01
-87.19
-93.04
-99.07
-105.96
-114.27
-124.18
-135.35
-147.15
-158.83
-169.95
-180.48
-190.84
-201.73
-214.06
-228.83
-246.83
-268.21
-291.88
-315.24
-334.46
-345.56
-345.78
-334.67
-314.20
-288.08
-260.29
-233.87
-210.39
-190.22
-173.22
-159.30
-148.55
-141.02
-136.33
-133.58
-131.69
-129.78
-127.50
-125.04
-122.96
-121.65
-121.02
-120.34
-118.46
-114.28
-107.22
-97.55
-86.37
-75.20
-65.43
-57.77
-52.11
-47.58
-42.98
-37.17
-29.39
-19.40
-7.42
5.97
19.99
33.77
46.50
57.60
66.72
73.81
78.86
81.94
82.97
81.90
78.80
73.97
67.90
61.16
54.31
47.74
41.68
36.26
31.58
27.79
24.99
23.20
22.35
22.20
22.43
22.67
22.56
21.77
20.09
17.41
13.79
9.44
4.73
0.15
-3.74
-6.36
-7.20
-5.93
-2.37
3.45
11.30
20.75
31.16
41.70
51.52
59.79
65.87
69.43
70.44
69.11
65.76
60.66
54.05
46.23
37.69
29.27
22.09
17.29
15.58
16.92
20.36
24.23
26.72
26.47
23.10
17.34
10.62
4.63
0.59
-1.04
-0.65
0.86
2.46
3.24
2.69
0.62
-2.79
-6.95
-10.99
-13.83
-14.48
-12.43
-7.84
-1.56
5.17
11.18
15.76
18.70
20.22
20.71
20.51
19.91
19.13
18.36
17.72
17.26
16.91
16.57
16.16
15.75
15.46
15.41
15.57
15.76
15.70
15.04
13.55
11.04
7.55
3.28
-1.34
-5.78
-9.46
-12.00
-13.34
-13.75
-13.74
-13.75
-14.00
-14.32
-14.22
-13.14
-10.71
-6.93
-2.20
2.87
7.73
11.99
15.58
18.62
21.21
23.33
24.89
25.74
25.90
25.56
25.03
24.58
24.38
24.42
24.56
24.61
24.40
23.77
22.56
20.63
17.96
14.63
10.88
7.07
3.57
0.55
-1.98
-4.17
-6.24
-8.39
-10.76
-13.43
-16.43
-19.58
-22.53
-24.62
-25.15
-23.50
-19.48
-13.47
-6.26
1.09
7.76
13.28
17.67
21.13
23.82
25.74
26.75
26.78
25.92
24.57
23.19
22.20
21.77
21.77
21.92
21.92
21.59
20.90
19.98
18.92
17.86
16.76
15.56
14.13
12.34
10.13
7.58
4.83
2.06
-0.57
-2.97
-5.20
-7.43
-9.88
-12.75
-16.14
-19.90
-23.66
-26.76
-28.51
-28.26
-25.67
-20.78
-14.07
-6.28
1.73
9.14
15.38
20.16
23.48
25.52
26.52
26.70
26.20
25.10
23.56
21.85
20.35
19.42
19.20
19.55
20.09
20.35
20.04
19.22
18.18
17.27
16.69
16.43
16.26
15.91
15.21
14.10
12.59
10.77
8.61
6.09
3.27
0.29
-2.61
-5.20
-7.33
-9.09
-10.75
-12.69
-15.12
-17.97
-20.72
-22.58
-22.71
-20.60
-16.30
-10.47
-4.09
1.88
6.80
10.49
13.12
15.07
16.71
18.23
19.73
21.20
22.53
23.67
24.56
25.24
25.72
25.96
25.87
25.33
24.22
22.49
20.19
17.47
14.51
11.53
8.69
6.15
4.03
2.37
1.17
0.32
-0.33
-0.96
-1.66
-2.49
-3.43
-4.36
-5.23
-6.10
-7.11
-8.56
-10.84
-14.10
-18.22
-22.51
-26.00
-27.69
-26.95
-23.81
-18.95
-13.42
-8.19
-3.81
-0.26
2.81
5.81
8.92
12.01
14.77
16.89
18.22
18.78
18.74
18.32
17.71
17.10
16.74
16.86
17.67
19.21
21.27
23.43
25.23
26.20
26.17
25.19
23.44
21.21
18.70
16.11
13.46
10.84
8.36
6.08
4.03
2.17
0.41
-1.31
-3.08
-4.87
-6.71
-8.61
-10.58
-12.56
-14.37
-15.67
-16.03
-15.08
-12.63
-8.73
-3.75
1.73
7.06
11.65
15.12
17.30
18.28
18.30
17.68
16.66
15.39
13.99
12.55
11.21
10.18
9.59
9.47
9.68
9.94
9.98
9.61
8.85
7.84
6.79
5.82
4.96
4.09
3.04
1.73
0.12
-1.78
-3.85
-6.00
-8.10
-10.04
-11.70
-13.01
-13.98
-14.69
-15.36
-16.20
-17.45
-19.14
-21.13
-22.98
-24.05
-23.73
-21.55
-17.52
-12.03
-5.92
-0.06
4.82
8.39
10.68
11.96
12.57
12.73
12.56
12.05
11.32
10.60
10.22
10.48
11.42
12.87
14.40
15.57
16.03
15.79
15.03
14.08
13.18
12.41
11.68
10.83
9.70
8.20
6.36
4.28
2.11
0.07
-1.73
-3.24
-4.49
-5.64
-6.97
-8.65
-10.78
-13.22
-15.61
-17.49
-18.38
-17.98
-16.19
-13.20
-9.34
-5.10
-0.87
3.00
6.17
8.41
9.62
9.82
9.24
8.23
7.14
6.26
5.72
5.51
5.62
6.07
6.87
7.98
9.25
10.36
11.02
11.03
10.37
9.24
7.91
6.59
5.30
3.97
2.41
0.51
-1.66
-3.90
-5.89
-7.41
-8.41
-9.01
-9.54
-10.31
-11.52
-13.15
-15.05
-16.96
-18.65
-19.93
-20.58
-20.32
-18.94
-16.36
-12.83
-8.89
-5.24
-2.46
-0.82
-0.24
-0.33
-0.65
-0.89
-0.87
-0.59
-0.07
0.64
1.49
2.34
3.02
3.32
3.17
2.61
1.96
1.58
1.85
2.97
4.81
7.01
8.99
10.19
10.22
8.98
6.73
3.93
1.14
-1.23
-2.95
-4.07
-4.84
-5.56
-6.51
-7.82
-9.35
-10.76
-11.49
-11.01
-8.97
-5.39
-0.64
4.60
9.63
13.86
17.03
19.04
20.00
20.02
19.23
17.86
16.23
14.72
13.63
13.04
12.79
12.50
11.78
10.41
8.56
6.54
4.72
3.26
1.99
0.53
-1.50
-4.25
-7.47
-10.58
-12.90
-13.88
-13.41
-11.86
-10.04
-8.98
-9.52
-12.13
-16.67
-22.38
-28.11
-32.56
-34.65
-33.76
-29.82
-23.39
-15.40
-7.10
0.37
6.10
9.63
10.99
10.67
9.34
7.71
6.31
5.40
5.04
5.18
5.67
6.32
6.90
7.15
6.86
5.96
4.57
2.94
1.40
0.23
-0.44
-0.60
-0.41
-0.05
0.27
0.43
0.38
0.23
0.13
0.23
0.49
0.69
0.41
-0.78
-3.10
-6.41
-10.19
-13.66
-16.04
-16.77
-15.66
-12.87
-8.83
-4.07
0.88
5.58
9.66
12.80
14.82
15.57
15.04
13.39
10.94
8.14
5.54
3.61
2.66
2.72
3.55
4.82
6.16
7.35
8.32
9.00
9.38
9.34
8.77
7.66
6.14
4.42
2.71
1.13
-0.38
-1.91
-3.51
-5.13
-6.74
-8.32
-10.01
-11.93
-14.09
-16.24
-17.89
-18.38
-17.20
-14.21
-9.75
-4.54
0.57
4.84
7.84
9.44
9.78
9.05
7.43
5.14
2.45
-0.22
-2.31
-3.33
-3.05
-1.55
0.72
3.14
5.19
6.60
7.32
7.54
7.40
6.94
6.07
4.66
2.62
0.06
-2.80
-5.61
-8.12
-10.16
-11.82
-13.28
-14.78
-16.51
-18.52
-20.65
-22.61
-23.89
-23.92
-22.23
-18.66
-13.45
-7.28
-1.07
4.30
8.30
10.78
11.98
12.29
11.98
11.21
10.00
8.45
6.83
5.49
4.81
4.93
5.76
6.94
8.08
8.79
8.92
8.45
7.51
6.28
4.89
3.43
1.95
0.46
-1.06
-2.65
-4.36
-6.35
-8.76
-11.72
-15.12
-18.64
-21.63
-23.35
-23.12
-20.63
-15.97
-9.72
-2.69
4.28
10.46
15.38
18.76
20.47
20.61
19.38
17.10
14.17
11.04
8.06
5.45
3.39
1.96
1.16
0.96
1.15
1.43
1.47
1.04
0.15
-1.06
-2.33
-3.51
-4.59
-5.69
-6.91
-8.25
-9.66
-11.09
-12.63
-14.46
-16.70
-19.21
-21.53
-22.92
-22.72
-20.64
-16.85
-11.91
-6.55
-1.39
3.24
7.11
10.11
12.02
12.69
12.10
10.55
8.61
6.95
6.10
6.21
7.04
8.12
9.04
9.55
9.63
9.36
8.75
7.80
6.40
4.60
2.58
0.65
-0.88
-1.86
-2.41
-2.90
-3.75
-5.42
-8.13
-11.84
-16.21
-20.63
-24.25
-26.23
-25.93
-23.09
-18.04
-11.44
-4.22
2.65
8.44
12.68
15.11
15.72
14.71
12.48
9.62
6.83
4.70
3.60
3.54
4.29
5.42
6.55
7.42
7.89
8.02
7.87
7.61
7.32
7.06
6.78
6.43
5.92
5.17
4.11
2.61
0.62
-1.99
-5.19
-8.91
-12.91
-16.84
-20.26
-22.68
-23.65
-22.81
-20.03
-15.49
-9.67
-3.31
2.88
8.26
12.45
15.19
16.38
16.04
14.31
11.59
8.48
5.79
4.21
4.21
5.87
8.87
12.66
16.59
20.17
23.08
25.18
26.44
26.86
26.42
25.12
23.03
20.29
17.17
13.95
10.85
7.94
5.10
2.08
-1.40
-5.51
-10.22
-15.19
-19.73
-23.00
-24.16
-22.64
-18.37
-11.89
-4.12
3.74
10.67
15.99
19.48
21.29
21.77
21.26
20.13
18.62
16.96
15.35
13.88
12.57
11.29
9.92
8.39
6.80
5.48
4.77
4.98
6.05
7.62
9.08
9.78
9.31
7.66
5.17
2.29
-0.61
-3.44
-6.34
-9.58
-13.36
-17.75
-22.66
-27.78
-32.66
-36.59
-38.75
-38.44
-35.34
-29.67
-22.26
-14.23
-6.66
-0.31
4.47
7.64
9.31
9.63
8.85
7.29
5.38
3.62
2.41
2.05
2.67
4.39
7.17
10.86
15.02
19.09
22.43
24.54
25.21
24.52
22.78
20.34
17.50
14.42
11.30
8.21
5.28
2.54
-0.15
-3.03
-6.34
-10.08
-13.94
-17.25
-19.20
-19.17
-16.88
-12.56
-6.88
-0.70
5.15
10.03
13.60
15.80
16.80
16.92
16.52
15.94
15.47
15.32
15.60
16.34
17.37
18.47
19.32
19.70
19.48
18.63
17.17
15.09
12.38
9.08
5.35
1.47
-2.16
-5.24
-7.66
-9.53
-11.12
-12.76
-14.73
-17.14
-19.99
-23.09
-26.01
-28.11
-28.66
-26.98
-22.83
-16.48
-8.73
-0.67
6.67
12.63
17.02
19.93
21.61
22.28
22.01
20.93
19.29
17.47
15.88
14.81
14.31
14.19
14.16
14.01
13.69
13.30
12.97
12.69
12.22
11.23
9.40
6.58
3.01
-0.80
-4.31
-7.03
-8.86
-10.00
-10.83
-11.85
-13.49
-16.00
-19.36
-23.32
-27.29
-30.45
-31.86
-30.80
-26.97
-20.68
-12.77
-4.37
3.50
10.14
15.19
18.58
20.42
20.84
20.15
18.74
17.13
15.80
15.14
15.25
15.96
16.91
17.69
18.04
17.91
17.46
16.87
16.33
15.79
15.09
13.99
12.31
10.03
7.26
4.17
0.95
-2.20
-5.15
-7.75
-9.92
-11.77
-13.59
-15.83
-18.88
-22.85
-27.30
-31.36
-33.89
-33.86
-30.81
-24.98
-17.23
-8.75
-0.65
6.44
12.30
17.01
20.71
23.31
24.61
24.44
22.94
20.59
18.11
16.14
15.07
14.84
15.14
15.61
15.99
16.13
16.04
15.70
15.09
14.22
13.15
11.90
10.53
8.97
7.16
5.08
2.77
0.39
-1.87
-3.86
-5.58
-7.21
-9.02
-11.36
-14.45
-18.29
-22.56
-26.66
-29.81
-31.33
-30.77
-27.99
-23.23
-16.95
-9.81
-2.55
4.12
9.62
13.63
16.13
17.34
17.57
17.16
16.39
15.51
14.76
14.37
14.45
14.98
15.73
16.40
16.82
16.97
17.04
17.13
17.38
17.61
17.63
17.24
16.39
15.13
13.57
11.76
9.69
7.34
4.74
2.11
-0.20
-1.91
-2.90
-3.37
-3.73
-4.51
-6.08
-8.52
-11.54
-14.58
-17.03
-18.38
-18.36
-16.99
-14.66
-11.91
-9.42
-7.80
-7.33
-7.98
-9.36
-10.95
-12.43
-14.03
-16.42
-20.57
-27.15
-36.03
-46.05
-55.10
-60.58
-60.13
-52.34
-37.16
-16.02
8.47
33.24
55.32
72.54
83.70
88.55
87.47
81.37
71.47
59.26
46.50
34.79
25.32
18.45
13.71
10.07
6.48
2.17
-3.08
-9.12
-15.52
-21.73
-27.08
-30.87
-32.55
-32.01
-29.72
-26.51
-23.17
-20.03
-16.87
-13.15
-8.60
-3.50
1.26
4.67
6.13
5.73
4.20
2.53
1.52
1.58
2.66
4.47
6.68
9.03
11.32
13.35
14.80
15.20
14.12
11.32
6.89
1.33
-4.64
-10.22
-14.79
-18.00
-19.72
-19.92
-18.64
-16.04
-12.55
-8.87
-5.92
-4.45
-4.71
-6.29
-8.21
-9.27
-8.54
-5.68
-1.07
4.33
9.45
13.36
15.67
16.43
15.96
14.67
12.97
11.31
10.21
10.24
11.68
14.43
17.82
20.91
22.79
23.06
21.99
20.36
19.07
18.63
19.02
19.76
20.16
19.78
18.52
16.65
14.61
12.75
11.07
9.23
6.68
3.01
-1.68
-6.69
-10.94
-13.36
-13.44
-11.42
-8.21
-4.95
-2.49
-1.11
-0.46
0.24
1.78
4.67
8.94
14.03
18.93
22.54
24.18
23.94
22.76
21.97
22.57
24.60
26.98
27.94
25.90
20.18
11.45
1.80
-5.96
-8.97
-5.47
4.24
17.20
28.28
31.64
22.77
0.51
-32.19
-69.03
-102.64
-127.24
-140.73
-144.95
-144.40
-143.76
-145.83
-150.56
-155.75
-158.61
-157.36
-151.78
-142.65
-130.49
-114.85
-94.51
-68.89
-39.19
-8.95
17.06
34.80
42.66
42.04
36.47
29.85
24.82
22.14
21.05
20.28
19.05
17.56
16.79
17.94
21.69
27.67
34.37
39.65
41.44
38.73
31.88
22.66
13.33
5.84
1.02
-1.44
-2.54
-3.24
-4.05
-5.09
-6.34
-7.79
-9.45
-11.01
-11.80
-10.88
-7.47
-1.28
7.23
17.05
26.90
35.57
42.18
46.34
48.30
48.83
48.97
49.60
51.00
52.60
53.33
51.97
47.90
41.27
32.93
24.07
15.75
8.64
2.86
-1.82
-5.86
-9.78
-13.96
-18.55
-23.40
-27.96
-31.52
-33.34
-32.95
-30.26
-25.71
-20.07
-14.23
-8.87
-4.22
-0.06
4.04
8.38
12.83
16.86
19.82
21.32
21.44
20.65
19.49
18.26
16.80
14.77
12.05
8.92
6.02
3.99
3.17
3.34
3.94
4.41
4.47
4.21
3.89
3.64
3.38
2.86
1.89
0.53
-0.93
-2.19
-3.10
-3.78
-4.60
-5.99
-8.23
-11.30
-14.89
-18.37
-21.00
-22.06
-21.08
-18.03
-13.37
-7.96
-2.82
1.21
3.71
4.72
4.68
4.17
3.65
3.37
3.46
3.92
4.75
6.03
7.74
9.74
11.75
13.38
14.33
14.50
14.02
13.14
12.05
10.81
9.27
7.31
4.93
2.49
0.48
-0.58
-0.51
0.47
1.78
2.75
3.02
2.73
2.59
3.66
7.01
13.31
22.57
34.03
46.32
57.81
67.02
72.98
75.46
75.04
73.00
71.09
71.05
74.14
80.72
89.93
99.90
108.17
112.50
111.70
106.04
97.18
87.44
78.88
72.23
66.65
60.08
50.17
35.42
15.86
-6.89
-30.45
-52.55
-71.88
-88.26
-102.09
-113.82
-123.58
-131.22
-136.63
-140.06
-142.08
-143.19
-143.48
-142.56
-139.86
-135.07
-128.44
-120.77
-112.93
-105.43
-97.98
-89.60
-79.21
-66.46
-52.35
-39.09
-29.14
-24.01
-23.32
-24.77
-25.11
-21.35
-12.02
2.33
19.77
37.79
54.42
68.79
81.02
91.70
100.99
108.04
110.74
106.29
92.59
69.63
40.31
9.61
-17.18
-36.38
-46.75
-49.11
-45.13
-36.65
-25.96
-16.42
-12.86
-20.44
-42.85
-80.24
-128.56
-180.17
-226.18
-258.93
-273.89
-270.47
-251.56
-222.37
-188.86
-156.21
-127.65
-104.24
-85.69
-71.52
-61.90
-57.44
-58.16
-62.07
-64.96
-61.44
-47.32
-21.76
12.10
48.42
81.11
106.65
125.38
140.83
157.76
180.12
209.83
246.61
288.16
330.30
367.41
393.22
402.36
392.28
364.40
323.79
277.04
229.78
184.75
141.63
98.22
52.27
3.26
-46.79
-93.65
-131.95
-157.06
-166.95
-163.56
-152.73
-142.59
-140.16
-148.61
-165.90
-185.99
-201.76
-208.10
-203.46
-189.29
-167.97
-140.89
-108.04
-69.17
-25.66
18.52
57.23
84.39
96.69
94.90
83.54
68.71
55.51
46.17
39.97
34.46
27.43
18.29
8.32
-0.30
-5.85
-8.16
-8.63
-9.35
-11.81
-15.94
-19.99
-21.61
-18.91
-11.51
-0.68
11.41
22.63
31.62
38.00
42.05
44.14
44.58
43.47
41.00
37.57
33.84
30.55
28.27
27.23
27.19
27.57
27.69
27.02
25.39
23.05
20.42
17.93
15.75
13.81
11.93
9.93
7.73
5.33
2.78
0.18
-2.27
-4.17
-5.01
-4.39
-2.18
1.26
5.18
8.70
11.04
11.74
10.70
8.11
4.49
0.59
-2.60
-4.06
-2.91
1.22
8.14
17.09
26.98
36.67
45.17
51.79
56.12
58.14
58.18
56.85
54.95
53.22
52.11
51.67
51.51
50.86
48.87
44.66
37.74
28.02
15.89
2.21
-11.88
-25.10
-36.36
-44.88
-50.39
-53.09
-53.53
-52.47
-50.72
-48.93
-47.62
-47.08
-47.38
-48.27
-49.32
-50.00
-49.93
-49.18
-48.22
-47.77
-48.39
-50.13
-52.38
-53.96
-53.56
-50.22
-43.71
-34.54
-23.87
-12.98
-3.01
5.41
12.15
17.49
21.81
25.32
28.00
29.60
29.94
29.18
27.87
26.85
26.96
28.65
31.79
35.75
39.61
42.57
44.10
44.02
42.36
39.22
34.79
29.34
23.30
17.26
11.83
7.48
4.36
2.31
0.89
-0.41
-2.02
-4.11
-6.64
-9.43
-12.33
-15.28
-18.49
-22.21
-26.64
-31.66
-36.79
-41.17
-43.78
-43.73
-40.58
-34.42
-25.98
-16.32
-6.65
2.08
9.18
14.33
17.49
18.80
18.54
17.11
15.05
12.91
11.18
10.20
10.08
10.74
12.07
13.85
15.85
17.83
19.51
20.65
21.16
21.03
20.45
19.68
18.93
18.31
17.78
17.23
16.50
15.48
14.10
12.37
10.35
8.13
5.91
3.89
2.28
1.12
0.17
-1.17
-3.55
-7.38
-12.42
-17.58
-21.27
-21.90
-18.54
-11.29
-1.21
9.97
20.64
29.62
36.50
41.32
44.39
45.91
46.06
45.00
43.10
41.01
39.48
39.20
40.43
43.00
46.17
48.73
49.00
45.22
35.89
20.28
-1.02
-26.08
-51.94
-75.42
-93.90
-105.81
-110.75
-109.26
-102.65
-92.63
-81.12
-69.92
-60.43
-53.36
-48.74
-46.18
-45.19
-45.43
-46.72
-48.91
-51.77
-54.87
-57.74
-59.83
-60.69
-59.88
-56.97
-51.75
-44.37
-35.48
-26.07
-17.39
-10.44
-5.98
-4.29
-5.23
-8.27
-12.58
-17.18
-21.00
-23.13
-22.94
-20.16
-15.00
-8.26
-1.30
4.25
6.93
5.94
1.43
-5.62
-13.77
-21.72
-28.55
-33.87
-37.59
-39.82
-40.82
-41.07
-41.18
-41.57
-42.27
-42.72
-42.07
-39.69
-35.62
-30.66
-26.10
-23.00
-21.77
-21.97
-22.50
-22.08
-19.76
-15.20
-8.71
-1.12
6.76
14.40
21.70
28.80
35.70
41.99
46.91
49.74
50.42
49.74
49.11
49.82
52.36
56.04
59.45
61.24
60.91
59.08
57.20
56.78
58.69
62.82
68.17
73.43
77.42
79.49
79.52
77.77
74.54
70.12
64.74
58.55
51.77
44.69
37.64
30.99
25.14
20.54
17.65
16.82
18.10
21.27
25.86
31.32
37.30
43.58
49.92
55.85
60.43
62.32
60.22
53.31
41.75
26.64
9.84
-6.57
-20.75
-31.41
-37.89
-40.17
-38.78
-34.66
-29.02
-23.07
-17.85
-14.03
-11.85
-11.20
-11.71
-12.98
-14.65
-16.52
-18.53
-20.79
-23.41
-26.45
-29.81
-33.24
-36.36
-38.74
-40.07
-40.18
-39.15
-37.31
-35.02
-32.64
-30.30
-27.80
-24.69
-20.52
-15.05
-8.48
-1.40
5.41
11.19
15.34
17.34
16.86
13.78
8.34
1.36
-5.78
-11.54
-14.60
-14.29
-10.91
-5.61
0.05
4.45
6.40
5.36
1.60
-3.91
-9.74
-14.43
-16.93
-16.90
-14.85
-11.94
-9.59
-9.08
-11.17
-15.91
-22.65
-30.28
-37.37
-42.53
-44.59
-42.95
-37.67
-29.52
-19.79
-10.08
-1.71
4.48
8.28
10.11
10.75
10.96
11.20
11.54
11.82
11.83
11.55
11.19
11.04
11.33
12.01
12.88
13.65
14.13
14.34
14.37
14.24
13.79
12.79
11.01
8.41
5.20
1.76
-1.55
-4.45
-6.86
-8.87
-10.65
-12.54
-14.76
-17.54
-20.79
-24.09
-26.71
-27.73
-26.43
-22.52
-16.36
-8.82
-1.01
6.05
11.77
15.88
18.48
19.75
19.89
19.05
17.46
15.45
13.38
11.72
10.74
10.59
11.16
12.22
13.46
14.60
15.40
15.72
15.43
14.48
12.85
10.55
7.71
4.55
1.33
-1.68
-4.33
-6.56
-8.49
-10.38
-12.60
-15.60
-19.64
-24.66
-30.14
-35.09
-38.33
-38.84
-36.18
-30.65
-23.16
-14.85
-6.72
0.65
7.04
12.39
16.58
19.43
20.80
20.73
19.57
17.86
16.18
14.93
14.21
13.94
13.86
13.82
13.79
13.84
14.06
14.41
14.67
14.44
13.30
11.03
7.74
3.84
-0.06
-3.46
-6.06
-7.92
-9.32
-10.70
-12.47
-14.95
-18.24
-22.10
-25.96
-28.88
-29.85
-28.09
-23.32
-15.88
-6.75
2.76
11.35
18.02
22.27
24.15
24.10
22.74
20.68
18.47
16.50
15.14
14.56
14.84
15.76
16.87
17.64
17.64
16.76
15.19
13.29
11.34
9.41
7.33
4.90
2.10
-0.92
-3.85
-6.43
-8.57
-10.35
-12.02
-13.82
-16.03
-18.79
-22.15
-25.97
-29.82
-32.93
-34.42
-33.46
-29.67
-23.31
-15.22
-6.62
1.34
7.87
12.70
15.95
17.95
18.96
19.17
18.69
17.75
16.71
15.98
15.86
16.44
17.46
18.55
19.32
19.63
19.50
19.12
18.63
18.04
17.22
15.95
14.04
11.43
8.22
4.67
1.16
-1.98
-4.53
-6.45
-7.93
-9.29
-10.92
-13.16
-16.27
-20.28
-24.92
-29.54
-33.20
-34.83
-33.63
-29.49
-23.01
-15.38
-7.85
-1.31
3.98
8.22
11.83
14.99
17.63
19.50
20.44
20.59
20.27
19.88
19.72
19.85
20.20
20.63
21.02
21.25
21.22
20.81
19.95
18.61
16.90
14.99
13.05
11.18
9.37
7.56
5.65
3.51
1.11
-1.56
-4.37
-7.11
-9.47
-11.28
-12.54
-13.52
-14.66
-16.44
-19.08
-22.49
-26.13
-29.21
-30.89
-30.49
-27.71
-22.75
-16.17
-8.80
-1.55
4.85
9.92
13.53
15.77
16.97
17.40
17.34
16.95
16.33
15.60
14.89
14.32
14.00
13.98
14.19
14.60
15.15
15.83
16.54
17.10
17.28
16.85
15.69
13.85
11.54
9.03
6.61
4.45
2.59
0.94
-0.64
-2.38
-4.37
-6.56
-8.81
-10.90
-12.74
-14.44
-16.31
-18.72
-21.88
-25.59
-29.24
-31.92
-32.67
-30.91
-26.61
-20.40
-13.22
-6.14
0.07
5.02
8.66
11.17
12.78
13.73
14.24
14.56
14.87
15.29
15.85
16.46
17.10
17.73
18.29
18.69
18.78
18.37
17.41
16.03
14.44
12.88
11.43
10.07
8.67
7.21
5.72
4.31
3.07
1.94
0.83
-0.46
-2.09
-4.10
-6.45
-8.98
-11.47
-13.65
-15.35
-16.61
-17.70
-19.11
-21.28
-24.29
-27.70
-30.64
-32.08
-31.18
-27.67
-21.89
-14.69
-7.16
-0.22
5.59
10.03
13.21
15.33
16.48
16.72
16.10
14.79
13.17
11.71
10.80
10.59
10.88
11.36
11.73
11.88
11.91
12.04
12.38
12.90
13.40
13.61
13.36
12.56
11.27
9.57
7.60
5.48
3.30
1.17
-0.90
-2.95
-5.00
-7.06
-9.11
-10.93
-12.41
-13.51
-14.38
-15.30
-16.56
-18.35
-20.61
-23.03
-25.18
-26.56
-26.76
-25.50
-22.70
-18.51
-13.26
-7.49
-1.80
3.28
7.36
10.31
12.22
13.25
13.58
13.42
12.92
12.31
11.77
11.48
11.51
11.79
12.15
12.48
12.74
12.91
12.99
12.87
12.42
11.52
10.21
8.65
7.11
5.77
4.67
3.69
2.63
1.33
-0.28
-2.14
-4.08
-5.96
-7.59
-8.93
-9.98
-10.87
-11.80
-12.95
-14.46
-16.41
-18.72
-21.19
-23.44
-24.97
-25.20
-23.69
-20.27
-15.21
-9.16
-2.98
2.53
6.85
9.81
11.54
12.30
12.34
11.85
10.96
9.87
8.80
7.93
7.33
6.92
6.51
5.95
5.24
4.55
4.07
3.91
3.96
3.94
3.56
2.64
1.27
-0.35
-2.02
-3.57
-4.97
-6.17
-7.11
-7.73
-8.01
-8.08
-8.20
-8.71
-9.82
-11.61
-13.92
-16.36
-18.48
-19.72
-19.60
-17.80
-14.26
-9.31
-3.61
2.01
6.81
10.30
12.41
13.28
13.26
12.68
11.79
10.76
9.71
8.78
8.14
7.96
8.23
8.79
9.31
9.44
8.87
7.57
5.71
3.61
1.66
0.07
-1.16
-2.26
-3.59
-5.38
-7.65
-10.09
-12.34
-14.05
-15.11
-15.68
-16.13
-16.91
-18.26
-20.26
-22.80
-25.53
-28.00
-29.57
-29.64
-27.67
-23.58
-17.72
-10.90
-4.16
1.66
6.11
9.16
11.06
12.13
12.56
12.46
11.88
10.91
9.74
8.59
7.59
6.84
6.38
6.23
6.37
6.68
6.95
6.99
6.65
5.98
5.16
4.40
3.75
3.07
2.13
0.71
-1.19
-3.41
-5.63
-7.65
-9.45
-11.18
-12.99
-15.07
-17.48
-20.19
-23.06
-25.83
-28.08
-29.21
-28.71
-26.21
-21.78
-15.95
-9.53
-3.45
1.64
5.43
7.93
9.36
9.95
9.91
9.30
8.25
6.86
5.40
4.16
3.38
3.14
3.38
3.84
4.29
4.53
4.55
4.45
4.33
4.30
4.26
4.05
3.44
2.25
0.54
-1.55
-3.73
-5.73
-7.43
-8.81
-10.00
-11.18
-12.53
-14.22
-16.39
-19.11
-22.28
-25.59
-28.46
-30.21
-30.25
-28.27
-24.36
-18.98
-12.74
-6.26
-0.02
5.54
10.14
13.53
15.59
16.41
16.28
15.61
14.81
14.11
13.55
13.05
12.58
12.19
12.05
12.20
12.49
12.61
12.20
11.05
9.26
7.17
5.20
3.64
2.52
1.58
0.50
-0.99
-2.92
-5.14
-7.35
-9.32
-10.94
-12.31
-13.67
-15.27
-17.29
-19.82
-22.82
-26.12
-29.36
-32.03
-33.43
-32.93
-30.15
-25.13
-18.34
-10.58
-2.78
4.29
10.08
14.31
16.94
18.15
18.26
17.69
16.86
16.09
15.58
15.43
15.63
16.15
16.88
17.70
18.44
18.92
19.01
18.61
17.74
16.48
14.98
13.36
11.66
9.90
8.06
6.17
4.25
2.40
0.66
-0.95
-2.49
-4.13
-6.00
-8.20
-10.70
-13.53
-16.70
-20.31
-24.43
-28.96
-33.47
-37.12
-38.96
-38.09
-34.21
-27.66
-19.37
-10.61
-2.47
4.33
9.58
13.38
15.94
17.33
17.61
16.86
15.37
13.64
12.34
11.95
12.57
13.90
15.30
16.19
16.24
15.51
14.37
13.26
12.47
12.03
11.69
11.11
10.00
8.33
6.27
4.14
2.23
0.68
-0.58
-1.72
-2.86
-4.06
-5.35
-6.73
-8.33
-10.40
-13.14
-16.43
-19.78
-22.31
-23.15
-21.67
-17.85
-12.20
-5.63
0.96
6.89
11.87
15.82
18.74
20.55
21.07
20.28
18.36
15.93
13.70
12.36
12.25
13.23
14.82
16.38
17.36
17.51
16.80
15.46
13.77
12.03
10.44
8.99
7.56
5.88
3.72
1.05
-1.95
-4.93
-7.50
-9.48
-10.90
-12.04
-13.26
-14.91
-17.19
-20.05
-23.23
-26.17
-28.13
-28.35
-26.32
-22.01
-15.94
-9.01
-2.21
3.68
8.21
11.34
13.21
13.97
13.69
12.48
10.56
8.31
6.28
4.97
4.62
5.16
6.24
7.45
8.47
9.20
9.67
9.95
10.04
9.73
8.73
6.85
4.03
0.44
-3.54
-7.60
-11.39
-14.73
-17.53
-19.82
-21.73
-23.51
-25.43
-27.73
-30.35
-32.85
-34.40
-34.11
-31.24
-25.67
-17.90
-8.99
-0.19
7.48
13.45
17.67
20.33
21.78
22.26
21.89
20.74
18.99
16.95
15.05
13.70
13.14
13.44
14.39
15.71
17.04
18.10
18.68
18.66
18.07
17.00
15.57
13.90
12.02
9.91
7.54
5.00
2.47
0.23
-1.57
-2.99
-4.44
-6.53
-9.78
-14.48
-20.46
-27.07
-33.30
-38.00
-40.21
-39.33
-35.28
-28.62
-20.33
-11.55
-3.31
3.78
9.48
13.80
16.85
18.69
19.41
19.16
18.24
17.01
15.91
15.25
15.18
15.70
16.69
17.90
19.07
19.91
20.20
19.89
19.06
17.86
16.42
14.71
12.64
10.16
7.34
4.38
1.57
-0.87
-2.89
-4.60
-6.22
-7.93
-9.90
-12.27
-15.22
-18.84
-23.10
-27.64
-31.76
-34.62
-35.34
-33.45
-28.91
-22.32
-14.62
-6.86
0.14
5.89
10.28
13.44
15.56
16.81
17.36
17.36
17.05
16.70
16.61
16.93
17.75
18.98
20.35
21.66
22.64
23.13
23.08
22.48
21.42
20.04
18.41
16.55
14.41
11.80
8.61
4.80
0.47
-4.07
-8.48
-12.48
-15.96
-18.99
-21.83
-24.71
-27.75
-30.90
-33.90
-36.25
-37.38
-36.69
-33.76
-28.56
-21.51
-13.41
-5.22
2.19
8.30
12.87
15.98
17.79
18.46
18.19
17.23
15.96
14.88
14.46
14.97
16.38
18.41
20.56
22.33
23.37
23.59
23.06
22.01
20.58
18.84
16.71
14.05
10.82
7.11
3.20
-0.58
-3.90
-6.57
-8.60
-10.17
-11.53
-12.97
-14.89
-17.58
-21.21
-25.58
-30.03
-33.48
-34.78
-33.12
-28.46
-21.50
-13.41
-5.40
1.79
7.79
12.55
16.00
17.96
18.23
16.93
14.56
11.94
9.90
8.92
9.01
9.86
10.99
12.04
12.83
13.38
13.72
13.85
13.62
12.80
11.16
8.60
5.24
1.41
-2.38
-5.69
-8.23
-10.07
-11.54
-13.11
-15.20
-18.03
-21.59
-25.58
-29.42
-32.33
-33.44
-31.96
-27.53
-20.40
-11.41
-1.83
7.04
14.25
19.32
22.26
23.31
22.76
20.91
18.15
14.94
11.90
9.62
8.43
8.32
8.97
9.90
10.69
11.19
11.39
11.39
11.16
10.55
9.37
7.49
4.96
2.01
-1.00
-3.69
-5.85
-7.51
-9.01
-10.78
-13.27
-16.64
-20.65
-24.66
-27.71
-28.82
-27.38
-23.30
-17.04
-9.56
-1.87
5.13
10.88
15.23
18.21
19.99
20.62
20.09
18.42
15.77
12.52
9.24
6.50
4.72
4.06
4.40
5.43
6.79
8.12
9.08
9.38
8.83
7.36
5.05
2.17
-0.91
-3.85
-6.37
-8.43
-10.23
-12.10
-14.43
-17.42
-20.99
-24.69
-27.80
-29.55
-29.22
-26.49
-21.46
-14.67
-6.99
0.57
7.10
11.97
14.96
16.20
16.01
14.79
12.87
10.57
8.17
6.01
4.44
3.69
3.80
4.56
5.63
6.58
7.07
6.88
5.97
4.49
2.66
0.71
-1.19
-3.01
-4.82
-6.74
-8.91
-11.45
-14.43
-17.93
-21.88
-26.06
-30.01
-32.99
-34.16
-32.89
-28.90
-22.56
-14.72
-6.44
1.27
7.76
12.70
16.03
17.80
18.21
17.48
16.02
14.37
13.09
12.49
12.61
13.25
14.08
14.90
15.59
16.06
16.19
15.74
14.51
12.45
9.81
6.97
4.28
1.89
-0.37
-2.77
-5.61
-9.02
-12.95
-17.24
-21.59
-25.62
-28.66
-29.88
-28.51
-24.17
-17.11
-8.23
1.18
9.86
16.90
21.94
25.02
26.35
26.16
24.56
21.71
17.90
13.69
9.73
6.72
5.11
5.02
6.15
7.89
9.54
10.49
10.37
9.14
7.05
4.44
1.68
-0.99
-3.64
-6.50
-9.88
-14.01
-18.87
-24.13
-29.32
-33.82
-36.99
-38.16
-36.78
-32.49
-25.39
-16.16
-5.98
3.79
11.99
17.95
21.64
23.45
23.94
23.50
22.37
20.64
18.42
15.91
13.41
11.20
9.51
8.40
7.79
7.47
7.22
6.86
6.38
5.86
5.41
5.08
4.73
4.08
2.78
0.57
-2.72
-7.11
-12.52
-18.68
-25.09
-30.94
-35.17
-36.75
-35.03
-30.03
-22.51
-13.82
-5.37
1.70
6.88
10.22
12.08
12.86
12.76
11.90
10.36
8.41
6.55
5.31
5.12
5.98
7.50
9.06
10.07
10.23
9.54
8.27
6.66
4.87
2.89
0.65
-1.89
-4.69
-7.65
-10.81
-14.30
-18.32
-22.91
-27.79
-32.20
-35.12
-35.56
-32.83
-26.93
-18.49
-8.64
1.33
10.30
17.50
22.69
25.95
27.62
28.07
27.64
26.58
25.12
23.50
22.00
20.83
20.18
20.07
20.35
20.82
21.16
21.12
20.49
19.19
17.26
14.80
12.01
9.05
6.04
3.07
0.10
-2.89
-5.98
-9.31
-13.06
-17.45
-22.59
-28.28
-33.85
-38.16
-39.88
-38.00
-32.29
-23.51
-13.14
-2.89
5.96
12.86
18.00
21.87
24.88
27.16
28.50
28.80
28.18
27.10
26.19
25.95
26.52
27.63
28.73
29.37
29.25
28.50
27.41
26.29
25.23
24.06
22.43
20.12
17.05
13.41
9.53
5.70
2.07
-1.34
-4.56
-7.62
-10.49
-13.15
-15.62
-18.07
-20.77
-24.00
-27.91
-32.45
-37.25
-41.57
-44.46
-44.87
-42.08
-35.89
-26.89
-16.29
-5.58
3.92
11.50
17.03
20.84
23.35
24.88
25.58
25.58
25.12
24.54
24.20
24.24
24.55
24.89
25.03
24.97
24.87
24.96
25.31
25.77
26.01
25.77
24.89
23.45
21.63
19.62
17.49
15.22
12.67
9.75
6.41
2.70
-1.18
-5.08
-8.74
-12.00
-14.76
-17.07
-19.07
-21.06
-23.43
-26.42
-30.09
-34.10
-37.75
-40.05
-40.01
-37.01
-31.03
-22.74
-13.33
-4.15
3.75
9.79
13.95
16.58
18.09
18.78
18.81
18.32
17.53
16.81
16.60
17.12
18.42
20.16
21.94
23.32
24.08
24.16
23.67
22.75
21.52
20.01
18.20
16.11
13.77
11.35
9.10
7.23
5.82
4.74
3.68
2.26
0.28
-2.21
-4.95
-7.59
-9.91
-11.94
-13.99
-16.47
-19.79
-24.15
-29.41
-35.11
-40.43
-44.40
-46.08
-44.78
-40.33
-33.07
-23.82
-13.71
-3.93
4.57
11.20
15.82
18.66
20.16
20.74
20.74
20.32
19.60
18.71
17.89
17.34
17.21
17.52
18.08
18.72
19.29
19.72
19.97
19.96
19.53
18.51
16.82
14.52
11.82
8.97
6.21
3.68
1.42
-0.60
-2.40
-4.03
-5.57
-7.02
-8.39
-9.66
-10.89
-12.18
-13.79
-16.00
-19.03
-22.89
-27.25
-31.46
-34.60
-35.74
-34.21
-29.82
-22.91
-14.27
-5.00
3.86
11.51
17.49
21.71
24.30
25.52
25.65
24.93
23.66
22.09
20.51
19.18
18.23
17.70
17.42
17.17
16.65
15.68
14.20
12.26
9.98
7.41
4.63
1.68
-1.36
-4.36
-7.21
-9.87
-12.32
-14.56
-16.54
-18.19
-19.46
-20.38
-21.12
-21.84
-22.67
-23.66
-24.86
-26.35
-28.18
-30.24
-32.08
-32.94
-31.95
-28.55
-22.76
-15.24
-7.07
0.65
7.25
12.46
16.37
19.19
21.00
21.79
21.52
20.25
18.21
15.83
13.56
11.76
10.57
9.86
9.39
8.78
7.86
6.64
5.28
4.05
3.13
2.45
1.79
0.90
-0.39
-2.03
-3.80
-5.47
-6.86
-7.96
-8.92
-9.94
-11.27
-13.08
-15.46
-18.40
-21.74
-25.17
-28.20
-30.21
-30.57
-28.85
-24.95
-19.21
-12.42
-5.49
0.70
5.54
8.85
10.77
11.60
11.62
11.06
10.10
8.93
7.81
7.02
6.76
7.10
7.94
9.08
10.22
11.20
11.94
12.46
12.78
12.92
12.83
12.34
11.29
9.53
7.01
3.88
0.44
-2.92
-5.89
-8.34
-10.37
-12.30
-14.50
-17.32
-20.89
-25.07
-29.53
-33.64
-36.62
-37.63
-36.05
-31.67
-24.87
-16.57
-7.92
0.01
6.53
11.37
14.62
16.48
17.15
16.78
15.62
13.98
12.29
11.00
10.38
10.49
11.16
12.09
12.88
13.18
12.80
11.69
10.00
8.01
6.00
4.18
2.53
0.95
-0.73
-2.56
-4.50
-6.40
-8.09
-9.53
-10.70
-11.74
-12.83
-14.24
-16.25
-19.02
-22.52
-26.34
-29.76
-31.87
-31.88
-29.42
-24.59
-18.00
-10.52
-3.04
3.73
9.26
13.29
15.73
16.63
16.16
14.64
12.50
10.24
8.31
7.03
6.57
6.89
7.76
8.90
9.95
10.65
10.84
10.52
9.84
8.98
8.11
7.24
6.23
4.84
2.93
0.47
-2.34
-5.21
-7.84
-10.01
-11.71
-13.05
-14.26
-15.63
-17.40
-19.71
-22.59
-25.81
-28.81
-30.85
-31.19
-29.31
-25.16
-19.21
-12.27
-5.23
1.21
6.66
11.03
14.36
16.69
18.00
18.31
17.71
16.42
14.75
13.06
11.66
10.81
10.63
11.13
12.10
13.27
14.23
14.72
14.58
13.84
12.64
11.13
9.37
7.40
5.24
2.96
0.60
-1.80
-4.16
-6.40
-8.39
-9.99
-11.15
-12.01
-12.85
-14.10
-16.13
-19.10
-22.83
-26.83
-30.37
-32.63
-32.89
-30.71
-26.10
-19.53
-11.86
-4.09
2.89
8.55
12.72
15.47
17.02
17.50
17.04
15.79
13.99
12.07
10.42
9.34
8.98
9.31
10.18
11.44
12.90
14.32
15.52
16.29
16.51
16.21
15.56
14.73
13.87
12.96
11.82
10.23
8.07
5.39
2.40
-0.56
-3.26
-5.59
-7.63
-9.61
-11.83
-14.55
-17.89
-21.86
-26.16
-30.34
-33.70
-35.41
-34.73
-31.33
-25.41
-17.75
-9.58
-2.10
3.83
7.95
10.52
12.00
12.86
13.26
13.23
12.71
11.81
10.85
10.24
10.26
10.90
11.89
12.83
13.30
13.20
12.60
11.73
10.79
9.88
8.93
7.84
6.56
5.13
3.71
2.49
1.49
0.59
-0.44
-1.77
-3.44
-5.33
-7.27
-9.10
-10.94
-12.98
-15.45
-18.50
-22.02
-25.50
-28.20
-29.27
-28.01
-24.19
-18.19
-10.95
-3.63
2.71
7.48
10.63
12.48
13.45
13.81
13.65
12.99
11.90
10.66
9.62
9.12
9.33
10.21
11.53
13.04
14.45
15.52
16.09
15.98
15.16
13.68
11.71
9.55
7.41
5.42
3.56
1.74
-0.12
-2.02
-3.91
-5.79
-7.64
-9.52
-11.48
-13.49
-15.49
-17.48
-19.50
-21.57
-23.60
-25.29
-26.11
-25.45
-22.89
-18.39
-12.39
-5.69
0.78
6.21
10.10
12.27
12.92
12.44
11.25
9.79
8.33
7.12
6.32
6.08
6.50
7.59
9.25
11.21
13.13
14.62
15.37
15.19
14.10
12.29
10.06
7.73
5.57
3.71
2.11
0.71
-0.59
-1.85
-3.09
-4.27
-5.38
-6.43
-7.46
-8.50
-9.61
-10.83
-12.25
-14.01
-16.16
-18.59
-21.01
-22.78
-23.20
-21.68
-18.08
-12.80
-6.71
-0.85
3.95
7.28
9.12
9.71
9.31
8.08
6.24
4.07
1.98
0.47
-0.07
0.49
1.95
3.95
6.04
7.88
9.33
10.35
10.95
11.18
11.08
10.67
9.95
8.88
7.40
5.44
3.00
0.19
-2.72
-5.42
-7.61
-9.18
-10.21
-10.97
-11.77
-12.87
-14.36
-16.23
-18.19
-19.79
-20.50
-19.82
-17.45
-13.45
-8.23
-2.44
3.20
8.18
12.19
15.13
16.95
17.54
16.84
14.92
12.09
8.92
6.05
4.03
3.09
3.12
3.75
4.51
5.01
5.06
4.63
3.92
3.17
2.62
2.36
2.26
2.00
1.26
-0.12
-2.03
-4.09
-5.92
-7.31
-8.38
-9.41
-10.77
-12.67
-15.12
-18.04
-21.26
-24.61
-27.75
-30.22
-31.38
-30.60
-27.51
-22.19
-15.23
-7.54
-0.12
6.26
11.12
14.31
15.92
16.11
15.10
13.15
10.61
7.91
5.51
3.78
2.91
2.82
3.28
3.99
4.64
5.05
5.07
4.71
4.03
3.15
2.13
1.01
-0.32
-1.92
-3.86
-6.08
-8.33
-10.41
-12.07
-13.28
-14.12
-14.79
-15.54
-16.63
-18.29
-20.51
-23.08
-25.47
-26.97
-26.89
-24.72
-20.42
-14.38
-7.37
-0.34
5.87
10.62
13.71
15.25
15.53
14.93
13.77
12.27
10.68
9.22
8.12
7.52
7.39
7.61
7.95
8.20
8.24
8.05
7.62
6.95
6.07
4.96
3.64
2.16
0.58
-1.08
-2.78
-4.49
-6.15
-7.68
-9.06
-10.26
-11.39
-12.68
-14.48
-17.11
-20.74
-25.10
-29.40
-32.64
-33.76
-32.14
-27.87
-21.65
-14.56
-7.61
-1.46
3.68
7.86
11.20
13.65
15.04
15.23
14.28
12.58
10.72
9.32
8.76
9.08
9.96
10.93
11.59
11.76
11.52
11.09
10.69
10.40
10.10
9.66
8.88
7.69
6.13
4.32
2.42
0.55
-1.19
-2.79
-4.30
-5.87
-7.72
-10.02
-12.90
-16.35
-20.18
-23.99
-27.19
-29.06
-28.96
-26.57
-21.98
-15.73
-8.72
-1.89
3.95
8.35
11.24
12.88
13.68
14.02
14.19
14.28
14.29
14.19
14.05
14.02
14.29
15.00
16.09
17.37
18.52
19.29
19.54
19.25
18.52
17.38
15.85
13.82
11.23
8.07
4.55
0.97
-2.27
-4.89
-6.73
-7.86
-8.48
-8.97
-9.80
-11.45
-14.24
-18.21
-22.90
-27.41
-30.65
-31.61
-29.79
-25.27
-18.74
-11.18
-3.66
3.03
8.38
12.22
14.65
15.87
16.17
15.82
15.11
14.29
13.63
13.37
13.65
14.44
15.54
16.62
17.36
17.46
16.85
15.63
14.05
12.45
11.12
10.21
9.63
9.13
8.37
7.15
5.42
3.29
1.00
-1.33
-3.78
-6.53
-9.79
-13.63
-17.85
-21.98
-25.42
-27.55
-27.87
-26.18
-22.57
-17.44
-11.34
-4.92
1.26
6.79
11.43
15.05
17.52
18.78
18.82
17.81
16.12
14.28
12.83
12.10
12.11
12.66
13.41
14.08
14.55
14.83
14.93
14.77
14.21
13.10
11.47
9.50
7.45
5.63
4.18
3.09
2.24
1.46
0.64
-0.26
-1.35
-2.74
-4.59
-7.00
-10.00
-13.51
-17.41
-21.54
-25.71
-29.55
-32.46
-33.62
-32.29
-28.16
-21.54
-13.43
-5.09
2.29
8.03
12.00
14.49
15.93
16.63
16.83
16.68
16.38
16.15
16.20
16.62
17.35
18.26
19.17
19.92
20.37
20.38
19.83
18.72
17.20
15.49
13.86
12.39
11.02
9.50
7.61
5.26
2.51
-0.41
-3.33
-6.10
-8.69
-11.11
-13.38
-15.51
-17.60
-19.87
-22.68
-26.27
-30.55
-34.91
-38.29
-39.49
-37.68
-32.68
-25.16
-16.38
-7.67
-0.07
5.95
10.36
13.49
15.68
17.21
18.26
18.96
19.44
19.85
20.29
20.79
21.35
21.92
22.45
22.88
23.18
23.29
23.09
22.44
21.21
19.37
17.03
14.37
11.63
8.95
6.35
3.76
1.10
-1.58
-4.13
-6.31
-7.92
-8.93
-9.54
-10.15
-11.20
-12.99
-15.66
-19.09
-22.89
-26.53
-29.26
-30.35
-29.18
-25.47
-19.48
-11.96
-4.08
3.06
8.65
12.52
14.91
16.28
17.02
17.25
16.92
16.05
14.93
14.02
13.82
14.58
16.08
17.84
19.27
20.02
20.08
19.77
19.36
18.99
18.53
17.68
16.30
14.38
12.17
9.95
7.93
6.08
4.32
2.55
0.72
-1.07
-2.80
-4.46
-6.21
-8.27
-10.90
-14.22
-18.17
-22.48
-26.57
-29.69
-31.06
-30.12
-26.70
-21.15
-14.23
-6.83
0.17
6.16
10.78
13.89
15.48
15.61
14.42
12.25
9.61
7.13
5.40
4.81
5.45
7.10
9.36
11.77
13.96
15.71
16.86
17.40
17.39
16.95
16.25
15.37
14.37
13.12
11.53
9.46
6.95
4.10
1.02
-2.17
-5.47
-8.91
-12.57
-16.56
-20.93
-25.66
-30.54
-35.10
-38.62
-40.33
-39.57
-36.13
-30.24
-22.58
-14.09
-5.78
1.49
7.21
11.15
13.48
14.51
14.58
14.04
13.14
12.14
11.32
10.95
11.15
11.79
12.56
13.06
13.07
12.66
12.09
11.66
11.45
11.26
10.74
9.54
7.53
4.89
1.95
-0.93
-3.54
-5.81
-7.88
-9.93
-12.16
-14.78
-17.92
-21.61
-25.67
-29.69
-32.95
-34.69
-34.23
-31.23
-25.89
-18.90
-11.20
-3.76
2.77
8.08
12.14
15.14
17.23
18.53
19.19
19.37
19.26
19.09
18.95
18.83
18.64
18.24
17.60
16.81
15.99
15.25
14.64
14.04
13.21
11.90
9.95
7.35
4.35
1.22
-1.73
-4.37
-6.75
-9.01
-11.38
-14.03
-17.04
-20.46
-24.20
-28.02
-31.45
-33.85
-34.53
-32.99
-29.08
-23.15
-15.94
-8.42
-1.49
4.26
8.56
11.50
13.35
14.39
14.83
14.78
14.32
13.65
13.04
12.80
13.15
14.03
15.12
15.96
16.15
15.53
14.21
12.45
10.42
8.19
5.67
2.79
-0.37
-3.54
-6.38
-8.64
-10.33
-11.68
-13.16
-15.24
-18.27
-22.29
-26.98
-31.73
-35.66
-37.90
-37.79
-35.07
-29.98
-23.16
-15.51
-7.93
-1.14
4.44
8.63
11.46
13.12
13.82
13.79
13.26
12.46
11.61
10.90
10.48
10.36
10.54
10.88
11.25
11.63
12.02
12.42
12.79
12.95
12.69
11.75
9.95
7.36
4.23
0.98
-1.96
-4.34
-6.15
-7.70
-9.44
-11.82
-15.16
-19.41
-24.18
-28.73
-32.10
-33.39
-32.02
-27.97
-21.81
-14.56
-7.33
-1.05
3.76
6.98
8.74
9.25
8.73
7.52
6.04
4.80
4.24
4.61
5.89
7.76
9.86
11.78
13.30
14.35
14.96
15.19
15.01
14.37
13.09
11.03
8.13
4.51
0.52
-3.45
-7.00
-10.01
-12.55
-14.90
-17.42
-20.19
-23.12
-25.80
-27.65
-28.23
-27.32
-25.06
-21.94
-18.61
-15.67
-13.55
-12.45
-12.39
-13.30
-15.01
-17.26
-19.63
-21.53
-22.29
-21.31
-18.28
-13.29
-6.94
-0.30
5.35
8.86
9.53
7.47
3.52
-1.00
-4.82
-7.20
-8.06
-7.98
-7.78
-8.12
-9.32
-11.39
-14.12
-17.32
-20.84
-24.60
-28.46
-32.17
-35.29
-37.37
-37.86
-36.41
-32.82
-27.19
-19.82
-11.23
-1.98
7.40
16.33
24.30
30.84
35.60
38.50
39.86
40.29
40.56
41.34
42.97
45.45
48.43
51.37
53.75
55.15
55.28
54.00
51.29
47.21
41.95
35.78
29.15
22.56
16.55
11.53
7.62
4.59
1.99
-0.73
-4.04
-8.19
-13.25
-18.99
-24.99
-30.55
-34.78
-36.68
-35.52
-31.11
-23.99
-15.32
-6.55
1.11
6.96
10.88
13.08
13.83
13.34
11.85
9.61
7.13
5.08
4.03
4.35
5.96
8.44
11.19
13.57
15.19
15.87
15.65
14.64
12.99
10.75
7.93
4.67
1.17
-2.18
-4.99
-7.10
-8.63
-10.03
-11.92
-14.78
-18.75
-23.55
-28.50
-32.69
-35.16
-35.20
-32.36
-26.79
-19.09
-10.24
-1.36
6.55
12.92
17.54
20.55
22.18
22.67
22.25
21.16
19.74
18.39
17.46
17.09
17.21
17.52
17.73
17.70
17.48
17.30
17.33
17.61
17.91
17.93
17.43
16.32
14.67
12.65
10.36
7.81
4.86
1.34
-2.83
-7.64
-12.98
-18.62
-24.36
-29.84
-34.52
-37.68
-38.53
-36.50
-31.52
-24.18
-15.55
-6.88
0.76
6.85
11.29
14.32
16.24
17.27
17.50
17.15
16.47
15.79
15.41
15.43
15.76
16.15
16.37
16.20
15.60
14.66
13.52
12.32
11.08
9.72
8.12
6.15
3.84
1.29
-1.29
-3.72
-5.94
-8.05
-10.17
-12.42
-14.80
-17.21
-19.46
-21.27
-22.33
-22.29
-20.90
-18.08
-13.88
-8.60
-2.61
3.64
9.75
15.32
20.02
23.62
25.98
27.16
27.35
26.82
25.86
24.70
23.50
22.33
21.26
20.31
19.50
18.82
18.24
17.70
17.12
16.33
15.19
13.61
11.53
9.02
6.08
2.77
-0.94
-5.00
-9.22
-13.35
-17.08
-20.32
-23.15
-25.91
-28.71
-31.40
-33.31
-33.53
-31.29
-26.32
-19.16
-10.82
-2.60
4.51
10.00
13.83
16.23
17.43
17.53
16.54
14.63
12.11
9.57
7.54
6.35
5.95
5.98
6.02
5.76
5.24
4.71
4.47
4.60
4.98
5.27
5.09
4.25
2.75
0.77
-1.44
-3.59
-5.52
-7.18
-8.66
-10.18
-12.06
-14.63
-18.03
-22.05
-26.01
-28.86
-29.57
-27.48
-22.66
-15.87
-8.30
-1.14
4.77
9.13
11.98
13.51
13.97
13.51
12.41
11.09
10.10
9.84
10.42
11.56
12.78
13.61
13.79
13.38
12.69
12.04
11.54
11.07
10.36
9.10
7.20
4.74
2.04
-0.57
-2.83
-4.65
-6.10
-7.42
-8.88
-10.79
-13.39
-16.84
-21.05
-25.61
-29.79
-32.59
-33.11
-30.73
-25.46
-17.89
-9.09
-0.21
7.76
14.23
18.99
22.03
23.48
23.50
22.27
20.06
17.26
14.32
11.71
9.78
8.70
8.44
8.73
9.19
9.41
9.12
8.25
6.97
5.62
4.47
3.66
3.07
2.45
1.57
0.36
-1.01
-2.36
-3.48
-4.47
-5.53
-6.98
-9.02
-11.71
-14.83
-17.98
-20.56
-21.88
-21.33
-18.48
-13.33
-6.33
1.73
9.92
17.36
23.48
28.00
30.90
32.33
32.52
31.79
30.51
29.11
27.95
27.30
27.22
27.61
28.22
28.84
29.23
29.34
29.20
28.87
28.42
27.81
26.84
25.28
22.92
19.66
15.66
11.22
6.83
3.01
0.09
-1.87
-3.20
-4.46
-6.25
-8.91
-12.24
-15.57
-17.84
-18.03
-15.53
-10.28
-2.85
5.83
14.56
22.21
27.81
30.80
30.96
28.52
24.05
18.27
11.94
5.72
0.06
-4.80
-8.81
-12.05
-14.73
-17.06
-19.22
-21.32
-23.47
-25.77
-28.33
-31.20
-34.35
-37.67
-40.96
-44.13
-47.24
-50.46
-53.93
-57.47
-60.58
-62.62
-63.03
-61.72
-59.10
-55.85
-52.45
-49.03
-45.23
-40.54
-34.61
-27.62
-20.16
-13.10
-7.16
-2.78
-0.09
1.00
0.68
-0.74
-2.77
-4.78
-5.99
-5.79
-3.81
-0.23
4.27
8.69
11.99
13.49
13.01
10.96
8.10
5.18
2.81
1.24
0.45
0.21
0.22
0.08
-0.58
-2.15
-4.88
-8.84
-13.83
-19.38
-24.78
-29.19
-31.84
-32.13
-29.92
-25.47
-19.46
-12.79
-6.23
-0.27
4.85
9.04
12.28
14.47
15.53
15.49
14.60
13.17
11.62
10.23
9.28
8.84
8.84
9.08
9.26
9.05
8.28
6.89
5.01
2.86
0.59
-1.77
-4.30
-7.07
-10.12
-13.33
-16.56
-19.71
-22.76
-25.83
-29.06
-32.35
-35.23
-36.93
-36.55
-33.43
-27.61
-19.77
-11.19
-3.18
3.31
7.93
10.92
12.73
13.70
13.97
13.43
12.08
10.13
8.08
6.45
5.67
5.86
6.87
8.35
9.94
11.28
12.11
12.28
11.71
10.50
8.86
7.00
5.14
3.32
1.48
-0.46
-2.54
-4.75
-7.13
-9.90
-13.34
-17.64
-22.56
-27.32
-30.78
-31.77
-29.65
-24.55
-17.35
-9.40
-1.91
4.30
8.98
12.24
14.39
15.66
16.20
16.11
15.51
14.66
13.89
13.51
13.79
14.74
16.23
17.96
19.57
20.77
21.40
21.42
20.86
19.78
18.16
15.97
13.21
9.93
6.25
2.38
-1.49
-5.32
-9.13
-13.11
-17.40
-21.94
-26.32
-29.90
-31.85
-31.48
-28.50
-23.01
-15.69
-7.48
0.63
7.81
13.53
17.62
20.14
21.20
20.99
19.65
17.43
14.68
11.90
9.62
8.27
8.05
8.82
10.28
11.92
13.30
14.09
14.10
13.39
12.13
10.51
8.73
6.90
5.03
3.14
1.28
-0.52
-2.35
-4.47
-7.20
-10.88
-15.42
-20.32
-24.65
-27.29
-27.36
-24.54
-19.12
-11.95
-4.12
3.40
9.92
15.05
18.72
20.93
21.82
21.57
20.49
18.97
17.44
16.31
15.80
15.91
16.44
17.09
17.59
17.77
17.58
17.04
16.10
14.68
12.65
9.98
6.83
3.52
0.47
-2.01
-3.86
-5.34
-6.89
-8.95
-11.81
-15.54
-19.96
-24.59
-28.70
-31.45
-31.99
-29.84
-24.96
-17.94
-9.76
-1.51
5.89
12.00
16.71
20.20
22.64
24.16
24.81
24.70
24.03
23.14
22.41
22.07
22.19
22.57
22.85
22.69
21.79
20.08
17.58
14.46
10.92
7.25
3.66
0.40
-2.41
-4.82
-6.86
-8.69
-10.38
-12.08
-13.90
-16.10
-18.89
-22.33
-26.27
-30.11
-33.03
-34.14
-32.76
-28.73
-22.46
-14.81
-6.80
0.68
7.14
12.46
16.80
20.30
22.93
24.54
24.98
24.42
23.34
22.51
22.55
23.75
25.82
28.11
29.84
30.45
29.85
28.24
26.05
23.60
20.99
18.15
14.95
11.36
7.51
3.69
0.16
-2.90
-5.50
-7.78
-9.90
-12.06
-14.45
-17.29
-20.84
-25.23
-30.21
-35.04
-38.59
-39.63
-37.42
-32.00
-24.23
-15.46
-7.06
0.12
5.75
10.02
13.29
15.78
17.53
18.52
18.80
18.60
18.32
18.31
18.79
19.73
20.85
21.80
22.26
22.12
21.39
20.30
19.01
17.66
16.26
14.78
13.28
11.86
10.66
9.72
8.88
7.86
6.36
4.24
1.60
-1.28
-4.08
-6.65
-9.06
-11.55
-14.49
-18.09
-22.33
-26.89
-31.17
-34.32
-35.55
-34.25
-30.30
-24.05
-16.28
-7.95
0.02
6.98
12.56
16.69
19.47
21.11
21.81
21.80
21.25
20.32
19.18
18.07
17.27
16.99
17.28
17.92
18.53
18.77
18.50
17.87
17.12
16.50
16.01
15.47
14.56
13.11
11.09
8.69
6.13
3.47
0.68
-2.37
-5.67
-9.03
-12.05
-14.36
-15.79
-16.54
-17.13
-18.23
-20.39
-23.67
-27.62
-31.27
-33.50
-33.36
-30.43
-24.94
-17.72
-9.89
-2.54
3.55
8.04
11.01
12.74
13.55
13.72
13.49
13.07
12.77
12.82
13.41
14.55
16.03
17.55
18.81
19.61
19.87
19.61
18.86
17.74
16.31
14.67
12.85
10.87
8.68
6.21
3.42
0.37
-2.79
-5.84
-8.61
-10.93
-12.77
-14.21
-15.39
-16.53
-17.88
-19.63
-21.83
-24.35
-26.75
-28.40
-28.55
-26.62
-22.46
-16.41
-9.31
-2.21
3.98
8.69
11.86
13.67
14.44
14.39
13.63
12.26
10.49
8.68
7.19
6.38
6.35
6.90
7.71
8.42
8.84
8.93
8.78
8.50
8.14
7.56
6.60
5.13
3.19
0.97
-1.24
-3.19
-4.80
-6.11
-7.21
-8.21
-9.22
-10.31
-11.68
-13.57
-16.19
-19.48
-23.02
-26.10
-27.86
-27.61
-25.10
-20.57
-14.63
-8.08
-1.67
3.97
8.44
11.53
13.28
13.78
13.30
12.19
10.79
9.46
8.52
8.15
8.40
9.21
10.37
11.60
12.59
13.17
13.20
12.71
11.74
10.39
8.76
6.91
4.90
2.72
0.37
-2.10
-4.58
-7.01
-9.27
-11.34
-13.22
-15.00
-16.82
-18.88
-21.31
-24.18
-27.34
-30.42
-32.83
-33.92
-33.13
-30.28
-25.53
-19.44
-12.71
-6.00
0.16
5.44
9.60
12.45
13.89
13.91
12.71
10.66
8.32
6.28
4.95
4.56
5.08
6.30
7.96
9.69
11.16
12.02
12.10
11.37
10.01
8.33
6.61
5.04
3.58
2.12
0.49
-1.38
-3.39
-5.40
-7.23
-8.77
-9.97
-10.94
-11.93
-13.29
-15.50
-18.91
-23.51
-28.79
-33.78
-37.17
-37.91
-35.47
-30.08
-22.62
-14.29
-6.29
0.57
5.82
9.47
11.75
12.99
13.51
13.50
13.09
12.32
11.29
10.15
9.12
8.45
8.24
8.50
9.05
9.60
9.91
9.82
9.39
8.79
8.18
7.60
6.93
5.92
4.39
2.31
-0.08
-2.42
-4.36
-5.71
-6.57
-7.16
-7.80
-8.76
-10.26
-12.45
-15.45
-19.25
-23.64
-28.06
-31.67
-33.57
-33.13
-30.18
-25.16
-18.94
-12.48
-6.53
-1.53
2.42
5.38
7.39
8.43
8.47
7.66
6.30
4.88
3.91
3.79
4.69
6.45
8.75
11.14
13.20
14.62
15.34
15.40
15.04
14.37
13.44
12.18
10.45
8.18
5.42
2.41
-0.55
-3.21
-5.44
-7.34
-9.06
-10.76
-12.48
-14.24
-16.09
-18.18
-20.66
-23.59
-26.70
-29.33
-30.63
-29.89
-26.75
-21.53
-14.97
-8.04
-1.63
3.73
7.81
10.58
12.15
12.64
12.23
11.21
9.98
8.97
8.55
8.88
9.80
10.91
11.79
12.05
11.54
10.44
9.11
7.91
7.08
6.53
5.99
5.08
3.50
1.23
-1.48
-4.16
-6.38
-7.87
-8.60
-8.80
-8.84
-9.07
-9.84
-11.32
-13.53
-16.25
-19.00
-21.09
-21.80
-20.59
-17.39
-12.53
-6.72
-0.76
4.64
8.99
12.05
13.73
14.09
13.29
11.70
9.76
7.92
6.51
5.69
5.44
5.56
5.88
6.26
6.57
6.79
6.85
6.66
6.12
5.13
3.65
1.80
-0.25
-2.34
-4.31
-6.07
-7.62
-8.96
-10.16
-11.32
-12.54
-14.02
-15.92
-18.27
-20.92
-23.46
-25.35
-26.03
-25.03
-22.19
-17.66
-11.88
-5.58
0.47
5.59
9.34
11.56
12.32
11.91
10.71
9.21
7.86
7.02
6.92
7.61
8.92
10.53
12.09
13.30
13.95
14.03
13.58
12.72
11.55
10.12
8.45
6.53
4.40
2.16
-0.11
-2.35
-4.54
-6.79
-9.26
-12.13
-15.51
-19.40
-23.61
-27.71
-31.02
-32.78
-32.35
-29.45
-24.33
-17.70
-10.48
-3.63
2.14
6.48
9.32
10.79
11.21
10.89
10.17
9.40
8.86
8.70
9.06
9.92
11.17
12.68
14.22
15.50
16.27
16.24
15.26
13.29
10.47
7.03
3.27
-0.55
-4.22
-7.56
-10.48
-12.91
-14.87
-16.59
-18.44
-20.82
-24.07
-28.16
-32.70
-36.96
-39.98
-40.88
-39.12
-34.64
-27.94
-19.95
-11.71
-4.16
2.12
6.98
10.49
12.82
14.05
14.28
13.62
12.39
11.09
10.20
10.06
10.63
11.72
12.97
14.14
15.13
15.93
16.52
16.82
16.71
16.08
14.88
13.11
10.82
8.12
5.27
2.55
0.27
-1.47
-2.82
-4.26
-6.33
-9.44
-13.66
-18.58
-23.49
-27.57
-30.04
-30.43
-28.54
-24.55
-18.93
-12.36
-5.63
0.58
5.79
9.77
12.53
14.15
14.80
14.63
13.85
12.77
11.80
11.35
11.75
13.07
15.09
17.41
19.53
21.05
21.75
21.65
20.93
19.81
18.42
16.81
14.89
12.56
9.85
6.87
3.82
0.91
-1.66
-3.83
-5.68
-7.40
-9.42
-12.16
-15.89
-20.51
-25.43
-29.63
-32.03
-31.79
-28.65
-23.03
-15.82
-8.07
-0.75
5.56
10.57
14.27
16.73
18.10
18.58
18.43
17.99
17.60
17.61
18.15
19.16
20.48
21.84
23.00
23.77
23.99
23.52
22.35
20.60
18.50
16.40
14.52
12.93
11.51
10.03
8.26
6.13
3.73
1.24
-1.16
-3.32
-5.29
-7.23
-9.38
-11.95
-15.06
-18.60
-22.20
-25.31
-27.33
-27.72
-26.22
-22.81
-17.80
-11.68
-5.09
1.32
6.98
11.47
14.54
16.18
16.55
16.01
15.06
14.25
13.98
14.44
15.58
17.09
18.61
19.82
20.49
20.53
19.89
18.59
16.74
14.50
12.07
9.64
7.30
5.05
2.95
1.08
-0.47
-1.63
-2.54
-3.54
-4.99
-7.22
-10.36
-14.20
-18.34
-22.19
-25.07
-26.31
-25.41
-22.22
-17.05
-10.66
-4.04
1.88
6.47
9.60
11.37
12.05
11.87
10.95
9.46
7.62
5.79
4.46
4.09
4.93
6.95
9.78
12.83
15.52
17.44
18.45
18.73
18.54
18.00
17.05
15.53
13.24
10.24
6.81
3.41
0.46
-1.91
-3.75
-5.32
-6.95
-8.92
-11.46
-14.76
-18.81
-23.45
-28.20
-32.31
-34.94
-35.32
-33.07
-28.32
-21.64
-13.96
-6.28
0.55
5.92
9.52
11.41
11.86
11.34
10.36
9.32
8.53
8.15
8.21
8.76
9.80
11.31
13.13
14.97
16.52
17.52
17.91
17.87
17.64
17.41
17.17
16.70
15.69
13.95
11.48
8.50
5.33
2.26
-0.59
-3.21
-5.75
-8.39
-11.32
-14.73
-18.73
-23.24
-27.97
-32.32
-35.51
-36.71
-35.36
-31.34
-25.05
-17.30
-9.15
-1.56
4.72
9.38
12.43
14.16
14.95
15.17
15.10
14.95
14.88
15.04
15.59
16.56
17.85
19.23
20.38
21.03
21.08
20.58
19.69
18.55
17.22
15.68
13.91
11.90
9.65
7.16
4.39
1.39
-1.66
-4.45
-6.69
-8.21
-9.23
-10.25
-11.88
-14.60
-18.51
-23.24
-28.09
-32.19
-34.66
-34.92
-32.64
-27.95
-21.37
-13.80
-6.18
0.65
6.14
10.19
12.93
14.67
15.66
16.12
16.21
16.10
16.00
16.17
16.77
17.84
19.29
20.87
22.26
23.20
23.51
23.17
22.29
21.01
19.51
17.87
16.10
14.15
11.91
9.27
6.22
2.91
-0.44
-3.54
-6.23
-8.49
-10.52
-12.58
-14.91
-17.71
-20.99
-24.69
-28.54
-32.13
-34.79
-35.77
-34.39
-30.31
-23.72
-15.35
-6.27
2.43
9.91
15.73
19.75
22.01
22.64
21.87
20.07
17.71
15.39
13.58
12.54
12.26
12.45
12.84
13.24
13.59
13.92
14.22
14.35
14.12
13.43
12.24
10.66
8.74
6.52
3.97
1.11
-1.91
-4.80
-7.24
-9.08
-10.35
-11.40
-12.71
-14.63
-17.35
-20.74
-24.35
-27.54
-29.66
-30.09
-28.42
-24.59
-18.87
-11.85
-4.38
2.76
8.93
13.75
17.15
19.15
19.86
19.34
17.77
15.45
12.88
10.63
9.13
8.65
9.05
10.06
11.26
12.38
13.26
13.92
14.39
14.64
14.62
14.15
13.11
11.45
9.19
6.48
3.49
0.46
-2.43
-5.07
-7.51
-9.87
-12.39
-15.30
-18.72
-22.65
-26.85
-30.99
-34.54
-36.95
-37.63
-36.14
-32.30
-26.30
-18.73
-10.47
-2.51
4.31
9.45
12.77
14.38
14.62
13.87
12.46
10.73
8.99
7.55
6.70
6.61
7.25
8.44
9.83
11.01
11.70
11.76
11.29
10.47
9.51
8.51
7.54
6.53
5.38
3.96
2.16
-0.07
-2.70
-5.48
-8.12
-10.36
-12.22
-14.00
-16.16
-19.21
-23.35
-28.41
-33.75
-38.40
-41.39
-41.87
-39.43
-34.08
-26.38
-17.28
-7.93
0.54
7.30
11.99
14.65
15.63
15.45
14.53
13.24
11.90
10.76
10.13
10.23
11.19
12.88
14.99
16.98
18.42
19.01
18.70
17.72
16.36
14.80
13.01
10.76
7.85
4.27
0.39
-3.26
-6.24
-8.38
-9.87
-11.13
-12.53
-14.29
-16.50
-19.18
-22.45
-26.36
-30.73
-34.95
-38.08
-39.05
-37.15
-32.29
-25.07
-16.56
-7.93
-0.11
6.35
11.28
14.66
16.59
17.16
16.53
14.99
13.05
11.35
10.46
10.72
12.05
14.07
16.20
17.92
18.93
19.23
19.02
18.53
17.88
17.08
15.97
14.37
12.10
9.17
5.73
2.14
-1.20
-4.01
-6.19
-7.90
-9.45
-11.28
-13.69
-16.91
-20.89
-25.39
-29.91
-33.73
-36.06
-36.16
-33.56
-28.27
-20.80
-12.08
-3.24
4.71
11.06
15.52
18.14
19.21
19.04
17.95
16.27
14.37
12.66
11.56
11.34
12.04
13.47
15.27
16.99
18.26
18.85
18.66
17.69
16.06
13.90
11.43
8.87
6.39
4.07
1.87
-0.34
-2.66
-5.10
-7.56
-9.88
-11.95
-13.82
-15.72
-17.97
-20.83
-24.32
-28.12
-31.52
-33.68
-33.80
-31.37
-26.40
-19.37
-11.14
-2.71
4.97
11.20
15.59
18.09
18.86
18.22
16.57
14.34
12.02
10.09
8.95
8.87
9.91
11.82
14.18
16.52
18.47
19.80
20.45
20.46
19.90
18.80
17.18
15.05
12.40
9.32
5.94
2.52
-0.65
-3.30
-5.32
-6.89
-8.37
-10.27
-12.98
-16.58
-20.73
-24.75
-27.74
-28.87
-27.66
-24.06
-18.53
-11.88
-5.01
1.36
6.75
10.99
13.99
15.72
16.13
15.23
13.29
10.75
8.24
6.36
5.52
5.80
6.99
8.71
10.50
11.97
12.85
13.03
12.49
11.28
9.49
7.23
4.69
2.08
-0.38
-2.52
-4.28
-5.71
-7.02
-8.48
-10.47
-13.31
-17.14
-21.83
-26.80
-31.15
-33.80
-33.85
-30.89
-25.13
-17.35
-8.69
-0.26
7.10
12.89
16.92
19.23
19.89
19.07
17.10
14.42
11.66
9.46
8.27
8.16
8.90
10.03
11.21
12.29
13.32
14.37
15.43
16.20
16.27
15.28
13.09
9.83
5.91
1.79
-2.11
-5.52
-8.45
-11.06
-13.70
-16.78
-20.67
-25.46
-30.94
-36.41
-40.88
-43.29
-42.77
-38.96
-32.14
-23.10
-12.99
-2.98
5.97
13.23
18.52
21.83
23.32
23.21
21.86
19.76
17.45
15.48
14.29
14.11
14.88
16.31
17.95
19.36
20.18
20.25
19.56
18.23
16.38
14.15
11.55
8.53
5.11
1.37
-2.44
-5.92
-8.76
-10.82
-12.29
-13.63
-15.46
-18.35
-22.58
-28.09
-34.33
-40.39
-45.14
-47.41
-46.40
-41.83
-34.10
-24.19
-13.42
-3.06
5.96
13.20
18.66
22.55
25.12
26.59
27.05
26.68
25.73
24.60
23.71
23.46
23.99
25.17
26.65
27.93
28.56
28.28
27.09
25.17
22.82
20.30
17.72
15.09
12.36
9.49
6.52
3.51
0.50
-2.47
-5.36
-8.13
-10.71
-13.16
-15.60
-18.33
-21.76
-26.23
-31.74
-37.72
-43.06
-46.36
-46.40
-42.62
-35.33
-25.65
-15.08
-4.95
3.87
11.03
16.54
20.51
23.06
24.33
24.58
24.23
23.75
23.53
23.77
24.50
25.55
26.76
27.94
28.87
29.38
29.32
28.66
27.56
26.23
24.87
23.50
21.96
19.98
17.35
14.07
10.39
6.68
3.24
0.16
-2.71
-5.57
-8.63
-11.97
-15.61
-19.56
-23.97
-28.97
-34.46
-39.94
-44.38
-46.50
-45.22
-40.12
-31.60
-20.88
-9.50
1.07
9.80
16.28
20.54
22.98
24.04
24.13
23.57
22.64
21.57
20.56
19.90
19.81
20.45
21.77
23.53
25.35
26.79
27.52
27.39
26.42
24.78
22.63
20.15
17.44
14.62
11.81
9.09
6.45
3.81
1.04
-1.94
-5.05
-8.11
-10.88
-13.21
-15.20
-17.18
-19.62
-22.92
-27.17
-32.05
-36.72
-40.01
-40.68
-37.89
-31.51
-22.27
-11.56
-1.04
7.92
14.60
18.91
21.23
22.00
21.59
20.22
18.12
15.75
13.68
12.53
12.63
13.95
16.09
18.38
20.20
21.12
21.02
20.08
18.67
17.14
15.73
14.46
13.11
11.39
9.10
6.23
3.02
-0.18
-3.05
-5.44
-7.40
-9.16
-10.98
-13.15
-15.84
-19.09
-22.81
-26.62
-29.91
-31.91
-31.88
-29.30
-24.11
-16.76
-8.12
0.74
8.83
15.47
20.35
23.39
24.75
24.62
23.23
20.90
18.04
15.14
12.71
11.09
10.40
10.51
11.04
11.60
11.86
11.69
11.16
10.40
9.48
8.43
7.18
5.65
3.85
1.83
-0.24
-2.26
-4.14
-5.91
-7.65
-9.49
-11.64
-14.27
-17.55
-21.51
-25.94
-30.33
-33.92
-35.87
-35.52
-32.59
-27.27
-20.17
-12.08
-3.83
3.89
10.54
15.71
19.10
20.53
20.12
18.18
15.29
12.15
9.42
7.56
6.78
6.99
7.85
8.97
9.90
10.32
10.14
9.42
8.39
7.28
6.25
5.29
4.27
3.03
1.39
-0.71
-3.22
-5.97
-8.70
-11.14
-13.10
-14.60
-15.89
-17.41
-19.57
-22.59
-26.27
-30.08
-33.18
-34.71
-34.07
-30.97
-25.60
-18.52
-10.61
-2.89
3.73
8.67
11.79
13.35
13.82
13.66
13.14
12.38
11.45
10.47
9.70
9.45
9.96
11.23
12.97
14.72
15.97
16.45
16.13
15.19
13.87
12.29
10.42
8.02
4.91
1.04
-3.36
-7.81
-11.76
-14.86
-17.01
-18.39
-19.41
-20.56
-22.30
-24.86
-28.23
-32.06
-35.72
-38.36
-39.12
-37.44
-33.15
-26.57
-18.50
-9.88
-1.66
5.40
10.87
14.68
16.94
17.92
17.89
17.11
15.82
14.30
12.91
11.99
11.78
12.28
13.25
14.26
14.79
14.49
13.30
11.49
9.49
7.70
6.30
5.16
3.92
2.20
-0.15
-2.94
-5.76
-8.17
-9.96
-11.19
-12.22
-13.47
-15.38
-18.19
-21.94
-26.40
-31.00
-34.82
-36.83
-36.13
-32.34
-25.79
-17.43
-8.48
-0.13
6.81
11.98
15.37
17.15
17.54
16.84
15.36
13.51
11.75
10.48
9.97
10.19
10.85
11.52
11.81
11.59
10.99
10.31
9.80
9.49
9.10
8.22
6.55
4.01
0.82
-2.62
-5.93
-8.81
-11.07
-12.68
-13.76
-14.56
-15.48
-16.97
-19.40
-22.79
-26.79
-30.63
-33.33
-33.96
-31.94
-27.28
-20.61
-12.95
-5.38
1.21
6.38
10.08
12.48
13.73
13.93
13.17
11.72
10.01
8.64
8.03
8.30
9.17
10.23
11.03
11.42
11.43
11.21
10.86
10.33
9.48
8.20
6.44
4.26
1.83
-0.68
-3.07
-5.24
-7.15
-8.95
-10.88
-13.21
-16.13
-19.63
-23.46
-27.10
-29.85
-30.98
-29.89
-26.32
-20.47
-13.01
-4.97
2.63
8.93
13.59
16.60
18.15
18.45
17.63
15.84
13.40
10.86
8.81
7.72
7.68
8.43
9.44
10.23
10.50
10.17
9.37
8.18
6.64
4.74
2.46
-0.14
-2.97
-5.83
-8.56
-11.01
-13.15
-15.11
-17.17
-19.63
-22.72
-26.35
-30.12
-33.29
-35.05
-34.72
-31.98
-26.98
-20.31
-12.80
-5.38
1.25
6.66
10.72
13.49
15.07
15.47
14.67
12.78
10.19
7.56
5.62
4.89
5.38
6.67
8.11
9.12
9.48
9.24
8.63
7.76
6.62
5.05
2.96
0.41
-2.40
-5.24
-7.95
-10.48
-12.95
-15.48
-18.25
-21.47
-25.15
-29.17
-33.10
-36.24
-37.75
-36.95
-33.52
-27.67
-20.04
-11.52
-3.00
4.81
11.33
16.17
19.08
20.04
19.30
17.38
15.01
12.89
11.56
11.28
11.98
13.34
14.89
16.17
16.86
16.89
16.33
15.40
14.28
12.97
11.36
9.23
6.41
2.92
-1.01
-5.04
-8.79
-12.03
-14.79
-17.29
-20.00
-23.33
-27.49
-32.28
-37.11
-40.95
-42.79
-41.82
-37.77
-30.96
-22.24
-12.68
-3.33
5.04
11.96
17.19
20.67
22.42
22.64
21.71
20.15
18.59
17.58
17.41
18.10
19.39
20.87
22.16
22.99
23.28
23.05
22.42
21.47
20.25
18.77
16.99
14.82
12.16
9.01
5.47
1.72
-1.93
-5.24
-8.04
-10.40
-12.57
-15.01
-18.16
-22.32
-27.43
-32.89
-37.71
-40.67
-40.77
-37.54
-31.26
-22.85
-13.52
-4.46
3.46
9.81
14.49
17.55
19.15
19.55
19.07
18.13
17.16
16.56
16.58
17.27
18.54
20.15
21.81
23.21
24.14
24.49
24.28
23.62
22.69
21.63
20.47
19.11
17.34
14.92
11.80
8.13
4.29
0.70
-2.30
-4.64
-6.55
-8.47
-10.85
-14.01
-18.04
-22.71
-27.62
-32.16
-35.61
-37.24
-36.43
-32.82
-26.46
-17.93
-8.23
1.40
9.79
16.17
20.24
22.19
22.51
21.72
20.28
18.56
16.85
15.48
14.81
15.05
16.25
18.14
20.19
21.84
22.64
22.45
21.40
19.89
18.29
16.77
15.28
13.58
11.44
8.83
5.92
3.02
0.46
-1.62
-3.29
-4.73
-6.18
-7.93
-10.22
-13.23
-16.99
-21.34
-25.73
-29.41
-31.54
-31.41
-28.72
-23.60
-16.58
-8.50
-0.31
7.11
13.02
17.07
19.16
19.55
18.66
17.04
15.18
13.49
12.35
12.08
12.79
14.42
16.64
18.91
20.65
21.38
20.98
19.57
17.49
15.05
12.47
9.82
7.08
4.23
1.35
-1.40
-3.82
-5.78
-7.27
-8.43
-9.58
-11.06
-13.26
-16.39
-20.42
-25.00
-29.39
-32.67
-33.84
-32.27
-27.84
-21.04
-12.84
-4.39
3.29
9.59
14.25
17.29
18.85
19.11
18.22
16.48
14.26
12.03
10.24
9.19
8.98
9.55
10.69
12.08
13.38
14.30
14.65
14.40
13.62
12.43
10.91
8.98
6.55
3.55
0.06
-3.60
-7.01
-9.77
-11.70
-12.91
-13.82
-14.95
-16.80
-19.68
-23.58
-28.20
-32.89
-36.78
-38.94
-38.64
-35.48
-29.65
-21.85
-13.08
-4.40
3.38
9.76
14.58
17.80
19.46
19.65
18.63
16.83
14.87
13.32
12.53
12.59
13.26
14.24
15.25
16.18
17.04
17.82
18.44
18.71
18.41
17.44
15.80
13.59
10.91
7.84
4.45
0.82
-2.84
-6.30
-9.31
-11.72
-13.52
-14.84
-15.93
-17.17
-18.98
-21.69
-25.35
-29.56
-33.41
-35.74
-35.49
-32.06
-25.63
-17.09
-7.74
1.12
8.59
14.30
18.25
20.69
21.84
21.84
20.78
18.86
16.50
14.23
12.56
11.83
12.05
13.00
14.32
15.64
16.73
17.46
17.78
17.70
17.23
16.44
15.29
13.75
11.75
9.24
6.26
2.92
-0.55
-3.91
-6.94
-9.55
-11.77
-13.79
-15.81
-18.12
-20.99
-24.51
-28.64
-33.01
-37.00
-39.77
-40.51
-38.68
-34.20
-27.47
-19.27
-10.54
-2.13
5.27
11.17
15.29
17.52
18.03
17.16
15.46
13.52
11.84
10.82
10.69
11.52
13.19
15.44
17.85
19.95
21.33
21.84
21.60
20.82
19.72
18.36
16.62
14.30
11.31
7.70
3.81
0.04
-3.13
-5.48
-7.07
-8.24
-9.45
-11.12
-13.43
-16.39
-19.86
-23.64
-27.45
-30.87
-33.31
-34.02
-32.38
-28.19
-21.76
-13.95
-5.81
1.71
7.95
12.65
15.73
17.25
17.27
15.99
13.71
10.94
8.17
5.86
4.33
3.74
4.09
5.23
6.89
8.70
10.31
11.47
12.11
12.33
12.22
11.80
10.91
9.33
6.90
3.71
0.12
-3.39
-6.36
-8.60
-10.20
-11.46
-12.79
-14.58
-17.04
-20.21
-23.90
-27.60
-30.59
-32.03
-31.25
-28.00
-22.51
-15.45
-7.70
-0.08
6.75
12.32
16.35
18.68
19.26
18.25
16.05
13.23
10.43
8.19
6.83
6.36
6.61
7.24
7.95
8.58
9.08
9.56
10.14
10.80
11.33
11.36
10.52
8.60
5.65
1.98
-1.92
-5.63
-8.86
-11.58
-13.93
-16.14
-18.51
-21.22
-24.38
-27.84
-31.18
-33.73
-34.64
-33.25
-29.22
-22.82
-14.84
-6.40
1.40
7.76
12.30
15.04
16.18
15.98
14.68
12.52
9.85
7.20
5.13
4.13
4.36
5.59
7.30
8.90
9.96
10.35
10.21
9.76
9.12
8.26
7.08
5.45
3.44
1.18
-1.15
-3.42
-5.59
-7.68
-9.80
-12.06
-14.58
-17.47
-20.84
-24.67
-28.83
-32.95
-36.51
-38.87
-39.42
-37.69
-33.56
-27.27
-19.49
-11.06
-2.90
4.29
10.05
14.17
16.68
17.65
17.29
15.87
13.82
11.60
9.70
8.47
8.13
8.65
9.82
11.28
12.58
13.38
13.49
12.98
12.08
11.01
9.90
8.66
7.09
5.04
2.57
-0.06
-2.48
-4.44
-5.97
-7.35
-9.03
-11.37
-14.54
-18.53
-23.07
-27.78
-32.05
-35.16
-36.33
-34.96
-30.83
-24.23
-16.00
-7.17
1.17
8.25
13.70
17.47
19.68
20.50
20.10
18.74
16.84
14.94
13.59
13.16
13.69
14.85
16.19
17.22
17.66
17.50
16.90
16.13
15.35
14.59
13.79
12.79
11.46
9.75
7.70
5.44
3.10
0.86
-1.24
-3.23
-5.24
-7.49
-10.19
-13.53
-17.56
-22.11
-26.69
-30.59
-32.95
-33.03
-30.48
-25.49
-18.70
-11.04
-3.45
3.34
8.95
13.26
16.25
17.98
18.50
18.00
16.79
15.37
14.23
13.78
14.19
15.38
17.01
18.66
19.94
20.60
20.63
20.13
19.26
18.14
16.76
15.08
13.06
10.75
8.31
5.93
3.76
1.77
-0.16
-2.26
-4.72
-7.69
-11.30
-15.47
-20.06
-24.61
-28.48
-30.97
-31.43
-29.57
-25.46
-19.52
-12.42
-4.84
2.55
9.09
14.25
17.65
19.14
18.88
17.29
14.97
12.52
10.50
9.25
8.92
9.45
10.62
12.09
13.50
14.58
15.13
15.10
14.52
13.47
12.03
10.27
8.23
6.01
3.63
1.16
-1.33
-3.80
-6.19
-8.53
-10.94
-13.61
-16.67
-20.09
-23.52
-26.34
-27.78
-27.21
-24.32
-19.32
-12.82
-5.60
1.52
7.95
13.24
17.13
19.43
20.08
19.18
17.09
14.37
11.67
9.62
8.62
8.77
9.90
11.64
13.56
15.29
16.54
17.16
17.13
16.48
15.28
13.57
11.41
8.81
5.92
2.97
0.14
-2.41
-4.72
-7.00
-9.57
-12.72
-16.63
-21.24
-26.30
-31.31
-35.62
-38.50
-39.24
-37.36
-32.77
-25.89
-17.54
-8.77
-0.53
6.52
12.02
15.86
18.19
19.21
19.19
18.44
17.28
16.05
15.00
14.31
14.03
14.11
14.39
14.69
14.83
14.74
14.40
13.84
13.04
11.88
10.19
7.85
4.90
1.62
-1.66
-4.58
-6.95
-8.76
-10.16
-11.35
-12.58
-14.15
-16.34
-19.43
-23.48
-28.17
-32.75
-36.11
-37.14
-35.19
-30.21
-22.84
-14.16
-5.33
2.78
9.59
14.91
18.68
20.87
21.55
20.90
19.30
17.30
15.43
14.09
13.46
13.45
13.88
14.52
15.24
15.90
16.37
16.45
15.97
14.84
13.09
10.86
8.35
5.73
3.13
0.63
-1.73
-3.92
-5.88
-7.61
-9.10
-10.41
-11.67
-13.10
-15.03
-17.71
-21.27
-25.45
-29.57
-32.58
-33.35
-31.07
-25.54
-17.34
-7.61
2.21
10.91
17.70
22.39
25.13
26.17
25.80
24.24
21.81
18.92
16.16
14.03
12.84
12.63
13.16
14.10
15.13
16.06
16.72
16.98
16.72
15.86
14.44
12.65
10.78
9.06
7.52
6.06
4.44
2.51
0.25
-2.18
-4.62
-6.99
-9.39
-12.11
-15.35
-19.17
-23.37
-27.53
-31.14
-33.68
-34.62
-33.59
-30.38
-25.12
-18.25
-10.58
-2.99
3.69
8.92
12.48
14.47
15.12
14.76
13.76
12.47
11.31
10.61
10.64
11.44
12.87
14.62
16.34
17.71
18.48
18.62
18.16
17.22
15.88
14.20
12.17
9.72
6.85
3.62
0.24
-3.00
-5.81
-8.02
-9.72
-11.21
-12.90
-15.12
-17.99
-21.24
-24.32
-26.55
-27.29
-26.14
-23.03
-18.24
-12.30
-5.92
0.23
5.62
9.91
12.99
14.81
15.43
14.92
13.50
11.50
9.41
7.76
6.88
6.89
7.57
8.58
9.60
10.46
11.13
11.65
11.93
11.78
10.90
9.06
6.28
2.80
-0.93
-4.44
-7.39
-9.70
-11.52
-13.17
-15.08
-17.63
-21.00
-25.10
-29.47
-33.32
-35.69
-35.71
-32.88
-27.27
-19.58
-10.89
-2.41
4.95
10.68
14.71
17.20
18.40
18.49
17.63
16.05
14.12
12.31
11.03
10.52
10.69
11.21
11.71
11.93
11.85
11.61
11.30
10.89
10.15
8.78
6.59
3.70
0.43
-2.77
-5.55
-7.83
-9.75
-11.68
-13.97
-16.90
-20.63
-25.12
-30.12
-35.08
-39.26
-41.77
-41.89
-39.26
-34.01
-26.76
-18.42
-9.95
-2.14
4.47
9.58
13.10
15.09
15.73
15.32
14.23
12.85
11.56
10.59
10.16
10.30
10.90
11.69
12.31
12.44
11.88
10.68
9.05
7.27
5.53
3.82
1.98
-0.09
-2.44
-4.91
-7.26
-9.27
-10.90
-12.35
-13.99
-16.22
-19.32
-23.29
-27.77
-32.02
-35.13
-36.22
-34.77
-30.74
-24.57
-17.06
-9.13
-1.61
4.84
9.86
13.29
15.18
15.81
15.60
15.00
14.49
14.39
14.82
15.69
16.82
17.95
18.89
19.52
19.76
19.59
19.01
18.02
16.63
14.87
12.78
10.40
7.76
4.89
1.88
-1.11
-3.90
-6.36
-8.47
-10.41
-12.50
-15.11
-18.56
-22.93
-27.93
-32.86
-36.76
-38.61
-37.80
-34.12
-28.02
-20.31
-11.96
-3.80
3.54
9.67
14.36
17.45
18.90
18.83
17.59
15.74
13.91
12.65
12.32
12.94
14.29
15.99
17.64
18.97
19.84
20.23
20.13
19.60
18.63
17.21
15.31
12.90
10.03
6.89
3.70
0.77
-1.78
-3.98
-6.13
-8.57
-11.61
-15.35
-19.63
-24.05
-28.11
-31.28
-33.03
-32.97
-30.77
-26.41
-20.10
-12.35
-3.92
4.33
11.60
17.25
20.91
22.55
22.44
21.09
19.18
17.37
16.15
15.74
16.05
16.76
17.48
17.92
17.96
17.69
17.24
16.75
16.13
15.19
13.70
11.58
8.92
6.01
3.18
0.62
-1.64
-3.76
-5.97
-8.45
-11.28
-14.49
-18.05
-21.88
-25.70
-28.98
-30.90
-30.69
-27.83
-22.42
-15.18
-7.15
0.63
7.46
13.01
17.21
19.99
21.25
20.87
18.98
16.07
12.87
10.20
8.62
8.31
9.06
10.46
12.08
13.56
14.73
15.47
15.61
15.01
13.52
11.10
7.92
4.32
0.74
-2.43
-4.95
-6.87
-8.38
-9.85
-11.63
-14.09
-17.35
-21.35
-25.65
-29.55
-32.24
-32.94
-31.16
-26.89
-20.60
-13.07
-5.25
2.04
8.26
13.13
16.57
18.57
19.14
18.45
16.83
14.82
13.04
12.00
11.90
12.55
13.53
14.35
14.76
14.76
14.55
14.35
14.24
14.08
13.56
12.35
10.18
7.05
3.21
-0.98
-5.04
-8.62
-11.59
-14.08
-16.43
-19.06
-22.31
-26.34
-30.95
-35.52
-39.11
-40.61
-39.18
-34.46
-26.83
-17.32
-7.24
2.15
10.04
16.15
20.49
23.26
24.60
24.62
23.45
21.47
19.11
16.95
15.43
14.81
15.09
16.05
17.32
18.52
19.30
19.46
18.98
17.98
16.66
15.08
13.19
10.78
7.74
4.18
0.40
-3.15
-6.12
-8.41
-10.18
-11.81
-13.67
-15.99
-18.87
-22.32
-26.13
-29.91
-32.98
-34.48
-33.61
-30.00
-23.89
-16.06
-7.63
0.40
7.29
12.73
16.57
18.84
19.65
19.21
17.95
16.33
14.86
13.89
13.60
14.04
15.14
16.77
18.65
20.47
21.84
22.53
22.44
21.69
20.48
18.97
17.23
15.18
12.80
10.11
7.24
4.34
1.52
-1.21
-3.90
-6.60
-9.37
-12.24
-15.29
-18.63
-22.36
-26.49
-30.74
-34.56
-37.12
-37.59
-35.38
-30.39
-23.10
-14.47
-5.61
2.46
9.11
14.10
17.49
19.55
20.53
20.68
20.18
19.23
18.11
17.06
16.36
16.17
16.56
17.35
18.28
19.03
19.38
19.24
18.68
17.84
16.78
15.49
13.89
11.89
9.51
6.93
4.39
2.02
-0.13
-2.23
-4.42
-6.84
-9.50
-12.34
-15.28
-18.31
-21.46
-24.65
-27.65
-29.99
-31.05
-30.31
-27.53
-22.90
-16.94
-10.39
-3.95
1.87
6.74
10.53
13.19
14.75
15.26
14.84
13.70
12.16
10.64
9.51
9.00
9.14
9.71
10.41
10.96
11.23
11.24
11.04
10.66
10.04
9.08
7.80
6.28
4.68
3.13
1.63
0.13
-1.48
-3.27
-5.29
-7.55
-10.15
-13.14
-16.59
-20.31
-23.89
-26.64
-27.81
-26.78
-23.38
-17.92
-11.20
-4.16
2.37
7.87
12.17
15.31
17.34
18.25
17.98
16.63
14.45
11.96
9.72
8.18
7.58
7.81
8.59
9.48
10.17
10.47
10.44
10.25
9.93
9.39
8.30
6.26
3.06
-1.13
-5.78
-10.22
-13.86
-16.51
-18.30
-19.68
-21.11
-22.92
-25.30
-28.19
-31.40
-34.53
-37.03
-38.23
-37.51
-34.44
-28.99
-21.62
-13.11
-4.50
3.31
9.66
14.25
17.02
18.13
17.87
16.56
14.59
12.39
10.42
9.10
8.63
8.99
9.90
11.00
11.90
12.44
12.63
12.56
12.30
11.77
10.73
8.93
6.23
2.72
-1.24
-5.15
-8.56
-11.22
-13.13
-14.60
-16.00
-17.82
-20.39
-23.90
-28.29
-33.16
-37.80
-41.28
-42.70
-41.40
-37.27
-30.72
-22.58
-13.87
-5.49
1.97
8.22
13.08
16.45
18.23
18.43
17.36
15.57
13.74
12.53
12.27
12.92
14.16
15.52
16.61
17.22
17.27
16.82
15.92
14.60
12.89
10.81
8.38
5.62
2.62
-0.54
-3.71
-6.80
-9.76
-12.57
-15.24
-17.77
-20.23
-22.71
-25.38
-28.29
-31.30
-33.97
-35.59
-35.39
-32.82
-27.77
-20.68
-12.41
-3.96
3.75
10.05
14.63
17.44
18.62
18.47
17.34
15.65
13.81
12.23
11.20
10.93
11.46
12.62
14.14
15.62
16.67
17.07
16.77
15.90
14.73
13.46
12.16
10.77
9.13
7.05
4.50
1.54
-1.59
-4.61
-7.24
-9.36
-11.04
-12.61
-14.52
-17.26
-21.05
-25.64
-30.35
-34.16
-36.01
-35.18
-31.52
-25.44
-17.82
-9.64
-1.75
5.19
10.77
14.76
17.06
17.74
17.06
15.53
13.68
12.03
10.87
10.28
10.16
10.37
10.76
11.24
11.72
12.10
12.25
12.03
11.38
10.27
8.77
6.96
4.96
2.87
0.85
-0.90
-2.24
-3.20
-3.94
-4.87
-6.47
-9.10
-12.88
-17.58
-22.62
-27.15
-30.23
-31.11
-29.33
-24.90
-18.29
-10.29
-1.83
6.19
13.05
18.26
21.54
22.81
22.25
20.26
17.43
14.44
11.86
10.05
9.13
8.99
9.37
10.03
10.73
11.33
11.78
12.04
12.04
11.69
10.87
9.56
7.76
5.60
3.18
0.62
-2.00
-4.62
-7.09
-9.28
-11.12
-12.76
-14.59
-17.12
-20.66
-25.12
-29.86
-33.84
-35.98
-35.56
-32.40
-26.96
-20.04
-12.49
-5.00
1.98
8.20
13.49
17.64
20.52
22.07
22.41
21.85
20.89
20.05
19.72
20.11
21.14
22.51
23.82
24.69
24.89
24.36
23.19
21.59
19.72
17.66
15.36
12.72
9.65
6.16
2.39
-1.45
-5.08
-8.34
-11.14
-13.55
-15.79
-18.19
-21.11
-24.87
-29.50
-34.71
-39.81
-43.81
-45.68
-44.66
-40.51
-33.62
-24.89
-15.37
-6.17
1.90
8.30
12.81
15.44
16.43
16.10
14.81
12.96
10.89
8.91
7.23
5.95
5.06
4.48
3.99
3.38
2.46
1.17
-0.37
-2.01
-3.60
-5.13
-6.74
-8.70
-11.24
-14.44
-18.11
-21.88
-25.35
-28.28
-30.64
-32.57
-34.23
-35.64
-36.79
-37.71
-38.64
-39.90
-41.78
-44.15
-46.37
-47.36
-46.01
-41.64
-34.28
-24.73
-14.16
-3.74
5.71
13.88
20.70
26.20
30.36
33.08
34.31
34.32
33.56
32.69
32.30
32.74
33.98
35.69
37.39
38.66
39.27
39.21
38.62
37.67
36.46
35.02
33.24
30.92
27.91
24.18
19.91
15.49
11.39
7.99
5.44
3.54
1.86
-0.11
-2.83
-6.56
-11.28
-16.63
-21.98
-26.48
-29.21
-29.47
-26.97
-21.93
-15.02
-7.09
0.99
8.50
14.84
19.53
22.23
22.76
21.27
18.21
14.32
10.46
7.35
5.47
4.98
5.68
7.16
8.97
10.65
11.92
12.71
13.11
13.27
13.33
13.26
12.91
12.15
10.84
9.03
6.88
4.65
2.53
0.54
-1.50
-3.92
-7.13
-11.50
-17.29
-24.43
-32.46
-40.46
-47.16
-51.27
-51.80
-48.44
-41.69
-32.71
-22.87
-13.43
-5.18
1.60
6.99
11.25
14.68
17.54
20.12
22.72
25.57
28.81
32.40
36.06
39.38
41.95
43.54
44.20
44.19
43.85
43.45
43.04
42.46
41.43
39.70
37.13
33.72
29.58
24.91
19.99
15.08
10.41
6.05
1.88
-2.40
-7.12
-12.47
-18.22
-23.68
-27.85
-29.65
-28.39
-24.00
-17.18
-9.17
-1.33
5.25
10.05
13.03
14.49
14.72
13.95
12.33
10.10
7.71
5.77
4.88
5.41
7.33
10.29
13.66
16.81
19.19
20.45
20.51
19.54
17.86
15.81
13.66
11.46
9.18
6.76
4.22
1.61
-0.95
-3.49
-6.15
-9.08
-12.43
-16.17
-20.24
-24.53
-28.94
-33.27
-37.10
-39.79
-40.55
-38.81
-34.38
-27.65
-19.46
-10.85
-2.73
4.24
9.78
13.87
16.58
17.97
18.09
17.08
15.20
12.92
10.80
9.35
8.91
9.45
10.71
12.28
13.73
14.83
15.45
15.67
15.58
15.24
14.67
13.79
12.54
10.87
8.84
6.55
4.19
1.89
-0.28
-2.38
-4.60
-7.12
-10.16
-13.80
-17.93
-22.16
-25.82
-28.08
-28.28
-26.06
-21.57
-15.42
-8.38
-1.24
5.39
11.12
15.67
18.86
20.60
20.99
20.28
18.86
17.10
15.36
13.89
12.94
12.72
13.31
14.65
16.38
18.09
19.41
20.11
20.09
19.41
18.13
16.34
14.16
11.76
9.35
7.16
5.26
3.60
1.98
0.09
-2.31
-5.33
-8.79
-12.23
-14.91
-15.98
-14.79
-11.13
-5.41
1.43
8.23
13.93
17.88
19.86
19.99
18.56
15.84
12.10
7.62
2.82
-1.81
-5.76
-8.71
-10.57
-11.45
-11.60
-11.31
-10.74
-10.03
-9.36
-8.86
-8.70
-8.96
-9.64
-10.73
-12.26
-14.34
-17.09
-20.52
-24.42
-28.48
-32.54
-36.66
-40.99
-45.39
-49.13
-50.89
-49.26
-43.50
-34.05
-22.59
-11.27
-1.98
4.45
8.21
10.14
11.13
11.71
11.98
11.88
11.41
10.65
9.76
8.89
8.14
7.59
7.29
7.19
7.15
6.92
6.18
4.66
2.19
-1.25
-5.54
-10.46
-15.73
-21.05
-26.13
-30.67
-34.46
-37.44
-39.71
-41.51
-43.08
-44.39
-44.98
-44.10
-40.89
-34.88
-26.25
-15.83
-4.84
5.53
14.44
21.48
26.54
29.56
30.55
29.56
26.95
23.33
19.58
16.62
15.04
15.06
16.43
18.54
20.70
22.43
23.53
24.07
24.25
24.11
23.46
22.02
19.58
16.24
12.51
9.11
6.67
5.47
5.20
5.20
4.66
3.05
0.43
-2.60
-5.03
-5.77
-3.90
1.01
8.84
18.76
29.24
38.31
43.74
43.74
37.49
25.61
10.30
-5.08
-16.89
-22.34
-20.41
-12.26
-0.81
10.38
18.38
21.87
21.36
18.56
15.44
13.28
12.32
11.99
11.35
9.64
6.40
1.39
-5.57
-14.55
-25.35
-37.32
-49.46
-60.68
-70.04
-76.97
-81.21
-82.70
-81.51
-77.82
-71.91
-64.23
-55.29
-45.61
-35.66
-25.75
-16.12
-6.75
2.51
11.96
21.77
31.69
40.93
48.39
53.14
54.83
53.92
51.35
48.08
44.60
40.93
36.79
31.94
26.51
20.86
15.43
10.46
5.94
1.64
-2.74
-7.33
-12.07
-16.68
-20.80
-24.26
-27.18
-29.87
-32.54
-35.03
-36.67
-36.68
-34.59
-30.70
-26.00
-21.72
-18.73
-17.01
-15.85
-14.17
-11.32
-7.42
-3.27
0.15
2.15
2.64
2.10
1.21
0.56
0.44
0.80
1.52
2.44
3.49
4.64
5.80
6.76
7.23
6.98
5.94
4.26
2.22
0.08
-2.00
-4.07
-6.39
-9.22
-12.70
-16.72
-20.83
-24.34
-26.45
-26.50
-24.25
-19.88
-14.02
-7.52
-1.19
4.50
9.29
13.12
15.98
17.73
18.22
17.42
15.59
13.25
11.09
9.65
9.20
9.61
10.52
11.46
12.03
11.96
11.10
9.51
7.29
4.65
1.83
-0.95
-3.56
-5.93
-8.12
-10.24
-12.51
-15.12
-18.13
-21.31
-24.14
-25.85
-25.68
-23.24
-18.65
-12.51
-5.75
0.72
6.23
10.51
13.53
15.39
16.20
16.04
14.95
13.11
10.83
8.54
6.71
5.67
5.55
6.23
7.38
8.60
9.54
9.98
9.88
9.26
8.18
6.66
4.71
2.37
-0.27
-2.98
-5.54
-7.87
-10.11
-12.58
-15.62
-19.35
-23.52
-27.51
-30.45
-31.52
-30.18
-26.28
-20.13
-12.38
-3.92
4.26
11.24
16.35
19.34
20.35
19.88
18.52
16.82
15.18
13.79
12.76
12.11
11.88
12.10
12.71
13.58
14.52
15.33
15.87
15.99
15.63
14.72
13.20
11.06
8.33
5.13
1.64
-1.95
-5.52
-8.97
-12.30
-15.62
-19.04
-22.72
-26.71
-30.81
-34.52
-37.07
-37.58
-35.42
-30.42
-23.03
-14.20
-5.05
3.44
10.70
16.56
21.08
24.41
26.60
27.66
27.56
26.43
24.59
22.52
20.81
19.88
19.84
20.50
21.35
21.89
21.81
21.11
20.05
18.97
17.94
16.78
15.11
12.67
9.49
5.91
2.39
-0.72
-3.29
-5.40
-7.26
-9.01
-10.83
-12.82
-15.21
-18.25
-22.00
-26.24
-30.43
-33.71
-35.18
-34.14
-30.25
-23.72
-15.23
-5.90
3.06
10.58
16.09
19.53
21.30
21.92
21.83
21.30
20.40
19.23
18.03
17.11
16.77
17.14
18.11
19.36
20.55
21.42
21.87
21.86
21.44
20.58
19.23
17.36
15.02
12.39
9.69
7.12
4.79
2.70
0.71
-1.28
-3.33
-5.43
-7.53
-9.68
-11.99
-14.64
-17.85
-21.68
-26.00
-30.29
-33.79
-35.56
-34.84
-31.30
-25.17
-17.23
-8.54
-0.20
7.03
12.74
16.94
19.80
21.50
22.25
22.20
21.55
20.55
19.55
18.84
18.66
19.04
19.82
20.72
21.45
21.81
21.69
21.09
20.02
18.52
16.60
14.30
11.68
8.85
5.89
2.90
-0.01
-2.75
-5.21
-7.29
-8.93
-10.16
-11.10
-11.98
-13.04
-14.51
-16.58
-19.26
-22.35
-25.41
-27.72
-28.48
-27.01
-23.05
-16.89
-9.32
-1.39
5.88
11.80
16.07
18.71
19.90
19.86
18.82
17.04
14.85
12.70
11.04
10.23
10.38
11.35
12.74
14.05
14.80
14.73
13.77
12.13
10.09
7.91
5.76
3.71
1.79
0.06
-1.41
-2.56
-3.41
-4.06
-4.67
-5.32
-6.05
-6.75
-7.36
-7.90
-8.59
-9.77
-11.77
-14.65
-18.16
-21.63
-24.23
-25.15
-23.86
-20.34
-15.01
-8.61
-2.03
4.01
9.01
12.74
15.19
16.45
16.68
16.02
14.73
13.16
11.74
10.88
10.77
11.35
12.32
13.24
13.76
13.69
13.12
12.26
11.31
10.34
9.26
7.85
5.93
3.42
0.40
-2.86
-6.02
-8.70
-10.63
-11.63
-11.73
-11.15
-10.25
-9.49
-9.29
-9.95
-11.58
-14.10
-17.23
-20.44
-23.05
-24.33
-23.76
-21.14
-16.75
-11.23
-5.44
-0.15
4.12
7.17
9.02
9.79
9.66
8.82
7.46
5.85
4.24
2.90
2.08
1.87
2.25
3.04
4.00
4.89
5.58
6.01
6.26
6.35
6.25
5.83
4.95
3.60
1.83
-0.18
-2.26
-4.25
-6.05
-7.59
-8.80
-9.62
-10.07
-10.34
-10.75
-11.68
-13.39
-15.82
-18.63
-21.26
-23.09
-23.66
-22.81
-20.62
-17.38
-13.50
-9.39
-5.40
-1.84
1.07
3.23
4.57
5.16
5.15
4.79
4.35
4.05
4.03
4.27
4.64
4.94
5.01
4.77
4.32
3.76
3.20
2.63
1.98
1.18
0.28
-0.51
-1.01
-1.10
-0.90
-0.75
-1.00
-1.94
-3.65
-6.04
-8.90
-12.05
-15.25
-18.30
-20.85
-22.53
-22.96
-21.88
-19.24
-15.23
-10.26
-4.87
0.39
5.05
8.84
11.59
13.24
13.74
13.03
11.15
8.36
5.12
1.97
-0.58
-2.34
-3.46
-4.31
-5.25
-6.39
-7.52
-8.24
-8.24
-7.42
-6.07
-4.60
-3.44
-2.78
-2.59
-2.71
-3.05
-3.68
-4.76
-6.48
-8.81
-11.53
-14.28
-16.71
-18.65
-20.06
-21.01
-21.46
-21.22
-19.94
-17.26
-13.00
-7.23
-0.33
7.07
14.16
20.19
24.45
26.55
26.39
24.33
21.13
17.84
15.40
14.41
14.89
16.19
17.32
17.17
14.94
10.41
4.00
-3.33
-10.27
-15.55
-18.33
-18.45
-16.60
-14.07
-12.28
-12.19
-13.98
-17.05
-20.46
-23.45
-25.92
-28.30
-31.36
-35.57
-40.80
-46.24
-50.79
-53.53
-54.16
-53.08
-51.24
-49.55
-48.35
-47.22
-45.17
-41.27
-35.30
-28.16
-21.44
-16.78
-14.84
-15.03
-15.67
-14.84
-11.21
-4.55
4.32
13.92
22.62
28.99
32.03
31.33
27.25
21.11
15.02
11.30
11.71
16.74
25.40
35.68
45.47
53.38
59.15
63.31
66.53
69.17
71.02
71.66
70.81
68.62
65.65
62.51
59.55
56.64
53.22
48.63
42.48
34.99
27.15
20.50
16.64
16.49
19.87
25.46
31.26
35.50
37.16
36.24
33.47
29.67
25.42
20.99
16.47
12.03
7.93
4.37
1.35
-1.41
-4.30
-7.54
-11.05
-14.48
-17.42
-19.59
-20.93
-21.61
-21.86
-21.89
-21.74
-21.45
-21.03
-20.60
-20.44
-20.76
-21.65
-22.84
-23.87
-24.14
-23.31
-21.49
-19.33
-17.74
-17.47
-18.71
-20.93
-23.20
-24.62
-24.75
-23.79
-22.25
-20.65
-19.18
-17.73
-16.18
-14.70
-13.69
-13.62
-14.58
-16.12
-17.51
-17.99
-17.23
-15.29
-12.45
-9.06
-5.42
-1.87
1.14
3.10
3.79
3.43
2.82
3.00
4.80
8.44
13.36
18.53
22.78
25.20
25.28
23.07
19.11
14.39
10.10
7.27
6.38
7.21
9.10
11.40
13.97
17.37
22.57
30.31
40.68
52.93
65.69
77.48
86.98
93.30
95.87
94.39
88.94
80.09
69.00
57.20
46.32
37.55
31.25
26.99
23.70
20.21
15.64
9.69
2.55
-5.32
-13.45
-21.55
-29.36
-36.64
-43.06
-48.33
-52.36
-55.43
-57.96
-60.23
-62.17
-63.26
-62.90
-60.68
-56.68
-51.42
-45.67
-40.15
-35.47
-32.06
-30.18
-29.93
-31.08
-33.06
-35.00
-36.04
-35.54
-33.46
-30.30
-26.92
-24.23
-22.75
-22.50
-22.99
-23.49
-23.33
-22.12
-19.88
-16.89
-13.51
-10.10
-6.88
-3.98
-1.45
0.78
2.92
5.22
7.88
10.91
13.97
16.44
17.64
17.09
14.75
11.16
7.19
3.79
1.65
1.06
1.87
