1520865377.00
64.000000
-0.00
-0.00
-0.00
-0.00
-0.00
-0.00
-0.00
-0.00
-0.00
-0.00
0.00
0.01
0.01
-0.00
-0.03
-0.05
-0.05
0.00
0.13
0.36
0.66
1.01
1.37
1.72
2.06
2.40
2.79
3.24
3.80
4.42
5.06
5.66
6.20
6.68
7.15
7.68
8.31
9.14
10.09
11.04
11.88
12.56
13.14
13.76
14.65
15.96
17.91
20.32
22.90
25.38
27.58
29.57
31.68
34.32
37.81
42.54
48.15
54.10
59.83
64.97
69.58
74.14
79.34
85.71
93.76
103.00
112.62
121.73
129.77
136.75
143.30
150.75
157.77
166.64
177.95
191.79
206.97
220.57
228.25
225.36
208.53
176.87
132.76
80.05
23.07
-34.94
-92.44
-149.16
-205.23
-260.37
-313.74
-363.87
-409.83
-450.91
-486.50
-515.74
-537.23
-549.22
-549.96
-538.37
-514.21
-478.67
-433.88
-382.45
-327.02
-269.84
-212.63
-156.66
-102.95
-52.37
-5.90
35.58
71.43
101.35
125.50
144.38
158.69
169.15
176.37
180.75
182.57
182.07
179.51
175.23
169.65
163.18
156.15
148.81
141.30
133.69
126.02
118.33
110.69
103.16
95.80
88.68
81.83
75.25
68.95
62.95
57.25
51.86
46.78
42.03
37.59
33.45
29.61
26.07
22.81
19.83
17.11
14.67
12.48
10.54
8.83
7.35
6.07
4.97
4.05
3.27
2.62
2.09
1.65
1.30
1.01
0.79
0.61
0.47
0.37
0.29
0.23
0.19
0.16
0.14
0.14
0.14
0.16
0.17
0.20
0.23
0.27
0.31
0.35
0.39
0.44
0.49
0.53
0.58
0.64
0.69
0.75
0.81
0.88
0.96
1.04
1.14
1.24
1.35
1.48
1.63
1.79
1.97
2.18
2.40
2.65
2.92
3.23
3.56
3.92
4.32
4.75
5.22
5.73
6.27
6.86
7.48
8.15
8.86
9.62
10.42
11.28
12.17
13.10
14.09
15.15
16.27
17.45
18.68
19.95
21.22
22.42
23.48
24.30
24.76
24.72
24.10
22.80
20.78
18.05
14.67
10.73
6.41
1.91
-2.56
-6.81
-10.62
-13.86
-16.41
-18.22
-19.29
-19.64
-19.36
-18.57
-17.35
-15.83
-14.12
-12.31
-10.49
-8.69
-6.91
-5.18
-3.48
-1.78
-0.04
1.73
3.55
5.40
7.30
9.34
11.44
13.63
15.93
18.38
20.96
23.64
26.40
29.25
32.33
35.50
38.80
42.29
46.00
49.87
53.79
57.61
61.32
65.12
68.86
72.66
76.70
81.04
85.55
89.89
93.69
96.73
99.18
100.83
101.87
102.51
102.66
101.73
98.57
91.54
78.50
62.25
43.85
24.37
4.72
-14.57
-33.42
-52.18
-71.43
-91.86
-114.11
-139.21
-167.23
-196.75
-224.80
-247.26
-260.13
-260.98
-249.91
-229.48
-204.26
-178.53
-155.14
-135.20
-118.45
-104.16
-91.75
-80.93
-71.47
-63.23
-55.75
-48.55
-41.51
-34.96
-29.55
-25.88
-23.99
-23.18
-22.38
-20.25
-15.90
-9.16
-0.68
8.31
16.50
22.98
27.50
30.26
31.79
32.58
32.94
32.91
32.46
31.55
30.31
28.99
27.89
27.30
27.35
27.99
29.04
30.16
31.05
31.46
31.27
30.50
29.24
27.54
25.38
22.71
19.57
16.14
12.78
9.88
7.64
5.98
4.53
2.80
0.35
-3.01
-7.23
-12.01
-16.82
-21.01
-23.84
-24.61
-22.87
-18.52
-11.98
-4.02
4.37
12.28
19.03
24.24
27.74
29.51
29.66
28.40
26.13
23.31
20.48
18.02
16.17
14.96
14.26
13.91
13.76
13.80
14.02
14.45
15.00
15.51
15.74
15.46
14.48
12.81
10.58
8.05
5.50
3.12
0.96
-1.05
-3.13
-5.48
-8.31
-11.68
-15.45
-19.26
-22.49
-24.45
-24.55
-22.46
-18.24
-12.33
-5.44
1.64
8.17
13.56
17.40
19.48
19.83
18.73
16.65
14.17
11.85
10.10
9.15
9.01
9.57
10.61
11.87
13.02
13.79
13.98
13.56
12.62
11.34
9.86
8.23
6.45
4.48
2.36
0.20
-1.93
-4.03
-6.22
-8.73
-11.74
-15.30
-19.27
-23.21
-26.51
-28.47
-28.46
-26.07
-21.35
-14.77
-7.21
0.36
7.03
12.22
15.71
17.53
17.85
16.93
15.09
12.69
10.16
7.87
6.12
5.07
4.74
4.99
5.59
6.23
6.60
6.48
5.76
4.47
2.69
0.56
-1.80
-4.25
-6.61
-8.72
-10.50
-12.01
-13.49
-15.27
-17.62
-20.60
-24.00
-27.38
-30.11
-31.54
-31.12
-28.55
-23.87
-17.56
-10.36
-3.21
3.14
8.16
11.67
13.75
14.59
14.43
13.57
12.33
11.08
10.17
9.88
10.31
11.41
12.93
14.57
16.02
17.05
17.61
17.73
17.47
16.89
16.01
14.81
13.31
11.56
9.64
7.59
5.35
2.79
-0.22
-3.69
-7.45
-11.05
-13.82
-15.00
-13.96
-10.45
-4.77
2.23
9.32
15.29
19.32
21.16
21.11
19.75
17.66
15.23
12.72
10.34
8.37
7.20
7.10
8.09
9.81
11.60
12.73
12.67
11.28
8.86
5.97
3.20
0.91
-0.89
-2.45
-4.15
-6.28
-8.96
-12.10
-15.54
-19.11
-22.64
-25.89
-28.50
-29.93
-29.61
-27.17
-22.64
-16.51
-9.60
-2.85
2.99
7.48
10.46
12.00
12.23
11.32
9.49
7.03
4.40
2.06
0.41
-0.34
-0.23
0.49
1.53
2.60
3.49
4.07
4.25
3.95
3.19
2.01
0.52
-1.15
-2.94
-4.86
-7.03
-9.53
-12.41
-15.63
-18.98
-22.14
-24.69
-26.14
-26.03
-24.06
-20.19
-14.79
-8.55
-2.27
3.29
7.70
10.90
13.07
14.52
15.48
16.00
16.05
15.58
14.64
13.47
12.44
11.93
12.17
13.16
14.61
16.04
16.95
16.99
16.11
14.53
12.56
10.47
8.32
6.00
3.44
0.63
-2.27
-5.09
-7.77
-10.38
-12.99
-15.46
-17.34
-17.96
-16.73
-13.49
-8.64
-3.03
2.35
6.74
9.78
11.49
12.12
11.92
11.09
9.76
8.15
6.50
5.12
4.22
3.84
3.84
3.96
3.91
3.54
2.82
1.81
0.61
-0.71
-2.17
-3.82
-5.68
-7.72
-9.80
-11.77
-13.49
-14.93
-16.18
-17.41
-18.74
-20.13
-21.28
-21.64
-20.67
-18.03
-13.76
-8.35
-2.54
2.96
7.67
11.40
14.13
15.91
16.72
16.53
15.38
13.45
11.12
8.82
6.95
5.70
5.06
4.87
4.90
5.01
5.12
5.22
5.24
5.05
4.41
3.15
1.26
-1.04
-3.33
-5.27
-6.75
-7.93
-9.21
-10.96
-13.36
-16.23
-19.08
-21.21
-21.93
-20.77
-17.56
-12.60
-6.48
-0.01
6.01
10.96
14.54
16.64
17.39
16.97
15.63
13.74
11.73
10.02
8.93
8.54
8.73
9.23
9.75
10.07
10.11
9.83
9.26
8.39
7.26
5.88
4.32
2.67
1.00
-0.67
-2.32
-4.00
-5.76
-7.72
-9.96
-12.56
-15.51
-18.70
-21.86
-24.59
-26.32
-26.48
-24.66
-20.80
-15.25
-8.75
-2.22
3.57
8.14
11.38
13.47
14.59
14.90
14.47
13.39
11.91
10.44
9.39
9.01
9.27
9.89
10.47
10.74
10.62
10.27
9.91
9.68
9.52
9.17
8.35
6.83
4.62
1.97
-0.75
-3.21
-5.19
-6.73
-8.04
-9.45
-11.21
-13.49
-16.28
-19.42
-22.58
-25.29
-26.97
-27.00
-25.01
-20.96
-15.28
-8.76
-2.30
3.36
7.86
11.14
13.34
14.62
15.06
14.71
13.71
12.34
11.04
10.21
10.05
10.52
11.29
11.93
12.07
11.55
10.46
9.06
7.61
6.29
5.13
4.03
2.84
1.48
-0.06
-1.66
-3.18
-4.46
-5.45
-6.21
-6.89
-7.67
-8.68
-9.98
-11.59
-13.54
-15.75
-18.07
-20.07
-21.13
-20.57
-17.97
-13.43
-7.57
-1.36
4.23
8.60
11.62
13.49
14.49
14.82
14.51
13.56
12.09
10.38
8.92
8.11
8.14
8.89
9.99
10.90
11.17
10.63
9.38
7.79
6.24
4.99
4.04
3.22
2.32
1.19
-0.16
-1.64
-3.12
-4.58
-6.00
-7.41
-8.73
-9.91
-10.97
-12.02
-13.32
-15.10
-17.39
-19.91
-22.10
-23.29
-22.92
-20.77
-17.06
-12.28
-7.14
-2.29
1.76
4.71
6.50
7.26
7.23
6.73
6.01
5.31
4.77
4.49
4.52
4.91
5.65
6.72
8.02
9.39
10.56
11.30
11.42
10.88
9.82
8.51
7.24
6.19
5.35
4.57
3.65
2.44
0.99
-0.55
-2.02
-3.39
-4.80
-6.50
-8.74
-11.57
-14.81
-18.01
-20.54
-21.81
-21.39
-19.15
-15.30
-10.31
-4.75
0.79
5.81
9.96
12.98
14.72
15.15
14.42
12.85
10.92
9.17
8.01
7.58
7.76
8.26
8.74
9.03
9.11
9.09
9.07
8.99
8.68
7.89
6.49
4.57
2.38
0.21
-1.72
-3.41
-4.93
-6.42
-7.94
-9.45
-10.94
-12.45
-14.15
-16.14
-18.38
-20.49
-21.83
-21.71
-19.66
-15.74
-10.44
-4.66
0.75
5.15
8.32
10.32
11.32
11.47
10.85
9.59
7.91
6.24
5.03
4.66
5.19
6.41
7.90
9.20
10.01
10.22
9.88
9.08
7.90
6.36
4.48
2.37
0.18
-1.88
-3.71
-5.33
-6.90
-8.60
-10.61
-12.98
-15.67
-18.54
-21.29
-23.51
-24.63
-24.08
-21.53
-17.03
-11.15
-4.81
1.03
5.70
8.92
10.80
11.65
11.72
11.13
10.00
8.53
7.01
5.79
5.10
4.97
5.26
5.70
6.12
6.39
6.42
6.09
5.29
3.88
1.85
-0.63
-3.28
-5.78
-7.90
-9.57
-10.84
-11.89
-12.97
-14.37
-16.34
-19.04
-22.34
-25.77
-28.54
-29.75
-28.70
-25.16
-19.47
-12.47
-5.15
1.56
7.03
11.00
13.45
14.57
14.61
13.89
12.74
11.47
10.31
9.42
8.83
8.49
8.32
8.20
8.01
7.63
6.95
5.87
4.39
2.55
0.47
-1.73
-3.97
-6.18
-8.36
-10.53
-12.78
-15.27
-18.16
-21.54
-25.24
-28.75
-31.28
-32.01
-30.39
-26.36
-20.40
-13.36
-6.16
0.43
5.93
10.14
13.03
14.63
15.05
14.46
13.08
11.28
9.41
7.83
6.85
6.60
7.05
7.98
9.04
9.78
9.85
9.05
7.41
5.12
2.41
-0.45
-3.33
-6.16
-8.91
-11.58
-14.26
-17.08
-20.24
-23.82
-27.66
-31.23
-33.69
-34.17
-31.99
-27.07
-19.84
-11.23
-2.35
5.78
12.40
17.08
19.69
20.40
19.60
17.83
15.65
13.56
11.93
10.92
10.60
10.88
11.60
12.52
13.36
13.80
13.56
12.49
10.65
8.23
5.56
2.90
0.43
-1.80
-3.83
-5.77
-7.75
-10.06
-13.01
-16.82
-21.47
-26.47
-30.95
-33.81
-34.11
-31.42
-25.98
-18.54
-10.14
-1.78
5.79
12.11
16.89
20.04
21.56
21.66
20.72
19.26
17.83
16.86
16.54
16.85
17.54
18.35
19.07
19.54
19.73
19.57
18.99
17.86
16.10
13.67
10.68
7.36
4.00
0.83
-2.01
-4.58
-7.08
-9.83
-13.15
-17.26
-22.14
-27.46
-32.58
-36.62
-38.62
-37.82
-33.89
-27.09
-18.24
-8.49
0.97
9.26
15.86
20.62
23.65
25.17
25.40
24.65
23.33
21.90
20.79
20.29
20.48
21.24
22.28
23.27
23.94
24.09
23.70
22.84
21.66
20.23
18.49
16.28
13.42
9.86
5.82
1.69
-2.04
-5.04
-7.27
-8.97
-10.57
-12.55
-15.32
-19.15
-24.06
-29.74
-35.44
-40.12
-42.61
-42.06
-38.17
-31.37
-22.64
-13.19
-4.06
4.10
11.00
16.59
20.86
23.80
25.44
25.92
25.57
24.82
24.15
23.86
24.09
24.79
25.76
26.79
27.71
28.35
28.58
28.24
27.21
25.50
23.27
20.77
18.23
15.79
13.39
10.86
8.06
4.97
1.75
-1.34
-4.05
-6.30
-8.16
-9.90
-11.84
-14.33
-17.64
-21.89
-26.94
-32.34
-37.26
-40.69
-41.61
-39.41
-33.94
-25.77
-15.95
-5.75
3.67
11.51
17.39
21.32
23.49
24.22
23.89
22.96
21.90
21.16
21.08
21.73
22.92
24.27
25.40
26.02
26.09
25.72
25.11
24.41
23.64
22.72
21.50
19.87
17.83
15.52
13.15
10.90
8.82
6.83
4.74
2.38
-0.25
-3.06
-5.84
-8.40
-10.69
-12.83
-15.10
-17.80
-21.16
-25.24
-29.84
-34.49
-38.41
-40.72
-40.58
-37.53
-31.68
-23.69
-14.64
-5.71
2.19
8.59
13.43
16.92
19.36
20.96
21.85
22.13
21.98
21.67
21.49
21.73
22.53
23.87
25.56
27.31
28.81
29.82
30.23
30.03
29.33
28.20
26.72
24.86
22.61
20.03
17.26
14.52
11.97
9.68
7.51
5.26
2.76
-0.02
-3.00
-5.96
-8.77
-11.43
-14.12
-17.14
-20.76
-25.11
-29.98
-34.87
-38.96
-41.31
-41.16
-38.10
-32.32
-24.51
-15.70
-6.92
1.03
7.71
13.00
16.91
19.47
20.73
20.78
19.86
18.43
17.01
16.03
15.71
16.04
16.80
17.73
18.62
19.25
19.51
19.25
18.41
16.98
15.07
12.90
10.71
8.65
6.75
4.91
3.02
0.98
-1.16
-3.27
-5.20
-6.84
-8.25
-9.61
-11.19
-13.28
-16.09
-19.68
-23.89
-28.24
-32.02
-34.36
-34.49
-32.00
-26.97
-20.06
-12.19
-4.40
2.50
7.97
11.79
13.96
14.64
14.12
12.77
11.08
9.49
8.36
7.93
8.27
9.29
10.85
12.67
14.46
15.88
16.67
16.75
16.20
15.26
14.14
12.93
11.55
9.84
7.63
4.96
2.02
-0.92
-3.63
-6.02
-8.15
-10.19
-12.30
-14.61
-17.13
-19.89
-22.93
-26.28
-29.87
-33.44
-36.46
-38.13
-37.70
-34.66
-29.10
-21.68
-13.49
-5.65
1.03
6.24
10.10
12.87
14.75
15.78
15.92
15.26
14.09
12.85
11.98
11.69
11.96
12.54
13.16
13.66
14.04
14.40
14.78
15.04
14.94
14.23
12.86
10.97
8.84
6.76
4.78
2.85
0.78
-1.50
-3.94
-6.34
-8.55
-10.56
-12.52
-14.68
-17.28
-20.46
-24.24
-28.45
-32.74
-36.52
-39.04
-39.52
-37.44
-32.70
-25.75
-17.44
-8.78
-0.72
6.08
11.26
14.68
16.43
16.73
15.98
14.69
13.39
12.45
12.08
12.27
12.88
13.70
14.55
15.28
15.81
16.09
16.08
15.73
14.99
13.80
12.12
10.05
7.77
5.54
3.58
1.97
0.60
-0.72
-2.19
-3.89
-5.78
-7.76
-9.74
-11.70
-13.70
-15.82
-18.17
-20.86
-23.87
-27.07
-30.08
-32.30
-33.00
-31.59
-27.81
-21.93
-14.69
-7.08
-0.04
5.82
10.23
13.28
15.19
16.18
16.38
15.89
14.85
13.50
12.16
11.15
10.68
10.77
11.28
11.98
12.65
13.13
13.35
13.27
12.83
12.00
10.70
8.89
6.60
3.96
1.13
-1.67
-4.28
-6.64
-8.71
-10.55
-12.17
-13.62
-14.95
-16.27
-17.81
-19.85
-22.52
-25.72
-28.95
-31.46
-32.44
-31.29
-27.89
-22.60
-16.10
-9.16
-2.47
3.53
8.55
12.47
15.18
16.58
16.72
15.75
14.05
12.16
10.59
9.69
9.54
9.96
10.60
11.16
11.45
11.41
11.09
10.60
10.00
9.32
8.48
7.36
5.88
3.91
1.47
-1.36
-4.38
-7.34
-9.96
-12.08
-13.68
-14.95
-16.27
-18.08
-20.67
-23.99
-27.53
-30.44
-31.78
-30.89
-27.61
-22.38
-15.95
-9.20
-2.85
2.59
6.81
9.66
11.07
11.14
10.13
8.46
6.63
5.08
4.12
3.87
4.27
5.14
6.29
7.49
8.59
9.46
10.04
10.23
9.97
9.16
7.75
5.74
3.26
0.53
-2.20
-4.72
-6.94
-8.91
-10.79
-12.74
-14.87
-17.26
-19.98
-23.05
-26.45
-29.91
-32.90
-34.63
-34.35
-31.61
-26.52
-19.71
-12.13
-4.73
1.85
7.32
11.67
14.93
17.11
18.15
18.10
17.15
15.72
14.29
13.27
12.86
13.01
13.50
14.02
14.30
14.19
13.63
12.65
11.35
9.82
8.13
6.36
4.52
2.62
0.66
-1.34
-3.35
-5.31
-7.21
-9.10
-11.05
-13.23
-15.78
-18.79
-22.23
-25.86
-29.27
-31.89
-33.10
-32.42
-29.57
-24.67
-18.22
-10.96
-3.77
2.62
7.74
11.40
13.61
14.53
14.32
13.26
11.66
9.91
8.41
7.51
7.39
8.02
9.20
10.61
11.90
12.73
12.83
12.05
10.40
8.06
5.32
2.54
0.01
-2.09
-3.71
-4.98
-6.08
-7.25
-8.68
-10.55
-12.97
-15.99
-19.50
-23.16
-26.41
-28.48
-28.62
-26.39
-21.77
-15.27
-7.77
-0.26
6.44
11.82
15.70
18.11
19.22
19.20
18.29
16.77
15.05
13.59
12.73
12.62
13.08
13.72
14.11
14.00
13.36
12.38
11.24
10.03
8.64
6.92
4.73
2.14
-0.65
-3.35
-5.76
-7.76
-9.39
-10.81
-12.19
-13.82
-15.96
-18.80
-22.33
-26.28
-29.99
-32.65
-33.42
-31.73
-27.49
-21.11
-13.44
-5.53
1.69
7.58
11.89
14.69
16.24
16.84
16.76
16.25
15.57
14.98
14.74
15.00
15.71
16.66
17.52
18.01
18.00
17.57
16.93
16.24
15.49
14.46
12.87
10.57
7.64
4.37
1.17
-1.72
-4.23
-6.48
-8.71
-11.08
-13.74
-16.80
-20.33
-24.28
-28.28
-31.65
-33.48
-32.93
-29.63
-23.85
-16.40
-8.39
-0.78
5.76
10.96
14.74
17.10
18.03
17.60
16.13
14.13
12.25
11.06
10.84
11.52
12.78
14.18
15.33
16.03
16.22
15.97
15.37
14.55
13.56
12.38
10.98
9.24
7.12
4.67
2.06
-0.41
-2.52
-4.20
-5.62
-7.14
-9.18
-12.05
-15.79
-20.09
-24.31
-27.60
-29.12
-28.24
-24.75
-18.94
-11.52
-3.46
4.29
11.01
16.30
20.08
22.45
23.55
23.52
22.52
20.83
18.86
17.15
16.20
16.29
17.36
19.00
20.63
21.72
21.99
21.46
20.38
19.05
17.70
16.32
14.81
12.97
10.72
8.14
5.49
3.12
1.27
0.02
-0.86
-1.75
-3.08
-5.19
-8.20
-12.05
-16.44
-20.93
-24.86
-27.45
-27.94
-25.81
-21.03
-14.13
-6.06
2.04
9.15
14.55
17.91
19.18
18.62
16.62
13.76
10.63
7.87
6.03
5.47
6.27
8.19
10.72
13.23
15.18
16.27
16.48
16.00
15.05
13.76
12.10
10.00
7.42
4.52
1.56
-1.25
-3.79
-6.09
-8.29
-10.51
-12.86
-15.38
-18.05
-20.79
-23.32
-25.15
-25.70
-24.41
-21.01
-15.65
-8.92
-1.66
5.28
11.26
15.88
18.98
20.52
20.61
19.52
17.68
15.69
14.17
13.59
14.10
15.48
17.24
18.82
19.78
19.88
19.14
17.70
15.67
13.10
9.98
6.30
2.20
-2.08
-6.15
-9.64
-12.30
-14.11
-15.26
-16.11
-17.13
-18.73
-21.17
-24.38
-27.92
-30.99
-32.69
-32.24
-29.30
-24.05
-17.18
-9.57
-2.16
4.36
9.56
13.21
15.28
15.88
15.26
13.79
11.94
10.18
8.90
8.28
8.33
8.85
9.55
10.19
10.64
10.91
11.08
11.17
11.07
10.53
9.29
7.22
4.40
1.13
-2.13
-5.03
-7.34
-9.08
-10.52
-12.04
-14.05
-16.83
-20.34
-24.20
-27.69
-29.94
-30.18
-27.94
-23.28
-16.68
-9.00
-1.19
5.89
11.67
15.87
18.48
19.73
19.87
19.18
17.92
16.35
14.80
13.52
12.73
12.41
12.33
12.12
11.42
10.08
8.19
6.06
3.99
2.21
0.71
-0.64
-1.98
-3.38
-4.77
-6.02
-7.07
-8.00
-9.04
-10.51
-12.74
-15.89
-19.81
-23.99
-27.59
-29.65
-29.39
-26.49
-21.22
-14.36
-6.96
0.06
6.08
10.86
14.39
16.77
18.06
18.30
17.60
16.20
14.45
12.73
11.37
10.54
10.22
10.32
10.64
10.97
11.13
10.98
10.33
9.12
7.26
4.77
1.76
-1.52
-4.75
-7.56
-9.71
-11.17
-12.17
-13.12
-14.51
-16.71
-19.83
-23.68
-27.76
-31.33
-33.55
-33.68
-31.31
-26.45
-19.62
-11.69
-3.68
3.52
9.33
13.50
16.04
17.10
16.95
15.95
14.51
13.04
11.91
11.25
11.06
11.17
11.40
11.61
11.72
11.70
11.49
11.03
10.27
9.11
7.51
5.46
3.05
0.46
-2.06
-4.28
-6.09
-7.57
-9.00
-10.73
-13.10
-16.25
-20.10
-24.27
-28.15
-31.01
-32.16
-31.11
-27.77
-22.45
-15.83
-8.75
-1.98
3.93
8.67
12.16
14.40
15.49
15.55
14.83
13.70
12.61
11.95
11.91
12.43
13.25
13.99
14.37
14.31
13.87
13.23
12.54
11.77
10.78
9.36
7.38
4.87
2.00
-0.95
-3.71
-6.13
-8.23
-10.16
-12.19
-14.57
-17.51
-21.01
-24.84
-28.55
-31.44
-32.76
-31.89
-28.56
-23.02
-15.94
-8.23
-0.82
5.67
10.88
14.74
17.29
18.60
18.80
18.13
16.97
15.77
14.88
14.49
14.58
14.95
15.37
15.64
15.68
15.44
14.92
14.13
13.10
11.86
10.38
8.62
6.53
4.11
1.49
-1.04
-3.18
-4.68
-5.52
-5.99
-6.55
-7.73
-9.92
-13.25
-17.51
-22.20
-26.48
-29.46
-30.31
-28.52
-24.10
-17.60
-9.93
-2.11
5.04
11.03
15.70
19.01
20.95
21.49
20.71
18.85
16.44
14.13
12.52
11.93
12.34
13.43
14.71
15.74
16.22
16.09
15.44
14.39
13.02
11.36
9.37
7.05
4.53
1.96
-0.48
-2.72
-4.75
-6.61
-8.34
-9.94
-11.44
-13.02
-14.94
-17.45
-20.61
-24.13
-27.36
-29.45
-29.70
-27.74
-23.65
-17.92
-11.21
-4.27
2.24
7.82
12.16
15.06
16.53
16.67
15.68
13.90
11.76
9.76
8.35
7.81
8.18
9.21
10.52
11.68
12.35
12.41
11.91
10.99
9.77
8.30
6.54
4.44
2.01
-0.57
-3.05
-5.15
-6.74
-7.86
-8.76
-9.76
-11.19
-13.28
-16.04
-19.28
-22.52
-25.11
-26.32
-25.57
-22.64
-17.78
-11.61
-4.92
1.51
7.11
11.53
14.60
16.25
16.47
15.44
13.53
11.29
9.31
8.08
7.74
8.18
9.05
9.95
10.65
11.02
11.08
10.89
10.41
9.59
8.29
6.44
4.08
1.31
-1.66
-4.56
-7.16
-9.32
-11.07
-12.61
-14.32
-16.61
-19.75
-23.70
-28.06
-32.07
-34.84
-35.56
-33.75
-29.38
-22.90
-15.09
-6.93
0.64
6.93
11.51
14.26
15.33
15.03
13.74
11.94
10.10
8.64
7.92
8.08
8.99
10.33
11.68
12.65
13.04
12.83
12.12
10.97
9.41
7.42
5.01
2.32
-0.46
-3.16
-5.66
-7.96
-10.12
-12.23
-14.36
-16.65
-19.33
-22.62
-26.58
-30.89
-34.82
-37.42
-37.82
-35.57
-30.76
-24.04
-16.32
-8.49
-1.25
4.91
9.73
13.05
14.85
15.22
14.45
12.97
11.27
9.85
9.07
9.13
9.97
11.29
12.64
13.57
13.77
13.22
12.10
10.68
9.17
7.63
6.00
4.17
2.13
-0.08
-2.31
-4.50
-6.61
-8.69
-10.89
-13.38
-16.37
-19.99
-24.20
-28.60
-32.41
-34.67
-34.53
-31.60
-26.12
-18.90
-11.01
-3.43
3.17
8.47
12.41
14.93
16.06
15.84
14.55
12.66
10.84
9.66
9.47
10.20
11.45
12.69
13.52
13.76
13.54
13.05
12.45
11.69
10.60
9.00
6.88
4.41
1.91
-0.35
-2.30
-4.08
-5.93
-8.12
-10.83
-14.11
-17.89
-22.06
-26.27
-30.01
-32.53
-33.09
-31.14
-26.60
-19.95
-12.00
-3.79
3.79
10.13
14.93
18.19
20.01
20.61
20.18
19.00
17.35
15.56
14.03
13.09
12.89
13.37
14.22
15.00
15.33
15.08
14.34
13.37
12.40
11.50
10.55
9.31
7.64
5.58
3.30
1.08
-0.94
-2.85
-4.89
-7.43
-10.74
-14.85
-19.54
-24.24
-28.20
-30.60
-30.75
-28.30
-23.35
-16.49
-8.63
-0.77
6.30
12.10
16.48
19.47
21.14
21.57
20.93
19.51
17.74
16.12
15.07
14.72
14.96
15.51
16.03
16.34
16.38
16.21
15.87
15.33
14.45
13.06
11.03
8.36
5.26
2.08
-0.81
-3.13
-4.93
-6.50
-8.32
-10.84
-14.26
-18.42
-22.82
-26.69
-29.19
-29.63
-27.63
-23.23
-16.87
-9.27
-1.34
6.06
12.23
16.72
19.37
20.26
19.72
18.20
16.21
14.21
12.56
11.54
11.23
11.58
12.37
13.28
13.94
14.11
13.71
12.79
11.51
9.96
8.14
5.99
3.51
0.78
-1.96
-4.46
-6.56
-8.31
-9.99
-11.96
-14.56
-17.92
-21.89
-26.01
-29.54
-31.69
-31.71
-29.20
-24.15
-17.06
-8.77
-0.33
7.29
13.37
17.59
19.95
20.64
19.97
18.26
15.93
13.46
11.36
10.08
9.91
10.78
12.36
14.12
15.53
16.25
16.13
15.28
13.89
12.10
9.98
7.54
4.79
1.83
-1.13
-3.82
-6.06
-7.85
-9.41
-11.16
-13.57
-16.98
-21.40
-26.43
-31.33
-35.12
-36.87
-35.90
-32.02
-25.56
-17.35
-8.45
0.08
7.46
13.21
17.23
19.61
20.55
20.29
19.11
17.39
15.57
14.09
13.25
13.16
13.63
14.38
15.08
15.55
15.73
15.68
15.42
14.84
13.70
11.78
9.04
5.70
2.22
-0.88
-3.30
-5.04
-6.38
-7.75
-9.52
-11.93
-15.07
-18.88
-23.13
-27.40
-30.97
-32.93
-32.45
-29.09
-22.99
-14.93
-6.08
2.34
9.48
14.88
18.54
20.66
21.53
21.42
20.57
19.22
17.68
16.30
15.40
15.19
15.66
16.57
17.54
18.17
18.21
17.66
16.70
15.55
14.37
13.08
11.49
9.38
6.71
3.71
0.76
-1.77
-3.77
-5.38
-7.01
-9.09
-11.94
-15.64
-19.94
-24.31
-28.03
-30.31
-30.44
-28.03
-23.16
-16.32
-8.39
-0.32
7.02
13.08
17.54
20.38
21.67
21.61
20.47
18.65
16.57
14.74
13.52
13.11
13.43
14.19
14.98
15.40
15.27
14.62
13.66
12.62
11.55
10.31
8.67
6.47
3.75
0.79
-2.02
-4.35
-6.12
-7.50
-8.84
-10.49
-12.72
-15.64
-19.14
-22.97
-26.62
-29.43
-30.61
-29.50
-25.79
-19.66
-11.78
-3.21
4.93
11.66
16.38
18.92
19.50
18.58
16.70
14.39
12.03
9.90
8.17
6.95
6.33
6.29
6.73
7.43
8.11
8.56
8.65
8.36
7.70
6.65
5.20
3.33
1.17
-1.08
-3.11
-4.73
-5.89
-6.81
-7.86
-9.49
-12.02
-15.54
-19.75
-24.02
-27.42
-29.03
-28.16
-24.52
-18.46
-10.82
-2.68
4.88
11.08
15.55
18.19
19.16
18.68
17.05
14.64
11.95
9.48
7.66
6.72
6.58
6.95
7.47
7.84
7.92
7.70
7.27
6.67
5.89
4.79
3.27
1.23
-1.26
-3.95
-6.49
-8.50
-9.83
-10.58
-11.24
-12.43
-14.71
-18.28
-22.80
-27.51
-31.32
-33.25
-32.67
-29.47
-23.97
-16.90
-9.06
-1.26
5.74
11.35
15.13
16.89
16.76
15.23
12.94
10.61
8.78
7.75
7.59
8.14
9.18
10.42
11.59
12.48
12.89
12.75
11.99
10.63
8.75
6.48
3.96
1.39
-1.13
-3.52
-5.80
-8.04
-10.27
-12.56
-15.01
-17.79
-21.07
-24.88
-28.99
-32.81
-35.50
-36.17
-34.25
-29.61
-22.74
-14.53
-6.10
1.58
7.84
12.50
15.64
17.50
18.27
18.06
16.98
15.28
13.38
11.78
10.81
10.54
10.74
11.08
11.32
11.43
11.50
11.59
11.56
11.08
9.78
7.45
4.20
0.44
-3.27
-6.42
-8.71
-10.11
-10.93
-11.67
-12.90
-15.11
-18.45
-22.77
-27.47
-31.72
-34.56
-35.17
-33.06
-28.21
-21.06
-12.46
-3.47
4.91
11.90
17.02
20.17
21.55
21.51
20.51
18.99
17.35
15.90
14.83
14.21
13.96
13.94
13.93
13.72
13.17
12.27
11.09
9.73
8.28
6.77
5.15
3.38
1.46
-0.57
-2.61
-4.60
-6.43
-8.07
-9.57
-11.12
-13.02
-15.55
-18.88
-22.78
-26.61
-29.43
-30.34
-28.74
-24.62
-18.46
-11.10
-3.44
3.80
10.09
15.12
18.70
20.76
21.33
20.60
18.91
16.78
14.73
13.24
12.59
12.76
13.53
14.47
15.16
15.33
14.88
13.92
12.65
11.27
9.87
8.42
6.80
4.91
2.75
0.46
-1.70
-3.49
-4.77
-5.70
-6.61
-7.97
-10.16
-13.27
-17.07
-21.00
-24.30
-26.21
-26.14
-23.78
-19.24
-12.99
-5.82
1.33
7.60
12.36
15.34
16.61
16.49
15.39
13.71
11.84
10.11
8.79
8.09
8.16
8.95
10.30
11.91
13.42
14.52
14.98
14.68
13.60
11.81
9.50
6.88
4.16
1.53
-0.90
-3.06
-4.92
-6.50
-7.95
-9.46
-11.32
-13.80
-16.96
-20.55
-23.99
-26.45
-27.13
-25.51
-21.55
-15.67
-8.66
-1.40
5.28
10.79
14.77
17.10
17.82
17.20
15.61
13.56
11.60
10.12
9.34
9.27
9.69
10.33
10.90
11.16
11.02
10.46
9.56
8.42
7.09
5.58
3.88
2.00
0.05
-1.84
-3.58
-5.14
-6.68
-8.46
-10.76
-13.75
-17.40
-21.46
-25.41
-28.55
-30.18
-29.66
-26.69
-21.47
-14.62
-7.05
0.22
6.40
11.01
13.94
15.34
15.47
14.68
13.28
11.63
10.04
8.79
8.06
7.91
8.24
8.90
9.71
10.47
11.04
11.31
11.23
10.82
10.04
8.90
7.31
5.23
2.70
-0.10
-2.93
-5.55
-7.85
-9.95
-12.15
-14.80
-18.08
-21.95
-26.00
-29.55
-31.79
-31.99
-29.71
-25.01
-18.43
-10.88
-3.39
3.18
8.31
11.84
13.91
14.73
14.57
13.64
12.24
10.73
9.48
8.77
8.75
9.31
10.19
11.07
11.71
11.96
11.78
11.18
10.16
8.68
6.74
4.37
1.68
-1.13
-3.85
-6.30
-8.34
-9.97
-11.35
-12.79
-14.66
-17.28
-20.70
-24.56
-28.17
-30.61
-31.03
-28.96
-24.45
-18.07
-10.69
-3.30
3.32
8.68
12.63
15.23
16.66
17.15
16.88
16.06
14.98
13.94
13.22
12.96
13.10
13.45
13.73
13.74
13.43
12.87
12.20
11.44
10.54
9.32
7.66
5.51
3.02
0.45
-1.89
-3.81
-5.36
-6.78
-8.49
-10.85
-14.09
-18.12
-22.55
-26.74
-29.88
-31.19
-30.10
-26.43
-20.46
-12.99
-5.07
2.21
8.04
12.07
14.39
15.42
15.54
15.10
14.30
13.26
12.17
11.27
10.85
11.05
11.81
12.88
13.90
14.52
14.56
14.03
13.08
11.88
10.45
8.70
6.53
3.92
1.03
-1.81
-4.26
-6.21
-7.83
-9.52
-11.72
-14.64
-18.15
-21.79
-24.94
-26.97
-27.45
-26.14
-23.02
-18.28
-12.34
-5.76
0.77
6.60
11.20
14.25
15.70
15.70
14.57
12.77
10.78
9.06
7.93
7.54
7.82
8.61
9.64
10.74
11.71
12.39
12.64
12.31
11.33
9.74
7.69
5.41
3.14
1.07
-0.68
-2.15
-3.44
-4.76
-6.38
-8.51
-11.29
-14.59
-18.06
-21.04
-22.81
-22.71
-20.39
-15.98
-10.02
-3.36
3.11
8.64
12.73
15.17
15.98
15.39
13.79
11.65
9.43
7.54
6.19
5.45
5.21
5.32
5.63
6.04
6.40
6.57
6.38
5.70
4.54
3.02
1.37
-0.19
-1.52
-2.60
-3.55
-4.54
-5.73
-7.38
-9.65
-12.65
-16.28
-20.08
-23.27
-24.94
-24.34
-21.18
-15.79
-9.03
-1.98
4.34
9.24
12.48
14.13
14.49
13.88
12.59
10.91
9.09
7.41
6.14
5.46
5.42
5.90
6.60
7.18
7.37
7.00
6.06
4.64
2.85
0.78
-1.49
-3.86
-6.20
-8.36
-10.27
-11.97
-13.67
-15.62
-18.08
-21.03
-24.26
-27.22
-29.28
-29.76
-28.25
-24.61
-19.12
-12.33
-5.05
1.90
7.85
12.35
15.25
16.67
16.89
16.22
14.94
13.31
11.62
10.14
9.16
8.84
9.17
9.93
10.77
11.29
11.22
10.41
8.91
6.83
4.37
1.70
-1.01
-3.57
-5.85
-7.80
-9.46
-11.02
-12.80
-15.10
-18.19
-22.02
-26.19
-29.98
-32.41
-32.62
-30.15
-25.12
-18.18
-10.36
-2.72
3.94
9.15
12.86
15.18
16.31
16.49
15.91
14.86
13.66
12.63
11.99
11.80
11.93
12.20
12.40
12.43
12.27
11.87
11.20
10.16
8.67
6.72
4.42
1.98
-0.38
-2.45
-4.21
-5.75
-7.32
-9.22
-11.76
-15.06
-19.04
-23.34
-27.29
-30.05
-30.81
-28.99
-24.51
-17.82
-9.87
-1.79
5.37
10.91
14.58
16.52
17.14
16.90
16.25
15.48
14.79
14.29
13.97
13.82
13.80
13.77
13.61
13.20
12.48
11.47
10.34
9.22
8.17
7.04
5.61
3.69
1.24
-1.49
-4.12
-6.26
-7.78
-8.80
-9.72
-11.05
-13.19
-16.30
-20.16
-24.19
-27.56
-29.35
-28.88
-25.89
-20.66
-13.91
-6.58
0.45
6.52
11.30
14.70
16.79
17.71
17.61
16.74
15.43
14.10
13.15
12.84
13.23
14.14
15.28
16.31
16.96
17.09
16.68
15.76
14.41
12.68
10.67
8.44
6.05
3.57
1.03
-1.55
-4.07
-6.46
-8.65
-10.74
-12.98
-15.66
-18.91
-22.50
-25.77
-27.84
-27.93
-25.64
-21.13
-15.07
-8.34
-1.78
4.05
8.86
12.59
15.22
16.74
17.17
16.58
15.25
13.58
11.99
10.85
10.30
10.29
10.66
11.19
11.73
12.18
12.43
12.34
11.73
10.51
8.65
6.30
3.73
1.23
-0.95
-2.70
-3.99
-4.96
-5.83
-6.92
-8.57
-11.02
-14.27
-18.02
-21.62
-24.25
-25.16
-23.88
-20.39
-15.11
-8.75
-2.06
4.28
9.75
14.01
16.86
18.24
18.28
17.26
15.62
13.86
12.41
11.56
11.41
11.86
12.68
13.59
14.30
14.56
14.23
13.25
11.69
9.66
7.38
5.03
2.79
0.76
-1.04
-2.63
-4.01
-5.19
-6.23
-7.29
-8.67
-10.67
-13.41
-16.64
-19.70
-21.69
-21.77
-19.54
-15.16
-9.36
-3.11
2.68
7.34
10.60
12.46
13.08
12.63
11.35
9.53
7.55
5.80
4.62
4.15
4.31
4.84
5.50
6.11
6.62
7.03
7.29
7.28
6.84
5.92
4.58
3.06
1.56
0.25
-0.92
-2.09
-3.46
-5.21
-7.45
-10.26
-13.57
-17.14
-20.47
-22.84
-23.50
-21.96
-18.13
-12.47
-5.84
0.79
6.56
10.91
13.56
14.51
13.92
12.08
9.42
6.47
3.73
1.64
0.41
0.05
0.42
1.25
2.27
3.21
3.82
3.90
3.36
2.25
0.73
-1.00
-2.73
-4.38
-5.95
-7.47
-9.02
-10.67
-12.49
-14.64
-17.24
-20.31
-23.56
-26.41
-28.03
-27.66
-24.88
-19.87
-13.33
-6.30
0.23
5.59
9.48
11.97
13.25
13.56
13.12
12.16
10.95
9.78
8.86
8.33
8.18
8.30
8.51
8.64
8.55
8.11
7.26
5.99
4.37
2.52
0.58
-1.36
-3.22
-5.03
-6.83
-8.73
-10.88
-13.45
-16.56
-20.28
-24.38
-28.41
-31.63
-33.19
-32.37
-28.84
-22.84
-15.09
-6.73
1.11
7.54
12.10
14.77
15.82
15.62
14.49
12.73
10.66
8.62
7.01
6.16
6.19
6.97
8.15
9.26
9.91
9.86
9.02
7.49
5.45
3.13
0.74
-1.50
-3.48
-5.19
-6.74
-8.39
-10.41
-13.05
-16.40
-20.32
-24.40
-27.98
-30.27
-30.57
-28.45
-23.97
-17.59
-10.12
-2.48
4.49
10.16
14.23
16.63
17.55
17.29
16.20
14.62
12.88
11.27
10.01
9.24
8.98
9.10
9.39
9.62
9.64
9.40
8.93
8.22
7.26
5.97
4.34
2.47
0.61
-1.07
-2.50
-3.81
-5.32
-7.35
-10.13
-13.65
-17.62
-21.42
-24.28
-25.41
-24.23
-20.57
-14.81
-7.73
-0.38
6.34
11.80
15.78
18.32
19.58
19.73
18.96
17.50
15.71
13.99
12.66
11.94
11.80
12.03
12.32
12.39
12.07
11.38
10.44
9.37
8.25
7.04
5.67
4.09
2.34
0.56
-1.08
-2.46
-3.60
-4.68
-6.00
-7.88
-10.50
-13.83
-17.45
-20.62
-22.41
-22.03
-19.09
-13.83
-7.09
0.01
6.33
11.11
14.09
15.40
15.44
14.64
13.40
12.03
10.75
9.79
9.33
9.47
10.22
11.39
12.71
13.82
14.44
14.38
13.66
12.40
10.77
8.94
6.97
4.87
2.63
0.28
-2.14
-4.55
-6.94
-9.37
-11.97
-14.79
-17.73
-20.42
-22.24
-22.52
-20.76
-16.86
-11.21
-4.59
2.05
7.82
12.13
14.75
15.74
15.41
14.15
12.36
10.43
8.66
7.28
6.42
6.13
6.35
6.96
7.77
8.56
9.11
9.22
8.75
7.69
6.11
4.22
2.23
0.35
-1.33
-2.87
-4.42
-6.25
-8.56
-11.47
-14.91
-18.58
-21.99
-24.50
-25.50
-24.49
-21.28
-16.08
-9.51
-2.45
4.15
9.56
13.36
15.55
16.35
16.06
14.96
13.28
11.27
9.27
7.69
6.86
6.95
7.80
8.99
10.00
10.35
9.77
8.24
5.89
3.03
-0.04
-2.97
-5.50
-7.45
-8.83
-9.86
-10.95
-12.56
-15.00
-18.32
-22.11
-25.65
-28.04
-28.46
-26.48
-22.14
-15.96
-8.75
-1.40
5.31
10.83
14.90
17.40
18.44
18.21
17.00
15.17
13.11
11.23
9.83
9.13
9.14
9.74
10.68
11.61
12.23
12.26
11.57
10.18
8.22
5.91
3.43
0.94
-1.53
-3.99
-6.45
-8.92
-11.39
-13.87
-16.48
-19.34
-22.47
-25.59
-28.10
-29.24
-28.32
-25.08
-19.77
-13.12
-6.03
0.67
6.42
10.97
14.28
16.42
17.49
17.60
16.95
15.80
14.54
13.53
13.08
13.27
13.95
14.77
15.35
15.34
14.63
13.30
11.58
9.67
7.67
5.55
3.25
0.71
-1.95
-4.55
-6.87
-8.78
-10.37
-11.94
-13.91
-16.60
-20.00
-23.61
-26.54
-27.70
-26.26
-21.96
-15.24
-7.17
1.00
8.19
13.79
17.63
19.94
20.97
21.00
20.25
18.92
17.30
15.69
14.34
13.39
12.82
12.52
12.37
12.28
12.18
11.98
11.57
10.81
9.62
8.02
6.15
4.19
2.31
0.52
-1.22
-3.01
-4.95
-7.08
-9.41
-12.04
-15.02
-18.31
-21.58
-24.24
-25.47
-24.58
-21.30
-15.91
-9.21
-2.23
4.09
9.15
12.71
14.79
15.48
14.92
13.35
11.10
8.69
6.66
5.41
5.13
5.70
6.79
7.96
8.85
9.19
8.90
7.97
6.48
4.57
2.45
0.31
-1.62
-3.21
-4.45
-5.46
-6.49
-7.87
-9.88
-12.64
-15.98
-19.38
-22.05
-23.10
-21.85
-18.10
-12.25
-5.23
1.82
7.85
12.22
14.76
15.70
15.41
14.23
12.41
10.15
7.68
5.31
3.42
2.29
2.03
2.50
3.34
4.12
4.45
4.15
3.18
1.73
-0.00
-1.80
-3.51
-5.10
-6.62
-8.19
-9.98
-12.14
-14.82
-18.03
-21.57
-24.97
-27.52
-28.45
-27.17
-23.50
-17.78
-10.77
-3.49
3.10
8.32
11.85
13.71
14.15
13.48
12.09
10.34
8.58
7.15
6.26
5.98
6.28
7.01
7.89
8.64
8.94
8.51
7.19
5.03
2.30
-0.61
-3.31
-5.59
-7.43
-9.02
-10.58
-12.34
-14.46
-17.06
-20.13
-23.48
-26.67
-28.95
-29.54
-27.88
-23.80
-17.74
-10.51
-3.09
3.55
8.75
12.15
13.71
13.67
12.49
10.80
9.17
8.11
7.84
8.31
9.30
10.48
11.55
12.31
12.60
12.36
11.55
10.18
8.34
6.17
3.88
1.69
-0.22
-1.84
-3.30
-4.82
-6.67
-9.01
-11.90
-15.21
-18.63
-21.66
-23.68
-24.05
-22.30
-18.31
-12.41
-5.39
1.72
7.91
12.54
15.36
16.58
16.58
15.79
14.49
12.90
11.17
9.55
8.32
7.74
7.91
8.72
9.88
10.99
11.70
11.83
11.32
10.22
8.65
6.71
4.51
2.16
-0.28
-2.71
-5.14
-7.62
-10.21
-12.99
-15.95
-18.95
-21.72
-23.86
-24.87
-24.35
-22.08
-18.15
-12.96
-7.14
-1.37
3.71
7.67
10.32
11.65
11.80
10.97
9.48
7.69
6.01
4.83
4.38
4.72
5.63
6.70
7.47
7.57
6.84
5.37
3.43
1.37
-0.54
-2.21
-3.65
-5.01
-6.46
-8.13
-10.13
-12.49
-15.21
-18.12
-20.87
-22.93
-23.72
-22.71
-19.69
-14.89
-8.91
-2.60
3.25
8.01
11.34
13.14
13.48
12.57
10.75
8.47
6.24
4.59
3.88
4.24
5.48
7.20
8.88
10.10
10.60
10.37
9.51
8.19
6.53
4.62
2.50
0.24
-2.12
-4.57
-7.22
-10.28
-13.86
-17.90
-21.96
-25.31
-27.12
-26.72
-23.88
-18.88
-12.45
-5.55
0.91
6.26
10.14
12.52
13.54
13.45
12.55
11.16
9.64
8.31
7.46
7.29
7.83
8.97
10.40
11.73
12.55
12.60
11.86
10.53
8.90
7.24
5.65
4.03
2.22
0.07
-2.49
-5.44
-8.76
-12.43
-16.32
-20.11
-23.18
-24.77
-24.24
-21.31
-16.28
-9.88
-3.07
3.35
8.84
13.18
16.33
18.32
19.22
19.11
18.20
16.79
15.24
13.89
12.99
12.68
12.88
13.38
13.91
14.11
13.75
12.77
11.21
9.26
7.16
5.04
2.98
0.94
-1.16
-3.41
-5.84
-8.45
-11.21
-14.06
-16.87
-19.38
-21.17
-21.70
-20.53
-17.42
-12.53
-6.39
0.20
6.45
11.72
15.61
17.98
18.90
18.57
17.31
15.51
13.59
11.88
10.63
9.95
9.83
10.16
10.77
11.38
11.67
11.34
10.24
8.45
6.23
3.98
1.98
0.32
-1.13
-2.59
-4.31
-6.43
-8.96
-11.84
-14.85
-17.75
-20.08
-21.31
-20.89
-18.49
-14.13
-8.23
-1.58
4.93
10.49
14.53
16.79
17.36
16.58
14.93
12.91
10.90
9.17
7.78
6.76
6.07
5.68
5.54
5.57
5.59
5.39
4.82
3.82
2.48
0.97
-0.54
-1.97
-3.37
-4.83
-6.46
-8.34
-10.52
-13.05
-15.88
-18.78
-21.29
-22.71
-22.32
-19.68
-14.86
-8.51
-1.63
4.77
10.03
13.93
16.57
18.19
18.92
18.77
17.75
16.02
13.92
11.90
10.33
9.38
8.99
8.92
8.88
8.69
8.24
7.47
6.36
4.94
3.33
1.70
0.25
-0.90
-1.77
-2.53
-3.41
-4.59
-6.12
-7.95
-9.94
-11.86
-13.40
-14.18
-13.83
-12.15
-9.14
-5.07
-0.33
4.69
9.83
14.99
20.08
24.80
28.65
31.11
31.88
31.09
29.32
27.30
25.64
24.61
24.08
23.70
23.09
21.99
20.30
17.98
15.00
11.29
6.76
1.42
-4.60
-10.98
-17.33
-23.21
-28.30
-32.48
-35.89
-38.86
-41.74
-44.70
-47.52
-49.59
-50.11
-48.37
-44.09
-37.52
-29.39
-20.72
-12.48
-5.39
0.15
4.12
6.74
8.30
9.10
9.38
9.25
8.85
8.31
7.81
7.53
7.58
7.91
8.38
8.81
9.13
9.35
9.54
9.68
9.62
9.15
8.02
6.19
3.83
1.28
-1.09
-3.06
-4.67
-6.20
-8.05
-10.58
-13.93
-17.81
-21.60
-24.40
-25.38
-24.02
-20.30
-14.72
-8.09
-1.30
4.89
10.00
13.81
16.32
17.62
17.88
17.33
16.23
14.85
13.50
12.44
11.86
11.80
12.15
12.66
13.03
13.01
12.46
11.37
9.85
8.08
6.18
4.27
2.41
0.64
-1.02
-2.55
-3.92
-5.10
-6.11
-7.07
-8.21
-9.84
-12.20
-15.30
-18.73
-21.73
-23.34
-22.73
-19.59
-14.23
-7.52
-0.63
5.45
10.09
13.12
14.72
15.18
14.78
13.72
12.19
10.50
8.97
7.90
7.45
7.59
8.15
8.90
9.67
10.38
10.95
11.34
11.41
11.06
10.13
8.59
6.48
3.98
1.35
-1.14
-3.30
-5.09
-6.65
-8.27
-10.25
-12.74
-15.62
-18.43
-20.50
-21.15
-19.92
-16.70
-11.81
-5.90
0.24
5.84
10.28
13.18
14.44
14.18
12.75
10.58
8.13
5.79
3.81
2.34
1.45
1.20
1.52
2.27
3.10
3.60
3.40
2.38
0.65
-1.44
-3.53
-5.38
-6.94
-8.36
-9.81
-11.42
-13.32
-15.54
-18.17
-21.25
-24.73
-28.33
-31.56
-33.78
-34.37
-33.00
-29.69
-24.87
-19.27
-13.72
-8.94
-5.42
-3.31
-2.47
-2.58
-3.21
-3.94
-4.35
-4.14
-3.03
-0.91
2.23
6.24
10.77
15.32
19.36
22.48
24.52
25.59
25.96
25.86
25.36
24.34
22.68
20.40
17.79
15.26
13.05
11.03
8.67
5.30
0.52
-5.48
-11.85
-17.45
-21.24
-22.71
-22.10
-20.18
-17.93
-16.09
-14.96
-14.39
-13.98
-13.36
-12.36
-11.09
-9.79
-8.75
-8.18
-8.14
-8.59
-9.34
-10.05
-10.29
-9.58
-7.62
-4.43
-0.39
3.92
7.87
11.11
13.56
15.40
16.80
17.75
18.09
17.45
15.56
12.33
7.89
2.58
-3.10
-8.60
-13.27
-16.46
-17.56
-16.17
-12.26
-6.31
0.71
7.65
13.45
17.44
19.50
20.01
19.52
18.54
17.37
16.08
14.69
13.26
11.90
10.76
9.86
9.09
8.28
7.26
5.99
4.59
3.18
1.90
0.76
-0.21
-1.07
-1.83
-2.50
-3.14
-3.91
-5.03
-6.66
-8.79
-11.11
-13.07
-13.94
-13.11
-10.26
-5.49
0.71
7.51
14.02
19.38
22.96
24.48
24.01
21.93
18.81
15.24
11.72
8.66
6.33
4.89
4.38
4.58
5.09
5.40
5.02
3.69
1.47
-1.36
-4.38
-7.22
-9.65
-11.60
-13.16
-14.51
-15.90
-17.60
-19.85
-22.69
-25.96
-29.28
-32.11
-33.93
-34.37
-33.28
-30.73
-26.95
-22.25
-16.98
-11.48
-6.15
-1.36
2.55
5.31
6.85
7.23
6.74
5.73
4.54
3.40
2.37
1.36
0.18
-1.25
-2.89
-4.49
-5.66
-6.09
-5.69
-4.63
-3.34
-2.29
-1.87
-2.16
-3.00
-4.13
-5.33
-6.50
-7.65
-8.73
-9.54
-9.68
-8.75
-6.50
-3.01
1.29
5.75
9.75
12.84
14.87
15.84
15.84
14.90
13.01
10.24
6.80
3.16
-0.09
-2.34
-3.23
-2.80
-1.40
0.32
1.72
2.34
2.02
0.85
-0.94
-3.11
-5.53
-8.12
-10.85
-13.70
-16.61
-19.54
-22.44
-25.27
-27.89
-29.95
-30.97
-30.41
-27.89
-23.37
-17.26
-10.25
-3.17
3.31
8.73
12.86
15.64
17.08
17.27
16.38
14.71
12.70
10.75
9.19
8.15
7.60
7.35
7.21
7.02
6.67
6.09
5.24
4.12
2.76
1.22
-0.46
-2.28
-4.32
-6.66
-9.26
-11.87
-14.00
-15.04
-14.46
-12.02
-7.90
-2.61
3.12
8.65
13.48
17.36
20.20
22.07
23.07
23.38
23.18
22.72
22.20
21.80
21.60
21.54
21.42
21.02
20.17
18.83
17.16
15.41
13.84
12.56
11.55
10.61
9.52
8.15
6.46
4.54
2.51
0.50
-1.28
-2.57
-3.10
-2.58
-0.88
1.94
5.57
9.58
13.54
17.10
20.04
22.22
23.52
23.78
22.89
20.90
18.09
14.96
12.08
9.91
8.59
7.96
7.68
7.38
6.95
6.44
6.06
5.92
5.99
6.05
5.79
4.94
3.33
0.98
-1.96
-5.16
-8.16
-10.40
-11.49
-11.34
-10.33
-9.25
-9.10
-10.62
-14.09
-19.19
-25.17
-31.19
-36.55
-40.82
-43.79
-45.27
-45.17
-43.45
-40.30
-36.17
-31.67
-27.44
-23.90
-21.17
-19.04
-17.16
-15.25
-13.34
-11.72
-10.90
-11.35
-13.28
-16.57
-20.76
-25.25
-29.36
-32.47
-34.03
-33.66
-31.13
-26.55
-20.34
-13.13
-5.67
1.47
7.88
13.30
17.55
20.42
21.80
21.80
20.80
19.40
18.19
17.55
17.47
17.63
17.52
16.70
15.02
12.62
9.78
6.77
3.68
0.36
-3.42
-7.76
-12.65
-17.82
-22.91
-27.47
-31.00
-32.93
-32.69
-29.88
-24.46
-16.84
-7.87
1.36
9.80
16.63
21.36
23.83
24.15
22.72
20.17
17.24
14.62
12.72
11.56
10.84
10.10
9.05
7.65
6.09
4.63
3.41
2.36
1.29
0.07
-1.32
-2.72
-4.02
-5.32
-6.93
-9.29
-12.60
-16.67
-20.76
-23.81
-24.81
-23.16
-18.88
-12.65
-5.46
1.66
7.98
13.10
16.95
19.54
20.90
21.04
20.12
18.53
16.88
15.81
15.77
16.80
18.49
20.19
21.26
21.36
20.48
18.92
17.08
15.26
13.61
12.05
10.42
8.50
6.14
3.27
-0.12
-4.00
-8.20
-12.40
-16.05
-18.45
-18.90
-16.92
-12.49
-6.12
1.26
8.62
15.07
20.04
23.41
25.28
25.95
25.67
24.68
23.22
21.49
19.74
18.17
16.94
16.11
15.66
15.43
15.19
14.66
13.61
11.97
9.87
7.61
5.52
3.82
2.52
1.44
0.26
-1.38
-3.75
-6.98
-11.01
-15.50
-19.87
-23.33
-25.07
-24.54
-21.61
-16.69
-10.55
-4.15
1.71
6.50
10.03
12.34
13.57
13.92
13.55
12.73
11.73
10.89
10.49
10.64
11.27
12.13
12.95
13.54
13.78
13.64
13.11
12.15
10.71
8.80
6.50
3.99
1.46
-1.02
-3.53
-6.25
-9.42
-13.10
-17.07
-20.78
-23.51
-24.55
-23.43
-20.04
-14.75
-8.26
-1.45
4.88
10.11
13.94
16.34
17.46
17.58
16.97
15.95
14.80
13.77
13.03
12.73
12.89
13.46
14.22
14.89
15.18
14.78
13.61
11.67
9.16
6.29
3.27
0.26
-2.67
-5.46
-8.15
-10.85
-13.74
-17.03
-20.79
-24.77
-28.38
-30.71
-30.86
-28.23
-22.86
-15.35
-6.81
1.58
8.82
14.38
18.12
20.23
21.01
20.79
19.84
18.48
17.14
16.19
15.88
16.17
16.74
17.10
16.88
15.97
14.55
12.94
11.39
9.91
8.35
6.49
4.22
1.68
-0.90
-3.29
-5.38
-7.29
-9.26
-11.55
-14.39
-17.88
-21.93
-26.18
-30.05
-32.76
-33.53
-31.82
-27.54
-21.12
-13.45
-5.54
1.69
7.67
12.21
15.41
17.44
18.49
18.68
18.21
17.35
16.47
15.93
15.93
16.46
17.35
18.31
19.07
19.47
19.41
18.88
17.89
16.53
14.90
13.12
11.25
9.30
7.18
4.83
2.25
-0.43
-3.02
-5.36
-7.43
-9.34
-11.28
-13.40
-15.77
-18.36
-21.16
-24.22
-27.57
-31.04
-34.15
-36.14
-36.17
-33.69
-28.72
-21.89
-14.25
-6.84
-0.41
4.80
8.91
12.16
14.72
16.61
17.78
18.24
18.13
17.71
17.22
16.85
16.68
16.75
17.09
17.75
18.71
19.79
20.70
21.06
20.65
19.42
17.56
15.36
13.10
10.96
8.99
7.10
5.21
3.18
0.94
-1.51
-4.07
-6.58
-8.89
-10.91
-12.64
-14.23
-15.86
-17.75
-20.11
-23.06
-26.55
-30.29
-33.63
-35.71
-35.69
-33.03
-27.80
-20.66
-12.65
-4.90
1.75
6.87
10.41
12.59
13.71
14.08
13.93
13.49
12.98
12.62
12.58
12.95
13.67
14.54
15.34
15.86
16.05
15.98
15.80
15.61
15.37
14.87
13.87
12.23
10.04
7.62
5.39
3.65
2.46
1.61
0.73
-0.50
-2.22
-4.31
-6.49
-8.52
-10.25
-11.70
-13.03
-14.40
-15.98
-17.87
-20.21
-23.01
-26.16
-29.26
-31.64
-32.51
-31.19
-27.47
-21.68
-14.63
-7.31
-0.60
4.96
9.22
12.20
14.05
14.85
14.68
13.69
12.21
10.66
9.50
8.97
9.07
9.61
10.27
10.82
11.19
11.42
11.53
11.54
11.33
10.78
9.82
8.54
7.06
5.55
4.08
2.69
1.37
0.11
-1.10
-2.28
-3.50
-4.81
-6.26
-7.83
-9.48
-11.14
-12.81
-14.49
-16.30
-18.35
-20.76
-23.50
-26.31
-28.68
-29.93
-29.42
-26.83
-22.34
-16.60
-10.48
-4.78
0.01
3.74
6.50
8.43
9.57
9.93
9.55
8.61
7.45
6.48
6.07
6.38
7.37
8.78
10.26
11.45
12.10
12.08
11.41
10.23
8.69
6.98
5.27
3.70
2.34
1.22
0.27
-0.61
-1.57
-2.72
-4.09
-5.65
-7.28
-8.90
-10.49
-12.16
-14.04
-16.34
-19.12
-22.25
-25.40
-28.00
-29.44
-29.19
-27.03
-23.09
-17.82
-11.84
-5.84
-0.36
4.24
7.77
10.14
11.36
11.43
10.50
8.84
6.85
5.09
4.08
4.10
5.17
6.96
8.96
10.68
11.78
12.17
11.95
11.26
10.26
9.02
7.66
6.28
4.96
3.68
2.33
0.67
-1.48
-4.15
-7.13
-10.07
-12.67
-14.82
-16.70
-18.68
-21.08
-24.03
-27.33
-30.51
-32.91
-33.95
-33.20
-30.59
-26.29
-20.78
-14.68
-8.66
-3.31
1.06
4.41
6.92
8.88
10.53
11.98
13.21
14.16
14.80
15.20
15.49
15.76
16.00
16.07
15.77
14.94
13.63
12.08
10.62
9.52
8.89
8.56
8.23
7.55
6.32
4.50
2.21
-0.33
-2.97
-5.54
-7.98
-10.23
-12.26
-14.12
-16.00
-18.18
-20.86
-24.02
-27.27
-29.92
-31.17
-30.42
-27.53
-22.83
-17.02
-10.90
-5.09
-0.01
4.20
7.50
9.87
11.38
12.10
12.26
12.14
12.06
12.26
12.85
13.76
14.77
15.58
15.96
15.77
15.03
13.91
12.61
11.31
10.06
8.86
7.62
6.25
4.71
2.98
1.11
-0.85
-2.80
-4.65
-6.38
-8.00
-9.59
-11.23
-13.02
-14.94
-16.98
-19.07
-21.16
-23.13
-24.77
-25.78
-25.75
-24.35
-21.45
-17.23
-12.12
-6.71
-1.58
2.88
6.47
9.11
10.77
11.48
11.31
10.50
9.43
8.55
8.23
8.66
9.68
10.98
12.12
12.77
12.80
12.34
11.65
11.01
10.54
10.20
9.74
8.87
7.41
5.36
2.96
0.52
-1.70
-3.60
-5.29
-6.95
-8.81
-11.01
-13.60
-16.57
-19.79
-22.96
-25.55
-26.93
-26.50
-24.02
-19.65
-14.01
-7.95
-2.23
2.57
6.19
8.60
9.90
10.22
9.73
8.71
7.55
6.65
6.33
6.67
7.55
8.66
9.69
10.43
10.81
10.85
10.63
10.15
9.37
8.22
6.65
4.71
2.55
0.37
-1.64
-3.39
-4.91
-6.33
-7.82
-9.60
-11.85
-14.70
-18.08
-21.75
-25.10
-27.39
-27.84
-25.99
-21.86
-16.03
-9.44
-3.02
2.52
6.92
10.19
12.53
14.07
14.83
14.77
13.96
12.63
11.20
10.11
9.66
9.91
10.64
11.55
12.33
12.80
12.85
12.48
11.66
10.37
8.61
6.44
4.00
1.48
-1.00
-3.32
-5.44
-7.31
-8.96
-10.47
-12.08
-14.11
-16.89
-20.52
-24.81
-29.19
-32.82
-34.80
-34.48
-31.59
-26.44
-19.76
-12.52
-5.61
0.38
5.26
9.14
12.17
14.41
15.74
16.03
15.28
13.81
12.16
10.92
10.48
10.86
11.78
12.83
13.66
14.11
14.24
14.21
14.15
14.10
13.95
13.47
12.37
10.49
7.85
4.69
1.39
-1.70
-4.38
-6.67
-8.77
-10.97
-13.55
-16.71
-20.56
-24.94
-29.44
-33.32
-35.73
-35.87
-33.33
-28.31
-21.49
-13.84
-6.32
0.38
5.94
10.34
13.68
16.12
17.75
18.63
18.84
18.56
18.08
17.72
17.75
18.26
19.11
20.02
20.69
20.97
20.87
20.54
20.14
19.78
19.40
18.82
17.86
16.35
14.23
11.64
8.76
5.87
3.15
0.72
-1.47
-3.53
-5.63
-7.94
-10.66
-14.00
-18.06
-22.77
-27.71
-32.12
-35.01
-35.53
-33.24
-28.30
-21.48
-13.85
-6.44
0.04
5.33
9.48
12.67
15.05
16.64
17.44
17.54
17.20
16.77
16.58
16.86
17.64
18.76
19.98
21.02
21.68
21.86
21.53
20.80
19.80
18.64
17.41
16.10
14.68
13.09
11.30
9.27
7.03
4.64
2.21
-0.11
-2.18
-3.93
-5.41
-6.80
-8.44
-10.66
-13.76
-17.86
-22.75
-27.90
-32.47
-35.46
-36.07
-33.90
-29.19
-22.65
-15.35
-8.24
-1.99
3.15
7.19
10.27
12.49
13.96
14.84
15.41
16.03
17.03
18.53
20.41
22.34
23.97
25.07
25.68
25.98
26.19
26.40
26.54
26.37
25.66
24.32
22.47
20.30
18.06
15.84
13.64
11.32
8.77
5.93
2.86
-0.35
-3.54
-6.60
-9.41
-11.92
-14.19
-16.45
-19.05
-22.28
-26.17
-30.27
-33.69
-35.36
-34.44
-30.65
-24.40
-16.61
-8.39
-0.72
5.78
10.79
14.25
16.22
16.89
16.56
15.66
14.68
14.03
13.95
14.45
15.36
16.46
17.55
18.51
19.24
19.67
19.67
19.14
18.06
16.53
14.84
13.28
12.05
11.09
10.20
9.10
7.64
5.89
4.08
2.45
1.07
-0.21
-1.67
-3.57
-6.09
-9.19
-12.79
-16.82
-21.18
-25.64
-29.78
-32.86
-34.09
-32.83
-28.95
-22.91
-15.66
-8.29
-1.71
3.59
7.52
10.24
11.92
12.66
12.54
11.75
10.65
9.72
9.40
9.98
11.41
13.37
15.38
17.00
17.89
17.98
17.41
16.40
15.16
13.86
12.49
11.00
9.29
7.35
5.21
2.96
0.70
-1.53
-3.69
-5.78
-7.83
-9.85
-11.93
-14.19
-16.79
-19.77
-23.07
-26.35
-29.04
-30.43
-29.92
-27.15
-22.25
-15.75
-8.48
-1.33
5.00
10.08
13.75
16.05
17.12
17.14
16.37
15.10
13.64
12.37
11.58
11.47
12.06
13.17
14.42
15.37
15.69
15.32
14.39
13.19
11.94
10.71
9.44
8.02
6.43
4.70
2.93
1.15
-0.71
-2.68
-4.78
-6.95
-9.07
-11.06
-12.96
-14.89
-17.02
-19.53
-22.50
-25.91
-29.49
-32.70
-34.80
-34.99
-32.74
-28.00
-21.31
-13.66
-6.14
0.42
5.58
9.32
11.88
13.46
14.21
14.20
13.61
12.74
12.00
11.76
12.24
13.35
14.83
16.27
17.38
17.97
18.03
17.66
16.98
16.04
14.83
13.32
11.51
9.48
7.40
5.41
3.51
1.65
-0.36
-2.60
-5.04
-7.49
-9.79
-11.82
-13.67
-15.53
-17.67
-20.25
-23.32
-26.71
-29.99
-32.57
-33.71
-32.79
-29.49
-23.98
-16.91
-9.24
-2.00
4.04
8.51
11.40
12.97
13.58
13.56
13.16
12.59
12.06
11.75
11.85
12.42
13.41
14.59
15.69
16.46
16.83
16.85
16.63
16.25
15.68
14.82
13.58
11.96
10.05
7.98
5.82
3.60
1.27
-1.19
-3.72
-6.19
-8.47
-10.49
-12.28
-13.96
-15.73
-17.77
-20.28
-23.32
-26.79
-30.33
-33.35
-35.12
-35.02
-32.71
-28.24
-22.13
-15.12
-8.02
-1.54
3.85
7.96
10.80
12.52
13.35
13.51
13.24
12.76
12.27
11.97
12.01
12.46
13.31
14.46
15.74
16.99
18.03
18.67
18.80
18.33
17.27
15.70
13.78
11.72
9.68
7.76
6.01
4.41
2.91
1.45
-0.02
-1.59
-3.33
-5.29
-7.50
-9.91
-12.41
-14.92
-17.41
-19.99
-22.77
-25.80
-28.87
-31.39
-32.55
-31.60
-28.12
-22.36
-15.16
-7.65
-0.94
4.32
7.99
10.33
11.72
12.45
12.63
12.29
11.53
10.63
9.96
9.85
10.43
11.61
13.07
14.47
15.52
16.04
15.95
15.24
13.97
12.23
10.17
8.05
6.09
4.44
3.13
2.06
1.04
-0.07
-1.36
-2.83
-4.43
-6.11
-7.85
-9.68
-11.70
-14.04
-16.79
-19.96
-23.36
-26.51
-28.72
-29.24
-27.55
-23.51
-17.50
-10.35
-3.07
3.45
8.59
12.11
14.10
14.80
14.47
13.39
11.82
10.05
8.41
7.22
6.73
7.01
7.96
9.30
10.67
11.73
12.24
12.16
11.60
10.74
9.79
8.85
7.90
6.78
5.35
3.53
1.35
-1.03
-3.39
-5.56
-7.47
-9.17
-10.84
-12.67
-14.87
-17.57
-20.83
-24.49
-28.20
-31.40
-33.39
-33.55
-31.51
-27.28
-21.29
-14.28
-7.07
-0.48
4.96
8.94
11.41
12.49
12.45
11.65
10.49
9.42
8.80
8.90
9.77
11.29
13.14
14.92
16.26
16.92
16.83
16.11
14.92
13.47
11.88
10.22
8.47
6.62
4.60
2.45
0.22
-2.00
-4.07
-5.91
-7.51
-9.02
-10.66
-12.72
-15.38
-18.73
-22.72
-27.08
-31.45
-35.35
-38.15
-39.23
-38.07
-34.43
-28.49
-20.84
-12.42
-4.26
2.75
8.08
11.61
13.53
14.22
14.07
13.40
12.44
11.41
10.56
10.18
10.50
11.57
13.23
15.10
16.77
17.93
18.50
18.56
18.25
17.65
16.70
15.26
13.24
10.70
7.84
4.98
2.39
0.17
-1.75
-3.55
-5.43
-7.54
-9.89
-12.50
-15.40
-18.71
-22.58
-26.99
-31.63
-35.83
-38.69
-39.38
-37.43
-32.88
-26.29
-18.53
-10.51
-2.97
3.64
9.08
13.32
16.40
18.40
19.44
19.64
19.21
18.38
17.45
16.70
16.33
16.44
17.00
17.87
18.85
19.69
20.18
20.17
19.59
18.50
17.04
15.41
13.75
12.05
10.24
8.17
5.79
3.17
0.51
-2.00
-4.19
-6.05
-7.70
-9.33
-11.18
-13.51
-16.48
-20.13
-24.26
-28.30
-31.42
-32.70
-31.41
-27.29
-20.71
-12.59
-4.12
3.61
9.86
14.34
17.17
18.60
18.92
18.31
17.00
15.26
13.53
12.32
11.99
12.65
14.07
15.79
17.34
18.37
18.80
18.72
18.30
17.69
16.93
15.96
14.72
13.13
11.16
8.84
6.25
3.52
0.85
-1.55
-3.53
-5.09
-6.41
-7.82
-9.68
-12.29
-15.76
-19.92
-24.39
-28.52
-31.55
-32.75
-31.59
-27.95
-22.21
-15.14
-7.67
-0.63
5.44
10.34
14.06
16.65
18.10
18.40
17.65
16.15
14.32
12.69
11.66
11.41
11.90
12.86
13.95
14.86
15.40
15.53
15.31
14.86
14.22
13.30
11.96
10.08
7.70
5.00
2.29
-0.15
-2.19
-3.84
-5.27
-6.71
-8.44
-10.70
-13.69
-17.46
-21.79
-26.10
-29.58
-31.31
-30.68
-27.51
-22.25
-15.72
-8.89
-2.57
2.77
7.02
10.23
12.48
13.79
14.12
13.52
12.20
10.60
9.28
8.74
9.17
10.46
12.19
13.81
14.91
15.29
15.03
14.40
13.63
12.84
11.92
10.65
8.80
6.25
3.18
-0.11
-3.21
-5.85
-8.00
-9.81
-11.59
-13.64
-16.16
-19.22
-22.76
-26.59
-30.30
-33.28
-34.77
-34.08
-30.85
-25.22
-17.88
-9.80
-1.97
4.84
10.25
14.16
16.62
17.73
17.64
16.57
14.89
13.07
11.59
10.85
11.04
12.04
13.53
15.05
16.18
16.69
16.55
15.91
15.03
14.05
13.00
11.77
10.19
8.14
5.56
2.57
-0.64
-3.78
-6.59
-8.88
-10.61
-11.95
-13.23
-14.79
-16.97
-19.88
-23.45
-27.33
-30.92
-33.43
-34.06
-32.25
-27.92
-21.55
-14.07
-6.54
0.18
5.63
9.76
12.70
14.62
15.59
15.63
14.88
13.64
12.40
11.61
11.53
12.16
13.25
14.45
15.49
16.20
16.59
16.66
16.46
15.97
15.20
14.13
12.78
11.13
9.17
6.90
4.36
1.69
-0.94
-3.40
-5.67
-7.86
-10.09
-12.47
-15.08
-17.99
-21.26
-24.86
-28.56
-31.86
-33.97
-34.13
-31.80
-26.99
-20.21
-12.38
-4.43
2.91
9.22
14.27
17.94
20.12
20.74
19.96
18.18
16.06
14.24
13.24
13.23
14.10
15.50
17.03
18.32
19.07
19.11
18.36
16.92
15.04
13.02
11.13
9.46
7.89
6.26
4.44
2.45
0.40
-1.61
-3.54
-5.45
-7.43
-9.49
-11.59
-13.65
-15.73
-17.93
-20.46
-23.41
-26.57
-29.42
-31.23
-31.27
-29.09
-24.77
-18.82
-12.10
-5.47
0.43
5.28
9.04
11.78
13.53
14.27
14.05
13.06
11.76
10.71
10.43
11.15
12.77
14.85
16.87
18.36
19.03
18.86
17.99
16.74
15.40
14.19
13.14
12.13
10.92
9.27
7.05
4.35
1.41
-1.49
-4.11
-6.35
-8.24
-9.87
-11.38
-12.93
-14.70
-16.89
-19.70
-23.05
-26.61
-29.59
-31.05
-30.16
-26.58
-20.65
-13.29
-5.69
1.15
6.67
10.74
13.51
15.15
15.70
15.20
13.81
11.91
10.04
8.70
8.18
8.41
9.08
9.79
10.24
10.31
10.03
9.56
9.00
8.44
7.85
7.19
6.37
5.30
3.95
2.32
0.46
-1.55
-3.57
-5.53
-7.33
-9.00
-10.63
-12.40
-14.52
-17.19
-20.41
-23.94
-27.18
-29.36
-29.73
-27.82
-23.69
-17.88
-11.26
-4.78
0.84
5.22
8.29
10.17
11.02
11.01
10.28
9.09
7.73
6.55
5.83
5.73
6.22
7.09
8.08
8.93
9.49
9.73
9.71
9.51
9.12
8.50
7.56
6.21
4.43
2.28
-0.08
-2.47
-4.70
-6.69
-8.38
-9.82
-11.14
-12.56
-14.37
-16.84
-20.02
-23.70
-27.25
-29.80
-30.50
-28.80
-24.73
-18.87
-12.14
-5.48
0.43
5.23
8.88
11.41
12.84
13.18
12.49
10.94
8.89
6.85
5.25
4.42
4.43
5.13
6.21
7.37
8.33
8.97
9.24
9.17
8.83
8.29
7.62
6.81
5.81
4.50
2.77
0.61
-1.83
-4.26
-6.44
-8.21
-9.67
-11.12
-12.90
-15.32
-18.52
-22.38
-26.50
-30.22
-32.74
-33.31
-31.46
-27.21
-21.06
-13.91
-6.71
-0.27
4.95
8.78
11.28
12.61
12.94
12.47
11.42
10.12
8.94
8.22
8.17
8.78
9.82
10.90
11.68
11.98
11.86
11.55
11.31
11.25
11.23
10.98
10.16
8.55
6.18
3.29
0.24
-2.60
-5.03
-7.04
-8.82
-10.62
-12.65
-15.03
-17.80
-20.91
-24.23
-27.57
-30.52
-32.52
-32.93
-31.24
-27.30
-21.42
-14.29
-6.84
0.05
5.74
9.99
12.85
14.58
15.49
15.80
15.61
14.98
14.01
12.95
12.17
11.98
12.50
13.59
14.86
15.91
16.46
16.46
15.97
15.09
13.82
12.14
10.02
7.58
5.07
2.71
0.66
-1.07
-2.61
-4.15
-5.84
-7.75
-9.95
-12.52
-15.53
-19.07
-23.04
-27.06
-30.48
-32.39
-31.99
-28.82
-23.08
-15.60
-7.58
-0.16
5.92
10.44
13.56
15.51
16.41
16.19
14.82
12.51
9.76
7.31
5.77
5.51
6.44
8.15
10.05
11.64
12.62
12.94
12.81
12.50
12.23
12.03
11.67
10.82
9.20
6.77
3.75
0.58
-2.30
-4.64
-6.45
-7.96
-9.52
-11.47
-14.05
-17.35
-21.25
-25.35
-29.04
-31.53
-32.09
-30.23
-25.95
-19.73
-12.45
-5.14
1.32
6.43
10.07
12.40
13.69
14.18
14.05
13.40
12.45
11.48
10.82
10.73
11.29
12.32
13.48
14.39
14.74
14.46
13.68
12.66
11.67
10.85
10.13
9.27
7.99
6.06
3.52
0.61
-2.30
-4.93
-7.12
-8.95
-10.64
-12.44
-14.55
-17.14
-20.32
-24.11
-28.34
-32.54
-35.92
-37.55
-36.71
-33.09
-26.99
-19.29
-11.04
-3.24
3.47
8.80
12.77
15.48
17.09
17.72
17.57
16.90
16.08
15.46
15.33
15.77
16.68
17.81
18.85
19.54
19.81
19.72
19.44
19.13
18.81
18.36
17.53
16.10
13.96
11.25
8.27
5.40
2.88
0.81
-1.00
-2.81
-4.93
-7.57
-10.86
-14.78
-19.25
-24.03
-28.69
-32.62
-35.09
-35.49
-33.47
-29.08
-22.77
-15.31
-7.53
-0.18
6.21
11.36
15.18
17.72
19.08
19.41
18.93
17.99
17.02
16.43
16.49
17.25
18.46
19.72
20.70
21.19
21.22
20.96
20.59
20.19
19.73
19.05
17.97
16.32
14.06
11.27
8.18
5.10
2.34
0.06
-1.77
-3.39
-5.10
-7.17
-9.77
-12.93
-16.62
-20.71
-24.89
-28.62
-31.19
-31.86
-30.14
-25.96
-19.79
-12.46
-4.91
2.12
8.15
13.05
16.75
19.23
20.45
20.38
19.18
17.18
14.90
12.88
11.52
11.04
11.40
12.37
13.61
14.78
15.63
16.03
15.99
15.55
14.80
13.68
12.12
10.05
7.50
4.65
1.78
-0.80
-2.89
-4.46
-5.69
-6.90
-8.45
-10.67
-13.75
-17.61
-21.91
-26.02
-29.15
-30.53
-29.62
-26.27
-20.84
-14.07
-6.90
-0.21
5.41
9.77
12.89
14.96
16.10
16.34
15.69
14.27
12.42
10.64
9.45
9.23
10.02
11.57
13.44
15.13
16.28
16.72
16.47
15.66
14.44
12.92
11.13
9.05
6.66
3.98
1.11
-1.77
-4.46
-6.77
-8.61
-10.06
-11.36
-12.92
-15.17
-18.41
-22.61
-27.34
-31.76
-34.92
-35.98
-34.49
-30.54
-24.66
-17.65
-10.31
-3.39
2.60
7.30
10.53
12.26
12.67
12.11
11.06
9.99
9.26
9.06
9.38
10.11
11.03
11.95
12.71
13.19
13.35
13.16
12.70
12.04
11.26
10.34
9.17
7.57
5.45
2.86
0.10
-2.48
-4.60
-6.20
-7.44
-8.68
-10.25
-12.40
-15.19
-18.54
-22.16
-25.62
-28.29
-29.49
-28.63
-25.41
-19.98
-12.90
-5.03
2.71
9.58
15.04
18.85
20.94
21.46
20.62
18.83
16.53
14.25
12.45
11.46
11.41
12.18
13.48
14.90
16.01
16.55
16.41
15.68
14.54
13.23
11.86
10.35
8.54
6.24
3.40
0.18
-3.10
-6.05
-8.41
-10.13
-11.40
-12.53
-13.87
-15.68
-18.09
-21.03
-24.25
-27.30
-29.56
-30.42
-29.37
-26.20
-21.12
-14.68
-7.68
-0.86
5.15
9.99
13.47
15.56
16.33
15.99
14.87
13.41
12.07
11.19
10.90
11.11
11.57
11.99
12.16
11.99
11.54
10.93
10.26
9.58
8.85
7.91
6.62
4.85
2.64
0.19
-2.25
-4.45
-6.35
-8.04
-9.75
-11.74
-14.17
-17.06
-20.25
-23.44
-26.16
-27.83
-27.94
-26.11
-22.30
-16.85
-10.43
-3.88
2.07
6.86
10.24
12.16
12.79
12.38
11.27
9.85
8.49
7.47
6.94
6.91
7.25
7.79
8.34
8.80
9.09
9.21
9.14
8.82
8.16
7.05
5.40
3.27
0.80
-1.74
-4.09
-6.10
-7.78
-9.31
-10.94
-12.91
-15.42
-18.53
-22.12
-25.82
-29.00
-30.84
-30.55
-27.67
-22.32
-15.20
-7.42
-0.09
5.98
10.47
13.44
15.17
15.91
15.80
14.95
13.54
11.92
10.53
9.80
9.92
10.75
11.91
12.89
13.33
13.11
12.34
11.29
10.13
8.93
7.57
5.89
3.80
1.33
-1.28
-3.79
-5.96
-7.75
-9.25
-10.65
-12.19
-14.07
-16.42
-19.31
-22.65
-26.20
-29.48
-31.83
-32.51
-31.01
-27.15
-21.26
-14.06
-6.45
0.70
6.77
11.44
14.65
16.59
17.56
17.91
17.91
17.78
17.59
17.41
17.31
17.37
17.70
18.25
18.85
19.24
19.16
18.50
17.36
15.96
14.52
13.17
11.81
10.26
8.29
5.80
2.92
-0.07
-2.80
-5.02
-6.68
-7.99
-9.34
-11.16
-13.72
-17.07
-20.97
-24.96
-28.44
-30.78
-31.44
-30.07
-26.62
-21.38
-14.92
-7.98
-1.24
4.73
9.61
13.26
15.71
17.04
17.41
17.03
16.20
15.25
14.58
14.45
14.98
16.09
17.50
18.82
19.71
19.94
19.51
18.54
17.29
15.97
14.75
13.69
12.74
11.77
10.64
9.21
7.40
5.28
2.96
0.63
-1.55
-3.48
-5.14
-6.61
-8.04
-9.66
-11.65
-14.23
-17.42
-21.04
-24.59
-27.34
-28.48
-27.42
-24.02
-18.63
-12.07
-5.35
0.69
5.51
9.02
11.41
12.91
13.67
13.68
12.91
11.50
9.83
8.43
7.83
8.27
9.62
11.42
13.11
14.26
14.70
14.54
14.00
13.32
12.63
11.91
11.12
10.15
8.92
7.40
5.61
3.61
1.56
-0.42
-2.22
-3.82
-5.28
-6.76
-8.42
-10.48
-13.07
-16.23
-19.75
-23.14
-25.65
-26.55
-25.26
-21.67
-16.18
-9.59
-2.85
3.19
8.04
11.46
13.51
14.34
14.13
13.09
11.47
9.63
7.97
6.88
6.60
7.15
8.35
9.85
11.23
12.17
12.54
12.31
11.60
10.51
9.16
7.64
6.06
4.48
3.00
1.63
0.34
-0.96
-2.35
-3.86
-5.48
-7.11
-8.70
-10.26
-11.93
-13.95
-16.55
-19.78
-23.47
-27.09
-29.89
-31.10
-30.15
-26.85
-21.52
-14.81
-7.62
-0.79
5.01
9.40
12.24
13.65
13.86
13.20
12.00
10.62
9.37
8.49
8.07
8.11
8.45
8.95
9.50
10.06
10.60
11.09
11.41
11.42
10.99
10.13
8.95
7.64
6.37
5.15
3.90
2.44
0.69
-1.34
-3.55
-5.74
-7.79
-9.68
-11.55
-13.62
-16.09
-19.10
-22.61
-26.32
-29.70
-32.04
-32.65
-31.01
-27.03
-21.04
-13.76
-6.14
0.94
6.81
11.16
13.96
15.39
15.74
15.31
14.42
13.38
12.46
11.84
11.60
11.72
12.11
12.68
13.31
13.90
14.31
14.42
14.15
13.51
12.57
11.42
10.13
8.70
7.05
5.10
2.85
0.40
-2.08
-4.39
-6.37
-7.96
-9.19
-10.17
-11.11
-12.30
-14.07
-16.61
-19.94
-23.71
-27.29
-29.84
-30.58
-29.07
-25.33
-19.84
-13.42
-6.93
-1.07
3.73
7.33
9.74
11.07
11.44
11.03
10.10
9.02
8.18
7.88
8.19
8.95
9.90
10.79
11.49
11.99
12.35
12.57
12.60
12.29
11.54
10.36
8.83
7.06
5.13
3.08
0.92
-1.30
-3.50
-5.59
-7.47
-9.11
-10.55
-11.86
-13.20
-14.77
-16.78
-19.33
-22.35
-25.48
-28.11
-29.44
-28.78
-25.80
-20.71
-14.22
-7.29
-0.87
4.41
8.23
10.63
11.76
11.77
10.84
9.23
7.30
5.50
4.31
3.98
4.59
5.93
7.65
9.31
10.58
11.28
11.38
11.04
10.47
9.87
9.31
8.71
7.89
6.62
4.79
2.47
-0.05
-2.40
-4.28
-5.56
-6.40
-7.19
-8.33
-10.12
-12.60
-15.59
-18.76
-21.68
-23.96
-25.27
-25.28
-23.74
-20.55
-15.85
-10.07
-3.94
1.73
6.24
9.16
10.42
10.24
9.06
7.35
5.53
3.98
2.98
2.73
3.30
4.56
6.21
7.81
8.99
9.53
9.48
9.09
8.64
8.28
7.94
7.31
6.06
4.01
1.23
-1.94
-5.06
-7.78
-9.93
-11.64
-13.16
-14.82
-16.90
-19.56
-22.81
-26.42
-29.95
-32.73
-34.03
-33.27
-30.24
-25.20
-18.80
-11.91
-5.31
0.43
5.00
8.30
10.34
11.23
11.18
10.45
9.36
8.23
7.32
6.87
6.99
7.74
8.98
10.45
11.79
12.67
12.92
12.59
11.86
10.89
9.75
8.33
6.51
4.23
1.58
-1.22
-3.93
-6.37
-8.47
-10.26
-11.89
-13.58
-15.59
-18.20
-21.60
-25.70
-30.10
-34.02
-36.51
-36.75
-34.28
-29.24
-22.29
-14.40
-6.62
0.23
5.66
9.53
11.94
13.10
13.24
12.64
11.65
10.65
10.02
10.03
10.77
12.04
13.49
14.71
15.38
15.37
14.78
13.84
12.78
11.74
10.72
9.61
8.21
6.45
4.32
1.93
-0.56
-2.99
-5.26
-7.38
-9.37
-11.35
-13.50
-16.03
-19.17
-22.99
-27.33
-31.67
-35.15
-36.85
-36.05
-32.52
-26.68
-19.40
-11.74
-4.59
1.57
6.55
10.39
13.10
14.65
15.06
14.56
13.55
12.55
12.02
12.20
13.07
14.40
15.83
17.05
17.80
17.96
17.51
16.60
15.39
14.04
12.58
10.95
8.99
6.66
4.02
1.31
-1.22
-3.34
-5.02
-6.39
-7.69
-9.23
-11.29
-14.07
-17.64
-21.77
-25.98
-29.57
-31.71
-31.76
-29.38
-24.72
-18.30
-10.93
-3.48
3.37
9.10
13.49
16.49
18.14
18.59
18.05
16.86
15.46
14.35
13.95
14.41
15.59
17.18
18.76
20.03
20.86
21.28
21.40
21.32
21.04
20.51
19.60
18.20
16.24
13.75
10.91
7.95
5.14
2.61
0.30
-2.02
-4.62
-7.74
-11.49
-15.78
-20.36
-24.85
-28.73
-31.37
-32.18
-30.70
-26.82
-20.86
-13.51
-5.65
1.84
8.29
13.25
16.56
18.18
18.25
17.02
14.88
12.40
10.12
8.55
7.90
8.07
8.75
9.49
9.97
10.06
9.81
9.30
8.55
7.44
5.79
3.55
0.88
-1.88
-4.40
-6.50
-8.26
-9.96
-11.94
-14.38
-17.34
-20.69
-24.18
-27.49
-30.18
-31.71
-31.47
-29.01
-24.17
-17.24
-8.93
-0.18
8.09
15.18
20.70
24.51
26.61
27.12
26.14
23.95
20.99
17.88
15.35
13.98
14.07
15.43
17.55
19.72
21.31
21.99
21.78
20.90
19.65
18.22
16.56
14.57
12.12
9.26
6.24
3.43
1.10
-0.66
-2.12
-3.74
-6.06
-9.42
-13.90
-19.18
-24.67
-29.55
-32.99
-34.28
-33.00
-29.14
-23.04
-15.46
-7.29
0.56
7.37
12.74
16.47
18.64
19.42
19.10
17.99
16.44
14.78
13.26
12.08
11.31
10.98
11.10
11.62
12.50
13.59
14.69
15.53
15.91
15.70
14.88
13.51
11.70
9.54
7.16
4.70
2.30
0.05
-2.15
-4.55
-7.51
-11.30
-15.94
-20.99
-25.69
-29.03
-30.11
-28.42
-23.96
-17.30
-9.38
-1.28
6.11
12.18
16.66
19.55
20.95
21.02
20.04
18.37
16.56
15.21
14.74
15.28
16.61
18.23
19.61
20.44
20.63
20.34
19.77
19.00
17.98
16.55
14.60
12.12
9.29
6.38
3.67
1.31
-0.75
-2.75
-5.06
-8.06
-12.01
-16.83
-22.11
-27.01
-30.48
-31.60
-29.84
-25.32
-18.78
-11.29
-3.91
2.62
8.02
12.29
15.54
17.82
19.06
19.25
18.50
17.09
15.44
13.92
12.85
12.39
12.55
13.24
14.23
15.29
16.10
16.46
16.23
15.38
13.95
12.05
9.72
7.06
4.18
1.15
-1.95
-5.15
-8.57
-12.40
-16.78
-21.61
-26.51
-30.71
-33.39
-33.74
-31.37
-26.39
-19.40
-11.33
-3.17
4.20
10.25
14.70
17.57
19.07
19.46
19.06
18.17
17.04
15.83
14.74
13.93
13.58
13.76
14.41
15.30
16.09
16.42
16.03
14.89
13.09
10.79
8.15
5.25
2.14
-1.05
-4.21
-7.22
-10.08
-13.01
-16.33
-20.32
-24.95
-29.76
-33.86
-36.16
-35.77
-32.28
-26.02
-17.89
-9.12
-0.83
6.18
11.63
15.58
18.28
19.96
20.76
20.74
20.01
18.78
17.35
16.04
15.07
14.51
14.32
14.33
14.40
14.40
14.25
13.85
13.13
11.95
10.20
7.80
4.77
1.33
-2.20
-5.47
-8.24
-10.48
-12.47
-14.65
-17.49
-21.22
-25.64
-30.06
-33.49
-34.93
-33.74
-29.82
-23.68
-16.18
-8.29
-0.78
5.84
11.36
15.65
18.68
20.43
21.00
20.65
19.79
18.85
18.18
17.97
18.19
18.69
19.21
19.56
19.64
19.45
19.09
18.60
17.96
17.02
15.56
13.44
10.69
7.50
4.19
1.02
-1.93
-4.69
-7.38
-10.13
-13.05
-16.31
-20.06
-24.37
-29.05
-33.48
-36.71
-37.77
-36.01
-31.38
-24.53
-16.49
-8.36
-0.96
5.36
10.51
14.53
17.42
19.09
19.53
18.93
17.72
16.47
15.70
15.64
16.20
17.01
17.63
17.74
17.27
16.38
15.33
14.33
13.49
12.74
11.95
10.93
9.49
7.55
5.06
2.17
-0.90
-3.85
-6.41
-8.47
-10.14
-11.70
-13.55
-16.07
-19.43
-23.52
-27.90
-31.84
-34.45
-34.95
-32.85
-28.17
-21.48
-13.70
-5.84
1.21
6.98
11.29
14.26
16.10
17.04
17.25
16.89
16.10
15.08
14.09
13.37
13.12
13.45
14.26
15.31
16.23
16.69
16.47
15.53
14.02
12.17
10.17
8.09
5.92
3.61
1.19
-1.19
-3.39
-5.25
-6.82
-8.25
-9.73
-11.37
-13.22
-15.27
-17.50
-20.01
-22.90
-26.15
-29.49
-32.31
-33.85
-33.38
-30.51
-25.33
-18.41
-10.62
-2.92
3.91
9.35
13.25
15.71
16.98
17.31
16.91
15.92
14.50
12.90
11.44
10.45
10.16
10.50
11.27
12.09
12.65
12.80
12.54
11.96
11.11
10.00
8.63
7.08
5.48
4.04
2.90
1.97
1.07
-0.08
-1.63
-3.57
-5.73
-7.87
-9.81
-11.54
-13.19
-14.98
-17.13
-19.83
-23.08
-26.70
-30.19
-32.81
-33.71
-32.21
-28.05
-21.64
-13.92
-6.04
0.96
6.44
10.27
12.61
13.75
13.93
13.35
12.18
10.69
9.23
8.14
7.67
7.88
8.64
9.71
10.75
11.54
11.93
11.89
11.46
10.72
9.69
8.41
6.90
5.22
3.48
1.78
0.16
-1.42
-3.05
-4.78
-6.62
-8.42
-10.02
-11.31
-12.29
-13.10
-13.98
-15.19
-16.92
-19.29
-22.22
-25.39
-28.27
-30.15
-30.34
-28.42
-24.38
-18.67
-12.10
-5.51
0.36
5.07
8.48
10.64
11.72
11.90
11.38
10.41
9.27
8.29
7.76
7.85
8.51
9.52
10.56
11.35
11.77
11.85
11.71
11.44
11.03
10.38
9.40
8.11
6.64
5.16
3.74
2.32
0.77
-1.02
-3.05
-5.11
-6.91
-8.27
-9.16
-9.79
-10.52
-11.76
-13.78
-16.68
-20.27
-24.10
-27.52
-29.74
-30.09
-28.21
-24.23
-18.71
-12.46
-6.31
-0.84
3.61
6.97
9.32
10.72
11.24
10.98
10.06
8.68
7.08
5.53
4.30
3.60
3.53
4.07
5.07
6.26
7.33
8.09
8.40
8.22
7.56
6.43
4.86
2.91
0.74
-1.43
-3.34
-4.78
-5.76
-6.52
-7.39
-8.70
-10.60
-13.02
-15.73
-18.47
-21.05
-23.30
-24.96
-25.63
-24.83
-22.22
-17.80
-12.09
-5.95
-0.23
4.48
8.04
10.58
12.27
13.17
13.18
12.25
10.49
8.24
6.01
4.22
3.09
2.66
2.77
3.23
3.76
4.17
4.31
4.11
3.66
3.07
2.44
1.72
0.75
-0.60
-2.36
-4.36
-6.28
-7.82
-8.88
-9.61
-10.36
-11.49
-13.28
-15.77
-18.86
-22.24
-25.51
-28.19
-29.75
-29.75
-27.87
-24.08
-18.73
-12.45
-6.03
-0.27
4.28
7.38
9.09
9.68
9.50
8.87
8.06
7.27
6.67
6.40
6.55
7.15
8.11
9.23
10.30
11.08
11.42
11.35
10.99
10.48
9.92
9.26
8.33
6.92
4.91
2.34
-0.61
-3.64
-6.49
-9.02
-11.21
-13.24
-15.31
-17.66
-20.43
-23.60
-26.96
-30.04
-32.23
-32.89
-31.52
-27.97
-22.51
-15.79
-8.71
-2.11
3.40
7.50
10.25
11.79
12.34
12.06
11.09
9.63
8.00
6.62
5.89
6.04
7.11
8.85
10.91
12.85
14.33
15.15
15.30
14.79
13.73
12.21
10.34
8.20
5.89
3.54
1.23
-0.93
-2.93
-4.74
-6.47
-8.22
-10.11
-12.32
-14.96
-18.12
-21.71
-25.45
-28.80
-31.10
-31.73
-30.25
-26.61
-21.08
-14.28
-6.97
0.09
6.24
11.03
14.25
15.98
16.43
15.97
15.00
13.78
12.54
11.43
10.58
10.14
10.20
10.70
11.44
12.16
12.60
12.66
12.41
12.02
11.61
11.21
10.68
9.81
8.46
6.65
4.54
2.37
0.33
-1.50
-3.13
-4.66
-6.18
-7.80
-9.69
-12.08
-15.19
-19.09
-23.58
-28.05
-31.64
-33.46
-32.88
-29.74
-24.37
-17.51
-9.99
-2.59
4.11
9.72
14.02
16.91
18.43
18.71
18.05
16.88
15.61
14.61
14.07
14.04
14.45
15.13
15.93
16.66
17.13
17.18
16.68
15.62
14.11
12.39
10.71
9.23
7.99
6.84
5.60
4.10
2.32
0.36
-1.61
-3.46
-5.18
-6.89
-8.80
-11.19
-14.25
-18.01
-22.30
-26.67
-30.45
-32.82
-33.09
-30.87
-26.27
-19.87
-12.57
-5.27
1.33
6.88
11.26
14.51
16.63
17.62
17.49
16.41
14.77
13.09
11.89
11.52
12.04
13.22
14.70
16.10
17.17
17.81
18.02
17.83
17.28
16.38
15.21
13.83
12.30
10.63
8.74
6.60
4.19
1.60
-1.00
-3.43
-5.52
-7.26
-8.84
-10.61
-12.97
-16.15
-20.03
-24.07
-27.43
-29.21
-28.78
-25.99
-21.19
-15.06
-8.36
-1.71
4.44
9.77
14.00
16.87
18.20
18.00
16.52
14.28
11.90
9.98
8.94
8.91
9.74
11.06
12.48
13.61
14.30
14.54
14.46
14.19
13.80
13.23
12.38
11.14
9.52
7.60
5.56
3.54
1.62
-0.22
-2.08
-4.05
-6.23
-8.71
-11.55
-14.77
-18.28
-21.75
-24.64
-26.24
-25.90
-23.27
-18.43
-11.92
-4.62
2.56
8.85
13.77
17.12
18.88
19.17
18.23
16.39
14.15
12.02
10.48
9.83
10.09
11.04
12.27
13.33
13.94
13.99
13.58
12.95
12.25
11.50
10.51
9.02
6.85
4.02
0.81
-2.34
-5.04
-7.07
-8.49
-9.62
-10.85
-12.56
-15.00
-18.21
-22.05
-26.10
-29.74
-32.24
-32.86
-31.15
-27.06
-21.03
-13.89
-6.54
0.22
5.91
10.34
13.46
15.32
15.92
15.38
13.93
12.05
10.34
9.38
9.53
10.79
12.83
15.13
17.14
18.47
18.92
18.54
17.48
15.96
14.17
12.21
10.09
7.81
5.33
2.71
0.04
-2.51
-4.82
-6.79
-8.49
-10.04
-11.73
-13.84
-16.67
-20.33
-24.65
-29.13
-32.90
-34.95
-34.47
-31.13
-25.28
-17.81
-9.93
-2.71
3.17
7.52
10.54
12.54
13.77
14.29
14.12
13.28
12.02
10.80
10.14
10.42
11.68
13.59
15.57
17.05
17.72
17.57
16.87
15.96
15.05
14.15
13.06
11.58
9.58
7.10
4.35
1.58
-0.97
-3.19
-5.06
-6.69
-8.27
-10.03
-12.25
-15.15
-18.81
-23.00
-27.25
-30.79
-32.81
-32.65
-29.99
-24.96
-18.09
-10.20
-2.19
5.09
11.04
15.37
18.08
19.40
19.62
19.08
18.06
16.83
15.73
15.09
15.13
15.90
17.19
18.59
19.71
20.29
20.29
19.87
19.21
18.43
17.46
16.21
14.54
12.46
10.07
7.57
5.10
2.74
0.47
-1.80
-4.11
-6.41
-8.66
-10.85
-13.12
-15.75
-19.01
-23.00
-27.45
-31.71
-34.90
-36.12
-34.79
-30.81
-24.60
-16.97
-8.86
-1.15
5.58
10.99
14.93
17.41
18.49
18.31
17.15
15.43
13.69
12.42
11.90
12.17
12.97
13.96
14.83
15.41
15.67
15.66
15.45
15.10
14.62
14.00
13.21
12.16
10.73
8.83
6.43
3.65
0.72
-2.03
-4.33
-6.06
-7.34
-8.47
-9.93
-12.22
-15.59
-19.96
-24.79
-29.15
-32.03
-32.60
-30.47
-25.80
-19.24
-11.68
-4.03
2.91
8.59
12.77
15.45
16.79
17.06
16.49
15.28
13.63
11.79
10.12
9.07
8.98
9.95
11.76
13.86
15.62
16.53
16.42
15.47
14.09
12.67
11.35
10.06
8.48
6.36
3.62
0.49
-2.66
-5.43
-7.60
-9.18
-10.41
-11.65
-13.26
-15.50
-18.55
-22.34
-26.55
-30.54
-33.44
-34.36
-32.67
-28.25
-21.56
-13.49
-5.11
2.60
8.94
13.56
16.44
17.72
17.69
16.71
15.15
13.40
11.83
10.70
10.17
10.25
10.79
11.60
12.46
13.24
13.89
14.38
14.67
14.67
14.25
13.28
11.69
9.51
6.87
3.97
1.02
-1.81
-4.43
-6.79
-8.93
-10.95
-12.93
-15.02
-17.38
-20.19
-23.58
-27.45
-31.47
-34.96
-37.10
-37.12
-34.58
-29.51
-22.39
-14.05
-5.42
2.61
9.34
14.29
17.30
18.47
18.19
16.95
15.31
13.69
12.36
11.50
11.17
11.40
12.14
13.22
14.41
15.39
15.93
15.95
15.55
14.94
14.30
13.67
12.97
12.02
10.70
8.99
6.96
4.74
2.44
0.06
-2.44
-5.10
-7.91
-10.79
-13.66
-16.53
-19.53
-22.89
-26.75
-30.96
-34.98
-37.97
-39.00
-37.43
-33.12
-26.51
-18.50
-10.07
-2.12
4.79
10.35
14.53
17.30
18.73
18.95
18.18
16.75
15.09
13.60
12.60
12.28
12.66
13.63
14.98
16.43
17.65
18.37
18.42
17.77
16.56
15.02
13.35
11.70
10.09
8.47
6.76
4.89
2.85
0.70
-1.47
-3.57
-5.59
-7.61
-9.83
-12.46
-15.69
-19.56
-23.93
-28.52
-32.85
-36.35
-38.39
-38.36
-35.89
-30.95
-23.96
-15.76
-7.38
0.19
6.28
10.68
13.52
15.16
15.97
16.20
15.91
15.19
14.14
13.01
12.14
11.85
12.29
13.42
14.96
16.52
17.75
18.39
18.37
17.79
16.79
15.57
14.23
12.77
11.11
9.17
6.93
4.45
1.92
-0.56
-2.89
-5.08
-7.24
-9.47
-11.93
-14.73
-18.00
-21.77
-25.92
-30.10
-33.66
-35.82
-35.79
-33.13
-27.84
-20.43
-11.83
-3.10
4.78
11.15
15.74
18.56
19.80
19.69
18.49
16.50
14.08
11.67
9.74
8.66
8.58
9.37
10.74
12.26
13.52
14.29
14.49
14.21
13.60
12.72
11.56
9.98
7.86
5.22
2.22
-0.80
-3.51
-5.73
-7.49
-8.99
-10.46
-12.14
-14.17
-16.61
-19.45
-22.56
-25.65
-28.20
-29.60
-29.23
-26.76
-22.18
-15.95
-8.80
-1.61
4.89
10.17
13.97
16.29
17.20
16.86
15.42
13.18
10.56
8.11
6.37
5.75
6.36
7.97
10.11
12.19
13.73
14.48
14.43
13.73
12.64
11.38
10.05
8.61
6.95
4.97
2.68
0.22
-2.21
-4.48
-6.57
-8.65
-10.92
-13.59
-16.76
-20.46
-24.63
-29.07
-33.40
-37.07
-39.32
-39.39
-36.80
-31.55
-24.21
-15.77
-7.34
0.13
6.12
10.50
13.43
15.17
15.88
15.69
14.72
13.20
11.54
10.21
9.65
10.02
11.25
12.96
14.73
16.17
17.02
17.20
16.75
15.79
14.43
12.71
10.67
8.27
5.50
2.44
-0.73
-3.75
-6.40
-8.54
-10.25
-11.73
-13.28
-15.16
-17.56
-20.57
-24.17
-28.15
-32.08
-35.31
-37.07
-36.66
-33.72
-28.32
-21.02
-12.70
-4.31
3.38
9.83
14.82
18.33
20.45
21.30
21.03
19.89
18.20
16.38
14.86
14.00
13.94
14.59
15.63
16.70
17.45
17.68
17.35
16.54
15.40
14.03
12.48
10.72
8.71
6.46
4.08
1.76
-0.30
-1.95
-3.21
-4.27
-5.47
-7.13
-9.52
-12.79
-16.89
-21.54
-26.26
-30.32
-32.91
-33.33
-31.26
-26.81
-20.56
-13.28
-5.79
1.27
7.45
12.48
16.14
18.29
18.91
18.17
16.47
14.36
12.44
11.14
10.67
10.96
11.77
12.79
13.76
14.56
15.17
15.58
15.78
15.70
15.24
14.27
12.70
10.55
7.91
4.93
1.89
-0.97
-3.44
-5.49
-7.20
-8.81
-10.57
-12.77
-15.53
-18.88
-22.62
-26.33
-29.38
-31.06
-30.74
-28.12
-23.36
-17.04
-10.01
-3.10
3.08
8.19
12.12
14.83
16.27
16.46
15.53
13.86
11.99
10.51
9.81
10.00
10.90
12.19
13.53
14.69
15.55
16.11
16.32
16.20
15.70
14.79
13.42
11.54
9.16
6.30
3.06
-0.38
-3.81
-6.98
-9.71
-11.86
-13.49
-14.82
-16.23
-18.15
-20.89
-24.52
-28.71
-32.82
-35.92
-37.13
-35.81
-31.76
-25.37
-17.47
-9.09
-1.23
5.42
10.58
14.25
16.63
17.91
18.23
17.70
16.49
14.89
13.28
12.04
11.44
11.61
12.48
13.82
15.31
16.58
17.36
17.45
16.83
15.60
13.95
12.10
10.23
8.46
6.84
5.30
3.72
1.95
-0.12
-2.48
-5.02
-7.56
-9.96
-12.18
-14.40
-16.90
-20.00
-23.76
-27.91
-31.75
-34.34
-34.76
-32.52
-27.67
-20.84
-13.04
-5.29
1.60
7.21
11.43
14.33
16.01
16.57
16.12
14.87
13.20
11.56
10.45
10.23
11.03
12.65
14.70
16.67
18.12
18.81
18.73
18.05
16.95
15.58
14.01
12.29
10.44
8.47
6.37
4.14
1.83
-0.44
-2.49
-4.24
-5.71
-7.14
-8.85
-11.14
-14.14
-17.78
-21.82
-25.85
-29.33
-31.63
-32.12
-30.28
-26.01
-19.67
-12.05
-4.15
3.15
9.24
13.82
16.86
18.37
18.46
17.36
15.46
13.32
11.47
10.32
10.01
10.45
11.37
12.51
13.61
14.49
15.04
15.20
14.98
14.43
13.68
12.77
11.67
10.24
8.32
5.81
2.83
-0.35
-3.34
-5.83
-7.71
-9.10
-10.32
-11.75
-13.67
-16.22
-19.29
-22.60
-25.67
-27.94
-28.86
-27.91
-24.85
-19.70
-12.90
-5.16
2.61
9.52
14.88
18.31
19.81
19.62
18.13
15.81
13.10
10.49
8.43
7.31
7.30
8.25
9.74
11.17
12.07
12.20
11.68
10.79
9.82
8.89
7.95
6.81
5.32
3.42
1.16
-1.34
-3.88
-6.31
-8.48
-10.33
-11.89
-13.34
-14.92
-16.91
-19.51
-22.69
-26.15
-29.31
-31.39
-31.71
-29.80
-25.62
-19.55
-12.33
-4.83
2.10
7.84
12.07
14.71
15.86
15.73
14.62
12.90
11.01
9.41
8.50
8.47
9.22
10.45
11.73
12.68
13.11
13.06
12.69
12.17
11.57
10.87
9.96
8.70
6.96
4.66
1.84
-1.29
-4.43
-7.19
-9.34
-10.84
-11.90
-12.92
-14.35
-16.53
-19.61
-23.44
-27.55
-31.22
-33.56
-33.74
-31.31
-26.28
-19.25
-11.18
-3.12
4.08
9.90
14.13
16.80
18.02
17.95
16.81
14.94
12.81
10.94
9.77
9.57
10.30
11.66
13.21
14.44
14.99
14.74
13.81
12.48
11.06
9.74
8.56
7.36
5.98
4.28
2.23
-0.12
-2.65
-5.22
-7.73
-10.08
-12.25
-14.31
-16.41
-18.79
-21.61
-24.85
-28.21
-31.10
-32.76
-32.46
-29.77
-24.71
-17.74
-9.74
-1.69
5.54
11.38
15.60
18.18
19.29
19.14
17.97
16.14
14.09
12.24
11.00
10.58
10.96
11.91
13.09
14.17
14.87
15.07
14.81
14.24
13.48
12.63
11.61
10.22
8.34
5.94
3.25
0.64
-1.59
-3.37
-4.90
-6.54
-8.67
-11.51
-15.06
-19.19
-23.60
-27.83
-31.27
-33.19
-32.93
-30.14
-24.91
-17.86
-9.93
-2.06
4.95
10.63
14.74
17.25
18.18
17.67
15.97
13.46
10.66
8.10
6.26
5.37
5.44
6.21
7.27
8.27
9.01
9.48
9.72
9.78
9.59
8.90
7.49
5.24
2.30
-0.95
-3.99
-6.40
-8.04
-9.08
-10.00
-11.35
-13.59
-16.91
-21.13
-25.75
-30.06
-33.20
-34.42
-33.23
-29.49
-23.57
-16.23
-8.45
-1.17
4.95
9.59
12.77
14.66
15.45
15.29
14.37
12.99
11.54
10.48
10.15
10.67
11.82
13.19
14.28
14.80
14.65
14.02
13.19
12.42
11.76
11.06
10.01
8.33
5.92
2.86
-0.53
-3.88
-6.92
-9.52
-11.75
-13.84
-16.05
-18.67
-21.90
-25.78
-29.99
-33.93
-36.68
-37.33
-35.27
-30.40
-23.26
-14.84
-6.30
1.40
7.64
12.26
15.42
17.40
18.49
18.87
18.65
17.94
16.94
15.92
15.20
14.97
15.24
15.83
16.44
16.79
16.76
16.41
15.90
15.37
14.78
13.95
12.64
10.64
7.97
4.88
1.72
-1.12
-3.46
-5.29
-6.82
-8.32
-10.09
-12.31
-15.10
-18.50
-22.37
-26.42
-30.05
-32.45
-32.80
-30.50
-25.49
-18.33
-10.05
-1.84
5.29
10.76
14.44
16.57
17.48
17.50
16.90
15.96
15.01
14.38
14.35
14.97
16.03
17.16
17.96
18.23
18.00
17.51
17.02
16.66
16.33
15.79
14.77
13.12
10.91
8.35
5.69
3.08
0.54
-2.02
-4.73
-7.71
-11.08
-14.89
-19.14
-23.61
-27.78
-30.89
-32.08
-30.69
-26.56
-20.16
-12.48
-4.67
2.34
8.05
12.34
15.31
17.06
17.62
16.99
15.34
13.10
10.88
9.31
8.76
9.23
10.38
11.70
12.71
13.19
13.19
12.90
12.52
12.08
11.42
10.29
8.44
5.84
2.69
-0.63
-3.75
-6.44
-8.67
-10.58
-12.42
-14.50
-17.09
-20.41
-24.50
-29.09
-33.52
-36.81
-37.94
-36.20
-31.47
-24.32
-15.80
-7.09
0.84
7.44
12.54
16.24
18.69
19.99
20.27
19.70
18.56
17.24
16.17
15.69
15.90
16.69
17.67
18.40
18.55
18.02
16.94
15.65
14.41
13.34
12.29
10.97
9.14
6.72
3.92
1.08
-1.46
-3.57
-5.35
-7.10
-9.16
-11.81
-15.19
-19.29
-23.93
-28.70
-32.99
-35.99
-36.90
-35.17
-30.67
-23.86
-15.65
-7.13
0.72
7.28
12.32
15.94
18.33
19.64
19.97
19.45
18.30
16.90
15.71
15.08
15.12
15.71
16.49
17.16
17.48
17.43
17.06
16.47
15.72
14.85
13.82
12.59
11.12
9.35
7.29
5.01
2.66
0.43
-1.53
-3.21
-4.77
-6.49
-8.74
-11.74
-15.55
-20.02
-24.72
-29.05
-32.30
-33.77
-32.95
-29.64
-24.01
-16.62
-8.31
-0.06
7.25
13.00
16.91
19.06
19.71
19.24
17.97
16.23
14.36
12.75
11.75
11.59
12.27
13.51
14.87
15.95
16.52
16.52
16.06
15.26
14.18
12.82
11.16
9.24
7.12
4.92
2.76
0.75
-1.07
-2.70
-4.26
-5.95
-8.07
-10.83
-14.29
-18.22
-22.04
-24.99
-26.33
-25.51
-22.41
-17.35
-10.98
-4.12
2.46
8.17
12.67
15.75
17.41
17.71
16.83
15.02
12.67
10.25
8.24
7.01
6.68
7.16
8.10
9.12
9.91
10.33
10.43
10.31
10.03
9.47
8.47
6.85
4.64
2.07
-0.53
-2.82
-4.67
-6.22
-7.74
-9.64
-12.22
-15.62
-19.70
-24.08
-28.13
-31.01
-31.98
-30.54
-26.63
-20.72
-13.63
-6.30
0.50
6.30
10.90
14.28
16.40
17.21
16.72
15.11
12.82
10.46
8.62
7.62
7.44
7.79
8.25
8.53
8.56
8.42
8.30
8.24
8.10
7.62
6.53
4.71
2.24
-0.60
-3.44
-5.99
-8.12
-9.90
-11.50
-13.18
-15.25
-17.97
-21.48
-25.68
-30.09
-33.94
-36.21
-36.05
-33.08
-27.49
-20.05
-11.82
-3.80
3.26
8.96
13.14
15.82
17.08
17.12
16.27
14.96
13.66
12.74
12.37
12.54
13.05
13.67
14.22
14.63
14.88
14.96
14.82
14.34
13.42
11.96
9.94
7.43
4.53
1.43
-1.66
-4.51
-6.97
-8.99
-10.72
-12.48
-14.67
-17.60
-21.38
-25.71
-29.92
-33.08
-34.28
-32.86
-28.73
-22.36
-14.69
-6.76
0.48
6.44
10.89
13.82
15.36
15.70
15.07
13.81
12.38
11.20
10.63
10.76
11.44
12.36
13.15
13.55
13.49
13.10
12.60
12.21
11.97
11.72
11.12
9.82
7.62
4.67
1.35
-1.82
-4.41
-6.31
-7.67
-8.85
-10.26
-12.18
-14.71
-17.78
-21.18
-24.55
-27.43
-29.27
-29.55
-27.88
-24.17
-18.69
-12.03
-5.01
1.54
6.94
10.76
12.92
13.59
13.13
11.93
10.42
8.90
7.65
6.88
6.73
7.23
8.24
9.49
10.62
11.35
11.48
11.00
10.05
8.73
7.15
5.31
3.23
0.93
-1.45
-3.72
-5.69
-7.24
-8.36
-9.21
-10.06
-11.23
-12.99
-15.45
-18.43
-21.45
-23.83
-24.86
-23.97
-20.97
-16.12
-10.05
-3.58
2.48
7.57
11.41
13.99
15.40
15.75
15.14
13.73
11.79
9.78
8.18
7.36
7.44
8.19
9.23
10.14
10.66
10.73
10.40
9.80
8.97
7.89
6.52
4.80
2.78
0.53
-1.78
-4.00
-5.98
-7.61
-8.92
-10.06
-11.31
-13.01
-15.46
-18.72
-22.48
-26.15
-28.89
-29.92
-28.66
-25.00
-19.28
-12.19
-4.59
2.63
8.77
13.38
16.24
17.38
17.06
15.68
13.71
11.64
9.87
8.65
8.10
8.23
8.93
10.03
11.28
12.39
13.09
13.18
12.63
11.52
10.01
8.23
6.24
4.02
1.53
-1.23
-4.13
-6.88
-9.26
-11.11
-12.50
-13.73
-15.21
-17.32
-20.22
-23.76
-27.48
-30.73
-32.83
-33.20
-31.54
-27.87
-22.47
-15.83
-8.60
-1.42
5.12
10.55
14.59
17.15
18.34
18.39
17.63
16.38
14.94
13.58
12.54
11.93
11.83
12.13
12.62
13.09
13.34
13.28
12.90
12.24
11.37
10.30
9.05
7.62
5.96
4.04
1.89
-0.42
-2.73
-4.83
-6.57
-7.97
-9.22
-10.71
-12.83
-15.82
-19.64
-23.89
-27.92
-30.93
-32.19
-31.19
-27.84
-22.43
-15.63
-8.33
-1.42
4.41
8.78
11.66
13.26
13.89
13.87
13.40
12.66
11.83
11.15
10.89
11.27
12.30
13.77
15.24
16.28
16.62
16.27
15.52
14.64
13.81
12.96
11.86
10.28
8.12
5.50
2.67
-0.09
-2.59
-4.69
-6.42
-7.83
-9.04
-10.27
-11.80
-13.96
-16.93
-20.66
-24.75
-28.46
-30.91
-31.29
-29.15
-24.57
-18.15
-10.81
-3.55
2.86
7.97
11.64
13.94
15.00
14.99
14.08
12.59
10.86
9.34
8.35
8.09
8.51
9.40
10.56
11.76
12.89
13.89
14.68
15.17
15.27
14.84
13.80
12.19
10.08
7.65
5.09
2.62
0.34
-1.71
-3.56
-5.27
-6.85
-8.37
-9.86
-11.46
-13.33
-15.68
-18.61
-22.03
-25.64
-28.86
-30.93
-31.11
-28.89
-24.26
-17.73
-10.22
-2.78
3.74
8.89
12.61
15.07
16.42
16.75
16.09
14.61
12.63
10.67
9.27
8.75
9.15
10.23
11.60
12.86
13.80
14.33
14.44
14.16
13.50
12.46
11.04
9.27
7.21
4.96
2.61
0.28
-1.92
-3.88
-5.55
-6.93
-8.13
-9.28
-10.63
-12.42
-14.86
-18.01
-21.66
-25.24
-27.94
-28.90
-27.49
-23.60
-17.68
-10.60
-3.36
3.19
8.55
12.51
15.08
16.34
16.41
15.51
13.93
12.03
10.22
8.82
8.03
7.90
8.31
9.07
9.87
10.47
10.65
10.39
9.80
9.06
8.31
7.52
6.57
5.21
3.36
1.08
-1.35
-3.64
-5.57
-7.11
-8.42
-9.72
-11.23
-13.10
-15.47
-18.44
-22.02
-26.05
-30.07
-33.33
-34.94
-34.18
-30.78
-25.04
-17.77
-10.01
-2.72
3.45
8.20
11.52
13.56
14.51
14.57
13.96
12.96
11.89
11.11
10.91
11.47
12.72
14.37
16.01
17.22
17.72
17.49
16.69
15.62
14.51
13.43
12.31
10.96
9.20
6.98
4.39
1.62
-1.07
-3.49
-5.51
-7.15
-8.52
-9.86
-11.49
-13.72
-16.78
-20.69
-25.16
-29.54
-32.94
-34.45
-33.38
-29.55
-23.35
-15.67
-7.61
-0.20
5.89
10.37
13.28
14.82
15.20
14.67
13.51
12.09
10.83
10.06
9.93
10.37
11.10
11.86
12.48
12.95
13.31
13.61
13.77
13.66
13.12
12.11
10.67
8.91
6.95
4.81
2.50
0.03
-2.51
-4.91
-6.95
-8.52
-9.64
-10.58
-11.75
-13.57
-16.33
-20.02
-24.28
-28.36
-31.29
-32.20
-30.52
-26.22
-19.83
-12.28
-4.58
2.40
8.14
12.41
15.26
16.87
17.52
17.48
17.07
16.54
16.02
15.55
15.10
14.62
14.13
13.70
13.46
13.47
13.72
14.04
14.19
13.86
12.88
11.18
8.91
6.36
3.79
1.44
-0.61
-2.38
-3.90
-5.21
-6.39
-7.57
-8.95
-10.77
-13.23
-16.39
-20.11
-24.06
-27.71
-30.38
-31.40
-30.28
-26.85
-21.44
-14.76
-7.70
-1.09
4.50
8.83
11.87
13.69
14.35
13.99
12.86
11.41
10.12
9.42
9.48
10.20
11.25
12.26
12.97
13.26
13.19
12.89
12.46
11.91
11.21
10.21
8.80
6.91
4.57
1.98
-0.59
-2.88
-4.75
-6.24
-7.53
-8.85
-10.40
-12.32
-14.70
-17.53
-20.70
-23.80
-26.16
-27.04
-25.76
-22.07
-16.31
-9.24
-1.84
5.01
10.69
14.94
17.66
18.92
18.80
17.52
15.42
13.01
10.80
9.31
8.76
9.13
10.12
11.27
12.12
12.39
12.01
11.14
10.03
8.81
7.45
5.81
3.70
1.08
-1.87
-4.84
-7.43
-9.41
-10.81
-11.89
-13.06
-14.73
-17.19
-20.47
-24.37
-28.46
-32.11
-34.61
-35.29
-33.71
-29.83
-24.03
-16.98
-9.48
-2.25
4.20
9.53
13.51
15.97
16.85
16.32
14.78
12.82
11.07
9.99
9.81
10.51
11.85
13.44
14.90
15.88
16.21
15.93
15.24
14.37
13.41
12.24
10.62
8.39
5.56
2.43
-0.60
-3.17
-5.19
-6.80
-8.33
-10.15
-12.55
-15.71
-19.65
-24.22
-28.98
-33.24
-36.13
-36.83
-34.85
-30.20
-23.43
-15.44
-7.23
0.41
6.93
12.17
16.05
18.57
19.72
19.58
18.39
16.63
14.92
13.84
13.74
14.59
16.03
17.58
18.82
19.61
19.98
20.08
20.01
19.71
19.04
17.89
16.21
14.09
11.66
9.05
6.37
3.70
1.08
-1.42
-3.82
-6.22
-8.84
-11.92
-15.65
-20.09
-25.03
-30.04
-34.41
-37.33
-38.03
-36.07
-31.48
-24.76
-16.77
-8.46
-0.66
6.11
11.51
15.43
17.88
18.92
18.74
17.69
16.21
14.84
14.03
14.11
15.14
16.87
18.88
20.66
21.82
22.19
21.88
21.09
20.08
18.96
17.76
16.33
14.59
12.47
10.00
7.34
4.65
2.09
-0.24
-2.35
-4.29
-6.16
-8.08
-10.25
-12.91
-16.29
-20.51
-25.25
-29.79
-33.06
-34.00
-32.01
-27.12
-20.13
-12.20
-4.51
2.12
7.32
11.10
13.58
14.94
15.30
14.86
13.92
12.88
12.11
11.89
12.29
13.19
14.36
15.54
16.59
17.42
18.07
18.56
18.84
18.82
18.29
17.08
15.08
12.34
9.06
5.60
2.36
-0.34
-2.33
-3.73
-4.88
-6.22
-8.15
-10.88
-14.36
-18.34
-22.39
-25.99
-28.57
-29.52
-28.35
-24.83
-19.18
-12.04
-4.38
2.85
8.96
13.62
16.77
18.53
19.02
18.41
16.95
15.03
13.08
11.56
10.76
10.81
11.67
13.11
14.83
16.46
17.59
17.92
17.36
16.01
14.15
12.00
9.69
7.22
4.49
1.52
-1.59
-4.57
-7.17
-9.23
-10.81
-12.15
-13.70
-15.87
-18.95
-22.95
-27.54
-32.03
-35.52
-37.09
-36.09
-32.30
-26.09
-18.24
-9.80
-1.77
5.11
10.43
14.12
16.32
17.24
17.11
16.17
14.72
13.19
12.02
11.64
12.22
13.67
15.60
17.47
18.78
19.25
18.89
17.91
16.57
15.07
13.43
11.58
9.37
6.71
3.62
0.25
-3.11
-6.10
-8.45
-10.08
-11.17
-12.14
-13.53
-15.76
-19.02
-23.15
-27.63
-31.76
-34.74
-35.86
-34.62
-30.87
-24.90
-17.38
-9.25
-1.46
5.25
10.45
14.07
16.31
17.44
17.77
17.53
16.95
16.25
15.70
15.48
15.72
16.41
17.37
18.38
19.19
19.67
19.78
19.58
19.13
18.42
17.36
15.86
13.91
11.61
9.11
6.57
4.06
1.56
-1.02
-3.70
-6.45
-9.21
-11.97
-14.81
-17.92
-21.46
-25.47
-29.67
-33.57
-36.47
-37.70
-36.72
-33.31
-27.60
-20.11
-11.62
-3.06
4.66
10.87
15.20
17.63
18.44
18.05
16.93
15.51
14.17
13.23
12.95
13.44
14.65
16.35
18.20
19.81
20.92
21.38
21.24
20.64
19.74
18.66
17.37
15.78
13.77
11.31
8.48
5.54
2.72
0.19
-2.01
-4.01
-5.97
-8.06
-10.38
-13.03
-16.14
-19.78
-23.88
-28.12
-31.88
-34.30
-34.58
-32.21
-27.15
-19.92
-11.41
-2.72
5.15
11.44
15.81
18.24
19.02
18.55
17.25
15.51
13.66
11.98
10.78
10.24
10.43
11.24
12.36
13.46
14.30
14.76
14.89
14.79
14.52
14.00
13.11
11.67
9.61
6.98
3.94
0.73
-2.39
-5.19
-7.52
-9.36
-10.90
-12.48
-14.50
-17.26
-20.74
-24.57
-28.02
-30.26
-30.61
-28.70
-24.61
-18.79
-11.90
-4.70
2.13
8.06
12.71
15.88
17.52
17.68
16.57
14.53
12.04
9.65
7.85
6.98
7.11
8.02
9.35
10.72
11.90
12.83
13.56
14.10
14.38
14.18
13.25
11.43
8.73
5.36
1.62
-2.17
-5.78
-9.05
-11.94
-14.45
-16.64
-18.69
-20.88
-23.60
-27.09
-31.32
-35.79
-39.64
-41.82
-41.53
-38.43
-32.76
-25.25
-16.83
-8.36
-0.51
6.25
11.68
15.61
17.97
18.84
18.41
17.04
15.19
13.34
11.95
11.32
11.51
12.34
13.44
14.42
14.99
15.06
14.71
14.10
13.35
12.44
11.29
9.76
7.76
5.36
2.65
-0.15
-2.89
-5.40
-7.64
-9.67
-11.60
-13.60
-15.81
-18.40
-21.49
-25.13
-29.16
-33.15
-36.36
-37.90
-37.01
-33.40
-27.32
-19.58
-11.20
-3.18
3.81
9.40
13.55
16.28
17.70
17.98
17.37
16.21
14.93
13.92
13.48
13.68
14.41
15.36
16.15
16.52
16.39
15.89
15.29
14.80
14.44
14.02
13.30
12.06
10.25
8.02
5.59
3.18
0.89
-1.29
-3.44
-5.61
-7.82
-10.09
-12.53
-15.38
-18.93
-23.30
-28.24
-33.03
-36.58
-37.78
-35.95
-31.06
-23.84
-15.44
-7.04
0.46
6.59
11.31
14.70
16.91
17.98
17.97
17.06
15.59
14.05
12.98
12.72
13.32
14.56
16.01
17.28
18.12
18.48
18.46
18.15
17.57
16.63
15.25
13.37
11.02
8.31
5.39
2.47
-0.29
-2.76
-4.94
-6.90
-8.81
-10.87
-13.28
-16.15
-19.49
-23.24
-27.10
-30.62
-33.17
-34.04
-32.66
-28.80
-22.69
-15.01
-6.71
1.21
8.01
13.24
16.76
18.66
19.15
18.49
17.05
15.21
13.44
12.12
11.52
11.68
12.44
13.50
14.48
15.04
15.05
14.57
13.77
12.86
11.98
11.07
9.94
8.37
6.30
3.85
1.34
-0.90
-2.67
-4.01
-5.20
-6.63
-8.68
-11.58
-15.34
-19.76
-24.40
-28.61
-31.60
-32.60
-31.12
-27.08
-20.90
-13.39
-5.55
1.75
7.86
12.48
15.53
17.10
17.31
16.35
14.54
12.37
10.41
9.17
8.94
9.67
11.02
12.50
13.68
14.34
14.51
14.36
14.05
13.62
12.95
11.85
10.16
7.81
4.86
1.47
-2.12
-5.58
-8.58
-10.83
-12.26
-13.05
-13.68
-14.79
-16.92
-20.31
-24.72
-29.43
-33.45
-35.79
-35.75
-33.08
-28.09
-21.41
-13.94
-6.50
0.20
5.71
9.83
12.55
13.98
14.34
13.92
13.06
12.08
11.30
10.90
10.98
11.52
12.43
13.52
14.58
15.44
15.93
16.00
15.63
14.89
13.81
12.43
10.76
8.83
6.62
4.17
1.54
-1.16
-3.80
-6.25
-8.43
-10.39
-12.28
-14.39
-16.99
-20.30
-24.28
-28.60
-32.58
-35.38
-36.19
-34.49
-30.23
-23.89
-16.27
-8.30
-0.81
5.64
10.71
14.29
16.37
17.03
16.51
15.20
13.64
12.36
11.76
12.01
13.01
14.48
16.05
17.35
18.09
18.21
17.79
17.07
16.28
15.58
14.93
14.11
12.89
11.11
8.80
6.14
3.40
0.78
-1.67
-4.02
-6.36
-8.79
-11.37
-14.20
-17.43
-21.15
-25.28
-29.44
-32.90
-34.73
-34.13
-30.74
-24.79
-17.09
-8.69
-0.61
6.39
11.96
15.98
18.49
19.61
19.50
18.43
16.80
15.07
13.65
12.79
12.54
12.77
13.22
13.69
13.99
14.07
13.88
13.48
12.95
12.41
11.93
11.51
11.04
10.25
8.91
6.91
4.36
1.62
-0.89
-2.89
-4.36
-5.60
-7.11
-9.32
-12.49
-16.54
-21.13
-25.69
-29.52
-31.90
-32.17
-29.93
-25.21
-18.51
-10.74
-2.94
3.95
9.38
13.15
15.37
16.25
16.01
14.90
13.25
11.45
9.92
9.03
8.90
9.44
10.38
11.39
12.21
12.76
13.10
13.30
13.39
13.25
12.64
11.35
9.31
6.64
3.67
0.75
-1.83
-3.95
-5.59
-6.90
-8.02
-9.17
-10.63
-12.66
-15.44
-18.92
-22.75
-26.28
-28.74
-29.38
-27.76
-23.82
-17.95
-10.89
-3.54
3.24
8.80
12.80
15.16
15.99
15.52
14.01
11.78
9.28
6.97
5.38
4.83
5.38
6.76
8.46
9.93
10.84
11.12
10.93
10.50
9.92
9.18
8.08
6.53
4.55
2.25
-0.16
-2.57
-4.93
-7.26
-9.60
-11.93
-14.24
-16.54
-18.97
-21.74
-24.99
-28.63
-32.21
-34.96
-35.98
-34.60
-30.56
-24.20
-16.35
-8.08
-0.35
6.18
11.16
14.54
16.43
17.01
16.51
15.26
13.65
12.12
11.02
10.56
10.77
11.46
12.38
13.25
13.84
14.04
13.78
13.05
11.92
10.41
8.61
6.61
4.47
2.27
0.07
-2.10
-4.21
-6.22
-8.08
-9.79
-11.39
-13.04
-14.95
-17.38
-20.48
-24.24
-28.34
-32.16
-34.88
-35.71
-34.09
-29.91
-23.58
-15.87
-7.75
-0.06
6.59
11.93
15.89
18.52
19.90
20.09
19.22
17.59
15.64
13.87
12.72
12.40
12.80
13.60
14.42
14.99
15.26
15.32
15.27
15.12
14.71
13.81
12.30
10.22
7.77
5.17
2.63
0.27
-1.88
-3.82
-5.60
-7.37
-9.32
-11.72
-14.80
-18.60
-22.96
-27.42
-31.35
-34.05
-34.87
-33.35
-29.43
-23.37
-15.85
-7.71
0.15
7.01
12.38
16.07
18.05
18.47
17.57
15.69
13.27
10.80
8.78
7.60
7.47
8.35
9.93
11.74
13.32
14.37
14.79
14.72
14.33
13.68
12.68
11.12
8.88
6.03
2.91
-0.06
-2.53
-4.41
-5.92
-7.45
-9.42
-12.14
-15.70
-19.94
-24.55
-29.02
-32.70
-34.91
-34.98
-32.54
-27.58
-20.62
-12.48
-4.23
3.22
9.20
13.40
15.80
16.62
16.18
14.87
13.05
11.16
9.57
8.60
8.43
9.03
10.20
11.59
12.85
13.64
13.81
13.33
12.31
10.91
9.22
7.23
4.89
2.22
-0.67
-3.51
-5.98
-7.89
-9.29
-10.49
-12.00
-14.33
-17.71
-22.11
-27.06
-31.85
-35.61
-37.52
-37.04
-34.02
-28.69
-21.63
-13.61
-5.42
2.28
8.93
14.15
17.75
19.69
20.10
19.25
17.51
15.36
13.27
11.71
11.01
11.25
12.23
13.48
14.55
15.10
15.08
14.66
14.04
13.25
12.10
10.33
7.82
4.68
1.32
-1.81
-4.39
-6.39
-8.04
-9.73
-11.89
-14.79
-18.51
-22.94
-27.73
-32.29
-35.91
-37.78
-37.31
-34.20
-28.63
-21.17
-12.67
-4.05
3.95
10.77
16.09
19.76
21.77
22.23
21.45
19.90
18.17
16.82
16.22
16.43
17.25
18.28
19.15
19.57
19.50
19.05
18.39
17.66
16.84
15.82
14.42
12.48
9.96
6.96
3.64
0.22
-3.14
-6.27
-9.10
-11.66
-14.11
-16.74
-19.88
-23.68
-27.96
-32.16
-35.34
-36.57
-35.11
-30.78
-23.96
-15.49
-6.45
2.17
9.67
15.64
19.98
22.70
23.91
23.74
22.43
20.35
18.05
16.20
15.36
15.82
17.41
19.59
21.65
23.00
23.42
23.00
22.08
20.99
19.87
18.61
16.98
14.79
12.04
8.91
5.70
2.73
0.19
-1.88
-3.61
-5.23
-7.01
-9.22
-12.10
-15.79
-20.34
-25.51
-30.68
-34.90
-37.05
-36.27
-32.21
-25.29
-16.56
-7.35
1.16
8.20
13.49
17.08
19.12
19.79
19.24
17.75
15.75
13.77
12.36
11.80
12.16
13.16
14.40
15.48
16.15
16.36
16.25
15.96
15.50
14.76
13.53
11.62
9.03
5.94
2.69
-0.38
-3.06
-5.33
-7.29
-9.12
-10.97
-13.01
-15.45
-18.50
-22.29
-26.63
-30.93
-34.23
-35.43
-33.68
-28.74
-21.13
-11.95
-2.53
5.93
12.69
17.49
20.39
21.61
21.38
19.97
17.70
15.07
12.62
10.94
10.35
10.90
12.32
14.08
15.65
16.63
16.86
16.44
15.60
14.54
13.33
11.85
9.91
7.36
4.24
0.76
-2.72
-5.85
-8.47
-10.56
-12.30
-13.95
-15.85
-18.32
-21.61
-25.78
-30.57
-35.37
-39.26
-41.25
-40.56
-36.85
-30.37
-21.87
-12.39
-3.02
5.30
12.02
16.88
19.94
21.43
21.66
20.91
19.47
17.69
15.93
14.60
14.02
14.29
15.25
16.53
17.65
18.27
18.25
17.67
16.75
15.73
14.69
13.61
12.35
10.76
8.71
6.22
3.40
0.45
-2.41
-5.05
-7.44
-9.68
-11.99
-14.66
-17.91
-21.83
-26.32
-30.98
-35.12
-37.82
-38.18
-35.52
-29.72
-21.32
-11.45
-1.51
7.21
13.92
18.39
20.92
21.94
21.88
21.02
19.59
17.89
16.33
15.32
15.12
15.68
16.61
17.40
17.59
17.02
15.81
14.32
12.91
11.82
11.08
10.47
9.68
8.38
6.40
3.79
0.81
-2.15
-4.77
-6.91
-8.68
-10.41
-12.51
-15.31
-18.90
-23.03
-27.12
-30.39
-32.00
-31.36
-28.21
-22.74
-15.58
-7.57
0.35
7.33
12.78
16.37
18.08
18.15
16.98
15.04
12.86
10.85
9.36
8.59
8.58
9.23
10.34
11.63
12.79
13.56
13.79
13.40
12.46
11.09
9.38
7.44
5.29
2.94
0.43
-2.13
-4.60
-6.87
-8.96
-11.06
-13.52
-16.64
-20.52
-24.92
-29.18
-32.48
-33.98
-33.09
-29.64
-23.90
-16.47
-8.16
0.17
7.67
13.57
17.33
18.69
17.86
15.46
12.32
9.29
6.97
5.66
5.33
5.80
6.78
7.97
9.07
9.83
10.07
9.77
9.04
8.02
6.83
5.47
3.80
1.74
-0.73
-3.47
-6.23
-8.75
-10.87
-12.65
-14.32
-16.27
-18.87
-22.38
-26.60
-30.94
-34.37
-35.85
-34.62
-30.57
-24.15
-16.34
-8.23
-0.75
5.52
10.28
13.49
15.17
15.48
14.64
13.06
11.22
9.60
8.53
8.14
8.36
8.98
9.75
10.47
11.01
11.31
11.39
11.25
10.89
10.28
9.28
7.79
5.73
3.16
0.31
-2.52
-4.98
-6.92
-8.38
-9.64
-11.12
-13.22
-16.20
-20.12
-24.74
-29.54
-33.75
-36.43
-36.78
-34.32
-29.11
-21.72
-13.09
-4.25
3.92
10.80
16.08
19.58
21.31
21.35
20.00
17.74
15.23
13.13
11.97
11.97
12.95
14.46
15.89
16.75
16.76
15.96
14.63
13.08
11.59
10.25
8.95
7.50
5.70
3.47
0.93
-1.65
-3.97
-5.84
-7.33
-8.66
-10.14
-12.03
-14.46
-17.47
-20.98
-24.87
-28.84
-32.30
-34.47
-34.48
-31.78
-26.38
-18.99
-10.76
-2.85
3.86
9.07
12.85
15.42
16.90
17.31
16.66
15.11
13.10
11.21
9.96
9.67
10.29
11.49
12.81
13.88
14.47
14.59
14.33
13.79
13.05
12.08
10.83
9.26
7.40
5.36
3.26
1.20
-0.74
-2.57
-4.29
-5.92
-7.54
-9.27
-11.36
-14.03
-17.40
-21.36
-25.49
-29.10
-31.36
-31.55
-29.26
-24.51
-17.87
-10.22
-2.62
4.06
9.27
12.83
14.85
15.58
15.25
14.11
12.47
10.70
9.23
8.39
8.31
8.93
10.05
11.38
12.72
13.90
14.77
15.29
15.38
15.02
14.24
13.03
11.34
9.10
6.36
3.32
0.31
-2.27
-4.18
-5.46
-6.42
-7.54
-9.19
-11.58
-14.63
-18.09
-21.53
-24.46
-26.32
-26.62
-25.04
-21.51
-16.34
-10.10
-3.48
2.88
8.48
13.00
16.19
17.89
18.02
16.65
14.15
11.12
8.33
6.38
5.63
6.03
7.17
8.57
9.78
10.60
11.05
11.25
11.27
11.06
10.43
9.21
7.34
4.98
2.43
-0.01
-2.13
-3.96
-5.64
-7.38
-9.38
-11.72
-14.46
-17.61
-21.11
-24.72
-27.97
-30.15
-30.56
-28.71
-24.54
-18.48
-11.26
-3.78
3.22
9.19
13.75
16.73
18.01
17.67
15.94
13.27
10.24
7.50
5.55
4.66
4.83
5.73
6.92
7.95
8.56
8.75
8.71
8.68
8.75
8.80
8.50
7.50
5.60
2.88
-0.30
-3.45
-6.11
-8.08
-9.41
-10.48
-11.76
-13.67
-16.50
-20.21
-24.48
-28.75
-32.26
-34.27
-34.12
-31.49
-26.46
-19.57
-11.71
-3.83
3.25
9.06
13.47
16.52
18.32
18.94
18.43
17.01
15.04
13.07
11.60
10.97
11.10
11.68
12.25
12.44
12.11
11.39
10.55
9.81
9.24
8.73
8.03
6.89
5.19
2.96
0.36
-2.36
-5.02
-7.48
-9.73
-11.86
-14.06
-16.58
-19.60
-23.21
-27.20
-31.04
-33.97
-35.15
-33.94
-30.10
-23.89
-16.06
-7.62
0.39
7.19
12.34
15.79
17.77
18.60
18.56
17.91
16.83
15.58
14.47
13.83
13.87
14.55
15.64
16.75
17.51
17.73
17.39
16.64
15.63
14.46
13.11
11.52
9.65
7.51
5.19
2.79
0.44
-1.73
-3.68
-5.41
-7.01
-8.69
-10.70
-13.32
-16.69
-20.79
-25.28
-29.53
-32.71
-34.00
-32.81
-28.99
-22.91
-15.39
-7.41
0.11
6.53
11.57
15.11
17.13
17.65
16.79
14.88
12.47
10.28
8.92
8.69
9.50
10.92
12.44
13.66
14.44
14.83
14.97
14.93
14.62
13.91
12.60
10.63
8.06
5.11
2.08
-0.74
-3.17
-5.18
-6.92
-8.65
-10.73
-13.45
-17.00
-21.28
-25.86
-30.02
-32.84
-33.48
-31.48
-26.90
-20.32
-12.73
-5.13
1.66
7.16
11.21
13.84
15.11
15.16
14.11
12.27
10.12
8.19
7.00
6.80
7.48
8.74
10.12
11.30
12.09
12.51
12.62
12.43
11.85
10.78
9.16
7.01
4.42
1.51
-1.57
-4.66
-7.58
-10.24
-12.66
-15.03
-17.72
-21.04
-25.15
-29.81
-34.40
-37.99
-39.69
-38.81
-35.22
-29.28
-21.75
-13.57
-5.58
1.58
7.51
11.97
14.83
16.08
15.91
14.74
13.19
11.89
11.30
11.62
12.73
14.29
15.92
17.27
18.13
18.41
18.14
17.43
16.40
15.13
13.63
11.83
9.62
6.98
3.98
0.90
-2.00
-4.47
-6.48
-8.21
-10.05
-12.40
-15.57
-19.59
-24.18
-28.78
-32.56
-34.74
-34.62
-31.85
-26.52
-19.17
-10.65
-1.96
6.02
12.64
17.55
20.69
22.14
22.10
20.91
19.01
16.94
15.22
14.22
14.06
14.63
15.58
16.51
17.11
17.25
16.95
16.33
15.51
14.51
13.26
11.65
9.59
7.13
4.43
1.75
-0.68
-2.75
-4.56
-6.36
-8.51
-11.29
-14.86
-19.14
-23.80
-28.28
-31.81
-33.59
-32.98
-29.65
-23.75
-15.95
-7.22
1.36
8.91
14.91
19.16
21.74
22.84
22.63
21.37
19.36
17.04
14.91
13.32
12.44
12.16
12.23
12.40
12.55
12.65
12.73
12.74
12.51
11.80
10.45
8.38
5.74
2.81
-0.08
-2.64
-4.73
-6.42
-8.02
-9.97
-12.71
-16.38
-20.75
-25.10
-28.47
-29.92
-28.82
-25.07
-19.07
-11.64
-3.73
3.78
10.17
15.02
18.15
19.58
19.54
18.37
16.49
14.38
12.45
11.00
10.20
10.06
10.45
11.15
11.92
12.58
13.04
13.30
13.29
12.91
11.96
10.26
7.74
4.60
1.22
-1.95
-4.60
-6.71
-8.50
-10.37
-12.72
-15.82
-19.71
-24.25
-28.99
-33.24
-36.13
-36.80
-34.69
-29.73
-22.50
-14.04
-5.55
2.00
8.09
12.63
15.82
17.90
19.00
19.17
18.50
17.26
15.90
14.90
14.59
15.01
15.88
16.76
17.29
17.31
16.89
16.24
15.53
14.76
13.76
12.27
10.10
7.24
3.90
0.43
-2.81
-5.58
-7.81
-9.61
-11.21
-12.99
-15.33
-18.53
-22.67
-27.46
-32.22
-36.00
-37.87
-37.15
-33.64
-27.68
-20.00
-11.50
-3.07
4.53
10.80
15.45
18.40
19.79
19.93
19.20
18.05
16.87
16.04
15.82
16.32
17.46
18.99
20.55
21.77
22.41
22.37
21.72
20.57
19.07
17.32
15.38
13.27
11.02
8.63
6.15
3.59
1.03
-1.48
-3.90
-6.16
-8.29
-10.40
-12.67
-15.39
-18.86
-23.20
-28.22
-33.26
-37.34
-39.36
-38.44
-34.27
-27.27
-18.42
-9.00
-0.21
7.16
12.75
16.64
19.09
20.40
20.77
20.40
19.50
18.40
17.49
17.11
17.44
18.43
19.82
21.26
22.48
23.32
23.68
23.56
22.93
21.85
20.33
18.48
16.35
14.00
11.41
8.55
5.48
2.34
-0.67
-3.36
-5.64
-7.65
-9.61
-11.88
-14.73
-18.28
-22.47
-26.95
-31.17
-34.44
-36.06
-35.47
-32.41
-27.04
-19.94
-11.94
-3.95
3.26
9.21
13.67
16.63
18.16
18.38
17.49
15.83
13.90
12.24
11.29
11.25
11.97
13.15
14.38
15.39
16.11
16.64
17.06
17.38
17.42
16.94
15.69
13.64
10.93
7.83
4.66
1.67
-0.99
-3.25
-5.10
-6.59
-7.88
-9.20
-10.86
-13.15
-16.15
-19.70
-23.32
-26.30
-27.89
-27.45
-24.68
-19.72
-13.13
-5.78
1.41
7.71
12.66
16.08
17.96
18.39
17.51
15.57
13.02
10.49
8.62
7.83
8.17
9.27
10.52
11.41
11.70
11.49
11.07
10.67
10.30
9.75
8.73
7.11
4.93
2.40
-0.22
-2.78
-5.21
-7.48
-9.55
-11.38
-13.05
-14.79
-16.93
-19.78
-23.39
-27.43
-31.16
-33.70
-34.26
-32.37
-28.01
-21.65
-14.04
-6.01
1.63
8.32
13.65
17.40
19.47
19.87
18.78
16.59
13.85
11.21
9.28
8.43
8.69
9.78
11.19
12.36
12.93
12.78
12.02
10.91
9.66
8.36
6.94
5.25
3.20
0.85
-1.62
-3.95
-5.99
-7.74
-9.40
-11.24
-13.53
-16.38
-19.78
-23.60
-27.68
-31.73
-35.34
-37.90
-38.68
-37.07
-32.82
-26.21
-18.05
-9.43
-1.37
5.46
10.76
14.54
16.94
18.07
18.02
16.91
15.06
12.93
11.10
9.98
9.81
10.41
11.43
12.40
13.01
13.13
12.86
12.40
11.89
11.32
10.51
9.22
7.27
4.72
1.81
-1.10
-3.65
-5.70
-7.27
-8.57
-9.86
-11.36
-13.28
-15.78
-18.99
-22.86
-27.03
-30.80
-33.19
-33.31
-30.67
-25.42
-18.30
-10.40
-2.72
4.03
9.53
13.65
16.41
17.78
17.81
16.72
14.91
12.93
11.30
10.34
10.07
10.37
10.94
11.59
12.21
12.77
13.26
13.59
13.65
13.29
12.41
10.99
9.07
6.78
4.26
1.67
-0.81
-3.06
-4.99
-6.59
-8.00
-9.40
-11.10
-13.37
-16.41
-20.16
-24.28
-28.10
-30.80
-31.58
-29.99
-26.00
-20.09
-13.06
-5.84
0.79
6.24
10.26
12.76
13.85
13.74
12.73
11.19
9.53
8.12
7.27
7.12
7.65
8.63
9.75
10.69
11.23
11.33
11.14
10.80
10.44
10.03
9.46
8.53
7.12
5.24
3.01
0.63
-1.71
-3.87
-5.80
-7.59
-9.42
-11.52
-14.11
-17.20
-20.51
-23.45
-25.24
-25.14
-22.75
-18.14
-11.86
-4.77
2.22
8.36
13.15
16.37
18.01
18.21
17.17
15.15
12.52
9.72
7.25
5.56
4.90
5.26
6.33
7.65
8.73
9.28
9.26
8.82
8.16
7.39
6.44
5.15
3.35
1.03
-1.65
-4.39
-6.89
-8.97
-10.64
-12.08
-13.50
-15.19
-17.33
-20.06
-23.35
-27.01
-30.57
-33.37
-34.62
-33.63
-30.10
-24.20
-16.61
-8.28
-0.23
6.74
12.15
15.83
17.82
18.24
17.33
15.46
13.13
10.96
9.51
9.11
9.77
11.16
12.76
14.09
14.86
14.98
14.54
13.68
12.53
11.15
9.59
7.82
5.82
3.56
1.09
-1.51
-4.07
-6.38
-8.33
-9.88
-11.17
-12.47
-14.08
-16.31
-19.30
-22.96
-26.91
-30.49
-32.86
-33.23
-31.15
-26.66
-20.30
-12.91
-5.47
1.29
6.92
11.26
14.34
16.24
17.00
16.72
15.62
14.10
12.64
11.71
11.53
12.05
12.97
13.92
14.60
14.90
14.91
14.77
14.57
14.27
13.71
12.71
11.13
8.96
6.35
3.52
0.77
-1.66
-3.66
-5.25
-6.68
-8.24
-10.26
-13.00
-16.49
-20.59
-24.90
-28.90
-31.95
-33.41
-32.82
-29.91
-24.80
-17.92
-10.04
-2.07
5.17
11.07
15.35
18.06
19.41
19.68
19.12
17.96
16.44
14.87
13.60
12.95
13.10
13.95
15.13
16.16
16.62
16.32
15.32
13.88
12.24
10.50
8.61
6.43
3.91
1.20
-1.44
-3.68
-5.34
-6.44
-7.24
-8.06
-9.22
-10.94
-13.32
-16.31
-19.71
-23.08
-25.83
-27.24
-26.68
-23.85
-18.89
-12.37
-5.10
2.06
8.44
13.56
17.19
19.25
19.76
18.93
17.12
14.81
12.50
10.60
9.37
8.92
9.13
9.82
10.72
11.57
12.20
12.54
12.62
12.48
12.11
11.37
10.12
8.26
5.88
3.27
0.80
-1.27
-2.89
-4.25
-5.74
-7.75
-10.57
-14.22
-18.47
-22.81
-26.57
-29.05
-29.66
-28.13
-24.53
-19.30
-13.09
-6.58
-0.41
4.94
9.15
12.02
13.49
13.62
12.63
10.88
8.80
6.86
5.44
4.80
4.98
5.84
7.05
8.17
8.86
8.93
8.40
7.42
6.15
4.64
2.85
0.65
-1.97
-4.90
-7.85
-10.46
-12.47
-13.83
-14.73
-15.52
-16.60
-18.30
-20.74
-23.80
-27.06
-29.83
-31.31
-30.76
-27.79
-22.51
-15.53
-7.73
-0.05
6.78
12.38
16.56
19.26
20.47
20.27
18.89
16.73
14.35
12.27
10.85
10.22
10.32
10.92
11.76
12.54
13.02
13.08
12.69
11.98
11.12
10.23
9.26
8.05
6.36
4.05
1.21
-1.89
-4.89
-7.49
-9.66
-11.54
-13.49
-15.90
-19.01
-22.85
-27.09
-31.08
-33.91
-34.66
-32.72
-28.06
-21.22
-13.22
-5.18
1.98
7.80
12.16
15.18
17.03
17.81
17.61
16.62
15.18
13.71
12.63
12.22
12.54
13.44
14.65
15.82
16.67
17.02
16.80
16.07
14.95
13.57
12.00
10.24
8.25
5.99
3.51
0.97
-1.38
-3.36
-4.89
-6.07
-7.17
-8.50
-10.34
-12.82
-15.98
-19.67
-23.56
-27.15
-29.71
-30.53
-29.05
-25.14
-19.17
-11.93
-4.41
2.53
8.33
12.75
15.79
17.51
17.96
17.28
15.75
13.85
12.13
11.09
10.92
11.52
12.51
13.45
14.04
14.21
14.06
13.81
13.59
13.43
13.17
12.62
11.56
9.88
7.66
5.08
2.47
0.10
-1.82
-3.27
-4.44
-5.63
-7.24
-9.60
-12.88
-16.95
-21.38
-25.40
-28.09
-28.65
-26.58
-21.96
-15.41
-7.87
-0.37
6.24
11.46
15.08
17.13
17.76
17.23
15.87
14.05
12.19
10.58
9.41
8.75
8.58
8.87
9.51
10.42
11.42
12.28
12.82
12.88
12.39
11.34
9.78
7.81
5.54
3.11
0.67
-1.65
-3.76
-5.66
-7.43
-9.22
-11.23
-13.69
-16.81
-20.61
-24.91
-29.19
-32.67
-34.49
-33.94
-30.72
-25.09
-17.71
-9.57
-1.63
5.34
10.90
14.89
17.41
18.66
18.83
18.11
16.72
14.93
13.07
11.53
10.68
10.68
11.46
12.74
14.07
15.08
15.49
15.26
14.46
13.26
11.84
10.31
8.70
6.96
5.01
2.75
0.19
-2.57
-5.32
-7.85
-9.99
-11.74
-13.22
-14.66
-16.37
-18.63
-21.60
-25.20
-29.02
-32.33
-34.22
-33.89
-30.87
-25.34
-18.03
-10.01
-2.33
4.26
9.41
13.11
15.48
16.64
16.69
15.81
14.31
12.65
11.32
10.73
11.02
12.11
13.70
15.38
16.78
17.66
17.92
17.64
17.02
16.27
15.52
14.78
13.93
12.82
11.29
9.28
6.82
4.01
1.00
-2.04
-4.91
-7.47
-9.64
-11.48
-13.22
-15.26
-17.97
-21.50
-25.66
-29.82
-33.04
-34.38
-33.13
-29.15
-22.81
-14.93
-6.53
1.45
8.25
13.39
16.74
18.42
18.74
18.14
17.01
15.68
14.38
13.25
12.47
12.18
12.48
13.29
14.35
15.31
15.85
15.83
15.31
14.47
13.50
12.44
11.24
9.79
8.00
5.93
3.69
1.43
-0.67
-2.49
-3.94
-5.06
-6.01
-7.09
-8.62
-10.84
-13.86
-17.57
-21.69
-25.79
-29.28
-31.51
-31.84
-29.85
-25.49
-19.17
-11.70
-4.02
3.02
8.88
13.31
16.31
17.95
18.36
17.68
16.19
14.31
12.50
11.20
10.60
10.69
11.24
11.94
12.53
12.91
13.12
13.26
13.41
13.49
13.36
12.74
11.47
9.51
6.99
4.18
1.42
-0.99
-2.92
-4.39
-5.59
-6.88
-8.55
-10.83
-13.77
-17.25
-20.96
-24.46
-27.22
-28.64
-28.19
-25.55
-20.77
-14.37
-7.19
-0.23
5.75
10.34
13.50
15.41
16.30
16.29
15.48
14.03
12.23
10.50
9.25
8.70
8.85
9.45
10.12
10.54
10.58
10.29
9.84
9.33
8.72
7.83
6.48
4.55
2.17
-0.41
-2.88
-5.05
-6.87
-8.47
-9.99
-11.55
-13.26
-15.21
-17.57
-20.43
-23.78
-27.34
-30.53
-32.58
-32.72
-30.49
-25.87
-19.36
-11.80
-4.16
2.71
8.27
12.30
14.82
15.99
16.01
15.13
13.61
11.76
9.94
8.47
7.58
7.36
7.74
8.49
9.30
9.86
10.01
9.72
9.16
8.47
7.72
6.82
5.51
3.58
0.94
-2.15
-5.27
-7.94
-9.85
-11.01
-11.70
-12.40
-13.50
-15.31
-17.92
-21.21
-24.84
-28.34
-31.05
-32.26
-31.34
-27.99
-22.33
-15.00
-7.01
0.56
6.85
11.41
14.25
15.66
16.00
15.55
14.51
13.06
11.46
10.12
9.42
9.58
10.53
11.90
13.26
14.21
14.59
14.51
14.14
13.61
12.92
11.92
10.45
8.46
6.07
3.52
1.09
-1.04
-2.80
-4.33
-5.84
-7.57
-9.73
-12.39
-15.53
-18.87
-21.98
-24.26
-25.09
-23.99
-20.87
-16.00
-10.01
-3.66
2.36
7.55
11.63
14.45
15.86
15.80
14.28
11.55
8.07
4.45
1.25
-1.10
-2.42
-2.73
-2.16
-0.90
0.84
2.83
4.83
6.61
7.93
8.64
8.66
7.96
6.62
4.77
2.58
0.25
-2.05
-4.20
-6.12
-7.88
-9.62
-11.56
-13.88
-16.57
-19.34
-21.58
-22.59
-21.73
-18.78
-14.01
-8.05
-1.74
4.16
9.11
12.80
15.13
16.09
15.76
14.30
11.99
9.20
6.39
3.99
2.36
1.66
1.86
2.73
3.92
5.06
5.87
6.16
5.89
5.05
3.69
1.95
-0.02
-2.04
-3.94
-5.67
-7.31
-9.04
-11.11
-13.73
-16.94
-20.57
-24.15
-26.96
-28.22
-27.29
-23.94
-18.44
-11.53
-4.12
2.89
8.86
13.46
16.51
17.93
17.74
16.08
13.33
10.10
7.09
4.88
3.75
3.68
4.39
5.50
6.66
7.60
8.15
8.16
7.52
6.15
4.07
1.45
-1.43
-4.26
-6.73
-8.73
-10.31
-11.76
-13.45
-15.75
-18.86
-22.69
-26.79
-30.39
-32.61
-32.68
-30.19
-25.26
-18.47
-10.74
-3.04
3.87
9.52
13.76
16.60
18.11
18.40
17.64
16.13
14.31
12.73
11.78
11.63
12.12
12.88
13.55
13.89
13.84
13.42
12.62
11.32
9.37
6.71
3.49
0.06
-3.23
-6.08
-8.43
-10.36
-12.12
-13.94
-16.08
-18.81
-22.30
-26.46
-30.87
-34.71
-36.94
-36.68
-33.50
-27.66
-19.95
-11.46
-3.20
4.17
10.34
15.24
18.88
21.27
22.42
22.49
21.77
20.69
19.66
19.01
18.89
19.30
20.05
20.91
21.60
21.86
21.57
20.73
19.44
17.82
15.91
13.63
10.92
7.79
4.43
1.18
-1.61
-3.79
-5.49
-6.97
-8.59
-10.58
-13.01
-15.89
-19.17
-22.71
-26.21
-29.06
-30.46
-29.58
-25.97
-19.82
-11.92
-3.49
4.28
10.58
15.15
18.16
19.96
20.90
21.16
20.84
20.03
18.97
17.96
17.34
17.27
17.74
18.56
19.39
19.96
20.13
19.88
19.36
18.70
18.00
17.23
16.28
14.91
13.00
10.53
7.62
4.61
1.83
-0.47
-2.24
-3.57
-4.74
-6.05
-7.77
-10.15
-13.28
-17.07
-21.21
-25.10
-27.94
-28.94
-27.52
-23.57
-17.48
-10.08
-2.37
4.75
10.66
15.11
18.13
19.88
20.56
20.34
19.39
17.92
16.29
14.89
14.11
14.16
14.97
16.22
17.48
18.34
18.64
18.40
17.85
17.14
16.33
15.33
13.95
12.07
9.66
6.89
3.96
1.11
-1.47
-3.68
-5.47
-6.89
-8.00
-9.03
-10.27
-12.03
-14.53
-17.70
-21.18
-24.22
-25.94
-25.57
-22.72
-17.56
-10.76
-3.31
3.81
9.81
14.26
17.04
18.26
18.19
17.15
15.50
13.61
11.84
10.53
9.93
10.14
11.07
12.44
13.90
15.05
15.62
15.52
14.82
13.72
12.42
11.07
9.70
8.23
6.54
4.49
2.01
-0.82
-3.80
-6.60
-8.95
-10.71
-11.99
-13.08
-14.33
-16.06
-18.45
-21.46
-24.84
-28.05
-30.39
-31.11
-29.60
-25.66
-19.66
-12.40
-4.92
1.88
7.41
11.49
14.19
15.69
16.16
15.76
14.75
13.48
12.38
11.77
11.80
12.41
13.35
14.33
15.14
15.68
15.89
15.78
15.35
14.61
13.57
12.23
10.59
8.67
6.52
4.20
1.84
-0.45
-2.58
-4.52
-6.29
-7.92
-9.43
-10.85
-12.23
-13.68
-15.38
-17.50
-20.09
-23.01
-25.87
-28.03
-28.78
-27.53
-24.00
-18.42
-11.49
-4.16
2.54
7.86
11.52
13.64
14.59
14.77
14.47
13.82
12.89
11.79
10.68
9.81
9.32
9.24
9.44
9.75
10.02
10.22
10.36
10.49
10.60
10.58
10.32
9.71
8.68
7.26
5.53
3.62
1.69
-0.13
-1.75
-3.16
-4.45
-5.74
-7.10
-8.57
-10.17
-11.97
-14.07
-16.61
-19.59
-22.75
-25.52
-27.11
-26.78
-24.16
-19.40
-13.21
-6.56
-0.39
4.67
8.40
10.87
12.30
12.87
12.70
11.91
10.65
9.15
7.71
6.56
5.90
5.84
6.41
7.51
8.88
10.13
10.88
10.88
10.16
8.98
7.68
6.48
5.39
4.20
2.70
0.82
-1.30
-3.37
-5.12
-6.47
-7.49
-8.40
-9.40
-10.65
-12.20
-14.04
-16.11
-18.19
-19.92
-20.84
-20.48
-18.59
-15.19
-10.68
-5.67
-0.85
3.23
6.25
8.13
8.99
9.01
8.40
7.36
6.06
4.72
3.53
2.68
2.25
2.26
2.61
3.16
3.81
4.50
5.20
5.91
6.56
7.08
7.35
7.19
6.46
5.03
2.88
0.15
-2.86
-5.75
-8.15
-9.85
-10.88
-11.52
-12.15
-13.18
-14.93
-17.51
-20.76
-24.28
-27.38
-29.30
-29.37
-27.29
-23.22
-17.78
-11.82
-6.18
-1.45
2.16
4.70
6.36
7.30
7.62
7.40
6.78
5.98
5.28
4.91
4.91
5.21
5.68
6.20
6.70
7.15
7.52
7.73
7.69
7.33
6.64
5.63
4.33
2.76
0.94
-1.06
-3.10
-5.05
-6.79
-8.30
-9.62
-10.87
-12.17
-13.66
-15.44
-17.64
-20.23
-23.04
-25.66
-27.52
-28.04
-26.81
-23.73
-19.06
-13.35
-7.27
-1.48
3.53
7.43
10.07
11.44
11.69
11.04
9.80
8.30
6.86
5.70
5.00
4.83
5.18
5.95
6.97
8.03
8.92
9.45
9.53
9.11
8.26
7.01
5.41
3.52
1.39
-0.93
-3.34
-5.69
-7.82
-9.54
-10.75
-11.47
-11.92
-12.47
-13.53
-15.43
-18.24
-21.73
-25.36
-28.34
-29.92
-29.51
-26.93
-22.48
-16.82
-10.77
-5.09
-0.25
3.58
6.43
8.38
9.46
9.67
9.03
7.73
6.09
4.58
3.65
3.52
4.18
5.33
6.59
7.66
8.37
8.79
9.07
9.31
9.47
9.40
8.87
7.74
5.99
3.74
1.19
-1.40
-3.80
-5.82
-7.31
-8.31
-9.00
-9.71
-10.83
-12.63
-15.13
-18.04
-20.87
-23.00
-23.91
-23.28
-21.03
-17.34
-12.59
-7.27
-1.92
2.96
6.96
9.80
11.33
11.59
10.75
9.12
7.13
5.18
3.64
2.72
2.47
2.81
3.57
4.54
5.53
6.39
7.00
7.30
7.28
6.90
6.15
5.02
3.54
1.75
-0.21
-2.23
-4.17
-5.96
-7.59
-9.18
-10.89
-12.98
-15.67
-19.01
-22.77
-26.33
-28.89
-29.62
-28.04
-24.14
-18.46
-11.81
-5.05
1.15
6.36
10.39
13.15
14.60
14.81
13.96
12.42
10.64
9.06
7.99
7.61
7.84
8.58
9.59
10.63
11.49
11.94
11.90
11.31
10.23
8.70
6.75
4.39
1.62
-1.48
-4.68
-7.68
-10.25
-12.32
-14.07
-15.89
-18.26
-21.45
-25.47
-29.94
-34.12
-37.13
-38.10
-36.48
-32.18
-25.66
-17.73
-9.41
-1.63
4.95
9.98
13.33
15.05
15.31
14.37
12.66
10.72
9.08
8.12
7.98
8.53
9.51
10.60
11.60
12.44
13.18
13.86
14.42
14.65
14.25
12.97
10.77
7.81
4.50
1.29
-1.49
-3.70
-5.45
-7.00
-8.70
-10.89
-13.86
-17.74
-22.48
-27.66
-32.56
-36.22
-37.69
-36.29
-31.91
-25.00
-16.47
-7.47
0.95
8.01
13.30
16.74
18.48
18.83
18.18
16.92
15.51
14.41
13.97
14.39
15.60
17.29
18.97
20.20
20.72
20.52
19.80
18.79
17.61
16.25
14.57
12.46
9.93
7.16
4.39
1.77
-0.64
-2.94
-5.26
-7.73
-10.44
-13.49
-17.02
-21.11
-25.62
-30.05
-33.59
-35.24
-34.24
-30.32
-23.87
-15.79
-7.18
1.05
8.31
14.39
19.20
22.65
24.62
24.99
23.86
21.62
18.92
16.49
14.92
14.49
15.11
16.42
17.94
19.31
20.30
20.87
21.03
20.77
19.98
18.55
16.42
13.68
10.61
7.57
4.85
2.59
0.66
-1.17
-3.23
-5.73
-8.73
-12.21
-16.01
-19.84
-23.24
-25.64
-26.39
-25.02
-21.34
-15.63
-8.54
-0.93
6.35
12.68
17.70
21.24
23.25
23.76
22.88
20.92
18.35
15.82
13.95
13.11
13.41
14.55
16.09
17.54
18.56
19.03
18.94
18.32
17.19
15.51
13.31
10.70
7.92
5.22
2.81
0.75
-1.07
-2.90
-5.08
-7.92
-11.59
-16.10
-21.11
-26.03
-29.97
-32.05
-31.59
-28.35
-22.60
-15.02
-6.52
1.95
9.60
15.87
20.43
23.16
24.12
23.59
21.95
19.70
17.37
15.46
14.31
14.06
14.64
15.76
17.02
18.03
18.50
18.34
17.63
16.49
15.05
13.31
11.16
8.54
5.47
2.14
-1.14
-4.07
-6.53
-8.65
-10.81
-13.43
-16.90
-21.34
-26.46
-31.62
-35.90
-38.34
-38.19
-35.08
-29.27
-21.48
-12.73
-4.09
3.68
10.15
15.24
19.01
21.55
22.90
23.12
22.38
21.02
19.46
18.10
17.23
16.92
17.05
17.39
17.66
17.66
17.27
16.51
15.49
14.37
13.23
11.99
10.45
8.42
5.86
2.93
0.02
-2.50
-4.46
-5.98
-7.41
-9.24
-11.90
-15.54
-20.08
-25.06
-29.78
-33.34
-34.89
-33.80
-29.90
-23.60
-15.71
-7.22
0.99
8.28
14.31
18.92
22.05
23.70
24.01
23.29
21.99
20.62
19.63
19.31
19.74
20.79
22.14
23.42
24.28
24.50
24.07
23.11
21.84
20.37
18.71
16.75
14.37
11.56
8.46
5.32
2.36
-0.26
-2.55
-4.64
-6.73
-9.03
-11.76
-15.11
-19.16
-23.76
-28.46
-32.50
-34.96
-35.00
-32.16
-26.56
-18.89
-10.19
-1.60
6.05
12.26
16.86
19.86
21.32
21.37
20.22
18.24
15.96
13.93
12.63
12.26
12.76
13.85
15.15
16.31
17.09
17.36
17.14
16.49
15.51
14.22
12.61
10.63
8.28
5.64
2.92
0.39
-1.72
-3.35
-4.61
-5.80
-7.36
-9.69
-13.04
-17.30
-22.02
-26.36
-29.39
-30.28
-28.58
-24.36
-18.14
-10.77
-3.11
4.08
10.29
15.16
18.46
20.11
20.16
18.88
16.70
14.25
12.12
10.79
10.52
11.28
12.80
14.63
16.31
17.48
17.91
17.64
16.81
15.62
14.20
12.55
10.60
8.25
5.49
2.43
-0.68
-3.56
-5.98
-7.90
-9.47
-11.02
-12.96
-15.68
-19.36
-23.90
-28.83
-33.34
-36.49
-37.41
-35.54
-30.89
-23.98
-15.75
-7.26
0.53
6.99
11.82
14.97
16.61
16.97
16.36
15.13
13.61
12.15
10.95
10.12
9.69
9.59
9.74
10.05
10.45
10.90
11.37
11.81
12.11
12.14
11.78
10.92
9.53
7.69
5.53
3.23
0.88
-1.47
-3.83
-6.23
-8.66
-11.08
-13.50
-16.04
-18.87
-22.21
-26.05
-30.02
-33.37
-35.13
-34.41
-30.83
-24.65
-16.71
-8.16
-0.09
6.76
12.07
15.82
18.13
19.13
18.93
17.74
15.92
13.94
12.32
11.46
11.49
12.28
13.50
14.80
15.90
16.61
16.89
16.77
16.30
15.59
14.71
13.68
12.44
10.89
8.94
6.58
3.92
1.19
-1.40
-3.67
-5.58
-7.21
-8.74
-10.44
-12.63
-15.62
-19.57
-24.35
-29.37
-33.72
-36.34
-36.37
-33.45
-27.90
-20.56
-12.53
-4.89
1.66
6.76
10.44
12.92
14.47
15.33
15.65
15.53
15.05
14.31
13.49
12.82
12.51
12.67
13.25
14.03
14.71
15.02
14.86
14.31
13.54
12.68
11.77
10.68
9.26
7.44
5.31
3.05
0.85
-1.15
-2.95
-4.65
-6.37
-8.17
-10.08
-12.09
-14.23
-16.60
-19.36
-22.60
-26.19
-29.74
-32.53
-33.70
-32.57
-28.86
-22.88
-15.43
-7.56
-0.25
5.80
10.30
13.23
14.73
14.97
14.16
12.60
10.69
8.93
7.75
7.44
8.01
9.24
10.74
12.13
13.15
13.65
13.62
13.13
12.23
11.01
9.56
7.96
6.28
4.54
2.72
0.75
-1.38
-3.59
-5.71
-7.51
-8.84
-9.71
-10.36
-11.19
-12.61
-14.89
-18.08
-21.91
-25.82
-29.05
-30.78
-30.38
-27.55
-22.51
-15.94
-8.84
-2.23
3.20
7.14
9.70
11.14
11.70
11.48
10.50
8.89
6.96
5.18
4.08
4.00
4.98
6.67
8.58
10.21
11.29
11.75
11.75
11.46
10.98
10.27
9.21
7.67
5.58
3.06
0.32
-2.34
-4.66
-6.52
-7.95
-9.13
-10.31
-11.71
-13.46
-15.61
-18.14
-21.02
-24.13
-27.20
-29.79
-31.29
-31.10
-28.83
-24.53
-18.72
-12.19
-5.78
-0.18
4.31
7.61
9.83
11.12
11.56
11.26
10.32
8.99
7.58
6.46
5.91
6.06
6.82
7.96
9.11
9.94
10.28
10.15
9.70
9.13
8.54
7.93
7.19
6.17
4.77
2.98
0.90
-1.24
-3.30
-5.18
-6.92
-8.63
-10.45
-12.47
-14.74
-17.33
-20.28
-23.61
-27.19
-30.58
-33.07
-33.84
-32.25
-28.18
-22.08
-14.89
-7.65
-1.17
4.15
8.22
11.18
13.15
14.16
14.27
13.61
12.49
11.30
10.44
10.17
10.50
11.23
12.07
12.75
13.15
13.29
13.23
13.04
12.67
12.02
10.98
9.54
7.75
5.78
3.74
1.71
-0.32
-2.35
-4.35
-6.30
-8.12
-9.81
-11.49
-13.36
-15.65
-18.56
-22.07
-25.89
-29.44
-31.93
-32.55
-30.74
-26.45
-20.13
-12.64
-4.97
1.99
7.67
11.84
14.50
15.79
15.87
14.96
13.26
11.09
8.83
6.90
5.65
5.26
5.72
6.76
8.04
9.18
9.95
10.25
10.18
9.91
9.57
9.15
8.51
7.45
5.85
3.75
1.37
-0.99
-3.11
-4.97
-6.67
-8.46
-10.56
-13.06
-15.93
-19.08
-22.33
-25.45
-28.06
-29.65
-29.66
-27.68
-23.60
-17.76
-10.89
-3.86
2.48
7.58
11.16
13.28
14.17
14.18
13.61
12.69
11.60
10.47
9.43
8.68
8.32
8.41
8.82
9.32
9.64
9.62
9.21
8.48
7.55
6.44
5.14
3.58
1.76
-0.26
-2.35
-4.37
-6.12
-7.46
-8.37
-9.02
-9.81
-11.24
-13.71
-17.27
-21.46
-25.41
-28.10
-28.68
-26.75
-22.47
-16.51
-9.78
-3.16
2.71
7.54
11.29
14.03
15.79
16.50
16.16
14.96
13.33
11.88
11.12
11.26
12.11
13.17
13.93
14.04
13.48
12.46
11.24
9.98
8.69
7.19
5.27
2.78
-0.21
-3.47
-6.62
-9.30
-11.30
-12.67
-13.71
-14.83
-16.43
-18.76
-21.86
-25.54
-29.36
-32.74
-34.97
-35.36
-33.42
-29.02
-22.49
-14.57
-6.26
1.48
7.92
12.66
15.64
17.01
17.00
15.87
13.92
11.56
9.26
7.59
6.97
7.55
9.12
11.15
13.03
14.22
14.50
13.96
12.87
11.56
10.22
8.89
7.47
5.83
3.93
1.82
-0.32
-2.29
-4.00
-5.49
-6.95
-8.61
-10.73
-13.49
-16.94
-20.90
-24.99
-28.56
-30.83
-31.08
-28.93
-24.44
-18.21
-11.15
-4.16
2.07
7.22
11.21
14.03
15.68
16.20
15.71
14.58
13.28
12.30
11.95
12.32
13.27
14.55
15.88
17.07
17.95
18.40
18.39
17.95
17.15
16.05
14.64
12.86
10.66
8.11
5.40
2.82
0.59
-1.23
-2.79
-4.35
-6.16
-8.36
-10.99
-14.04
-17.48
-21.22
-24.98
-28.22
-30.17
-30.09
-27.53
-22.58
-15.86
-8.32
-0.92
5.61
10.86
14.72
17.19
18.33
18.21
17.04
15.19
13.18
11.53
10.65
10.70
11.56
12.94
14.43
15.68
16.50
16.82
16.75
16.40
15.83
15.03
13.88
12.26
10.09
7.49
4.69
2.03
-0.24
-2.03
-3.48
-4.86
-6.48
-8.59
-11.30
-14.58
-18.26
-21.92
-24.95
-26.62
-26.25
-23.48
-18.45
-11.81
-4.54
2.40
8.29
12.82
15.93
17.71
18.23
17.58
15.92
13.61
11.18
9.24
8.25
8.36
9.42
11.03
12.75
14.20
15.16
15.59
15.54
15.09
14.35
13.37
12.13
10.59
8.66
6.35
3.76
1.13
-1.26
-3.18
-4.58
-5.62
-6.58
-7.81
-9.66
-12.36
-16.01
-20.55
-25.62
-30.58
-34.56
-36.61
-36.01
-32.48
-26.35
-18.48
-10.00
-1.98
4.81
10.01
13.62
15.80
16.75
16.70
15.92
14.77
13.68
13.06
13.14
13.96
15.34
16.97
18.50
19.63
20.16
20.05
19.37
18.24
16.85
15.31
13.70
12.06
10.36
8.55
6.56
4.35
1.89
-0.72
-3.37
-5.87
-8.12
-10.14
-12.09
-14.25
-16.89
-20.19
-24.09
-28.30
-32.19
-34.94
-35.74
-33.98
-29.52
-22.79
-14.69
-6.27
1.49
7.97
12.90
16.30
18.35
19.23
19.20
18.50
17.46
16.40
15.58
15.13
15.09
15.35
15.81
16.34
16.86
17.25
17.42
17.25
16.64
15.61
14.24
12.69
11.07
9.44
7.71
5.79
3.56
1.10
-1.42
-3.80
-5.90
-7.74
-9.49
-11.34
-13.45
-15.93
-18.79
-22.02
-25.44
-28.73
-31.30
-32.45
-31.52
-28.13
-22.41
-15.00
-6.87
0.92
7.50
12.41
15.60
17.27
17.83
17.64
17.01
16.17
15.31
14.63
14.29
14.39
14.94
15.80
16.75
17.52
17.92
17.87
17.39
16.61
15.65
14.55
13.26
11.70
9.81
7.60
5.21
2.79
0.54
-1.46
-3.23
-4.85
-6.45
-8.14
-9.98
-12.05
-14.45
-17.31
-20.68
-24.42
-28.06
-30.84
-31.93
-30.69
-26.97
-21.14
-14.00
-6.51
0.52
6.53
11.26
14.61
16.51
16.92
15.92
13.78
11.09
8.59
7.01
6.77
7.85
9.86
12.14
14.13
15.47
16.17
16.37
16.23
15.75
14.73
12.95
10.34
7.02
3.36
-0.22
-3.35
-5.84
-7.67
-9.02
-10.11
-11.25
-12.75
-14.89
-17.78
-21.29
-25.01
-28.26
-30.32
-30.59
-28.75
-24.83
-19.21
-12.57
-5.64
0.84
6.33
10.49
13.24
14.61
14.76
13.95
12.50
10.82
9.34
8.41
8.20
8.66
9.51
10.41
11.02
11.16
10.82
10.15
9.36
8.62
7.93
7.14
5.97
4.16
1.63
-1.44
-4.68
-7.62
-9.95
-11.60
-12.76
-13.86
-15.37
-17.67
-20.91
-24.93
-29.28
-33.20
-35.86
-36.48
-34.62
-30.27
-23.88
-16.24
-8.28
-0.78
5.67
10.76
14.39
16.59
17.46
17.22
16.11
14.50
12.82
11.46
10.66
10.49
10.83
11.49
12.25
12.92
13.36
13.49
13.22
12.53
11.42
10.00
8.36
6.60
4.73
2.71
0.50
-1.86
-4.21
-6.34
-8.10
-9.49
-10.75
-12.25
-14.40
-17.38
-21.10
-25.09
-28.59
-30.77
-30.99
-28.93
-24.76
-18.97
-12.27
-5.38
1.13
6.82
11.36
14.52
16.16
16.34
15.31
13.51
11.47
9.78
8.83
8.80
9.59
10.89
12.29
13.43
14.10
14.31
14.14
13.71
13.00
11.93
10.38
8.32
5.86
3.23
0.70
-1.52
-3.37
-4.94
-6.44
-8.09
-10.15
-12.74
-15.87
-19.34
-22.75
-25.50
-26.98
-26.67
-24.35
-20.19
-14.69
-8.53
-2.43
3.10
7.72
11.24
13.51
14.42
13.89
12.05
9.33
6.41
4.05
2.78
2.74
3.69
5.16
6.73
8.19
9.51
10.73
11.77
12.45
12.53
11.89
10.53
8.63
6.35
3.86
1.24
-1.42
-4.00
-6.39
-8.55
-10.60
-12.71
-15.09
-17.72
-20.28
-22.16
-22.65
-21.22
-17.75
-12.61
-6.52
-0.34
5.23
9.71
12.86
14.60
14.92
13.88
11.76
9.02
6.29
4.17
3.02
2.87
3.47
4.35
5.14
5.61
5.68
5.37
4.74
3.77
2.46
0.80
-1.16
-3.36
-5.70
-8.08
-10.42
-12.70
-14.94
-17.28
-19.93
-23.04
-26.62
-30.39
-33.75
-35.91
-36.07
-33.75
-28.91
-22.04
-14.02
-5.90
1.45
7.45
11.87
14.74
16.23
16.56
15.97
14.81
13.46
12.27
11.46
11.07
10.95
10.92
10.87
10.81
10.79
10.88
10.97
10.86
10.23
8.84
6.63
3.75
0.56
-2.51
-5.09
-7.04
-8.46
-9.64
-11.00
-12.91
-15.67
-19.34
-23.77
-28.51
-32.77
-35.59
-36.03
-33.56
-28.29
-20.94
-12.65
-4.57
2.50
8.22
12.62
15.91
18.22
19.60
20.02
19.58
18.54
17.34
16.46
16.24
16.74
17.70
18.70
19.30
19.26
18.58
17.49
16.29
15.23
14.31
13.36
12.10
10.31
7.96
5.21
2.36
-0.27
-2.51
-4.38
-6.07
-7.89
-10.12
-13.01
-16.62
-20.86
-25.36
-29.48
-32.40
-33.26
-31.48
-26.99
-20.29
-12.28
-4.02
3.58
9.98
14.97
18.60
20.98
22.28
22.68
22.46
21.95
21.49
21.35
21.67
22.39
23.33
24.27
24.96
25.29
25.21
24.75
23.94
22.77
21.21
19.24
16.89
14.31
11.63
9.02
6.57
4.32
2.26
0.36
-1.38
-2.96
-4.40
-5.80
-7.31
-9.10
-11.37
-14.23
-17.66
-21.45
-25.11
-27.99
-29.34
-28.57
-25.47
-20.26
-13.59
-6.34
0.66
6.76
11.65
15.25
17.66
19.04
19.57
19.46
18.93
18.21
17.53
17.08
17.00
17.34
18.07
19.03
19.97
20.61
20.73
20.24
19.25
17.98
16.69
15.54
14.54
13.58
12.47
11.13
9.53
7.78
6.02
4.30
2.61
0.86
-1.05
-3.15
-5.41
-7.79
-10.33
-13.05
-15.93
-18.72
-20.95
-21.96
-21.15
-18.25
-13.46
-7.44
-1.14
4.57
9.11
12.33
14.36
15.48
15.89
15.67
14.83
13.45
11.78
10.22
9.18
8.90
9.42
10.52
11.89
13.16
14.10
14.57
14.50
13.97
13.05
11.87
10.54
9.13
7.61
5.95
4.07
2.00
-0.16
-2.28
-4.18
-5.80
-7.16
-8.37
-9.61
-11.07
-12.89
-15.13
-17.72
-20.42
-22.75
-24.16
-24.10
-22.25
-18.61
-13.58
-7.87
-2.23
2.72
6.59
9.25
10.74
11.16
10.68
9.56
8.12
6.70
5.68
5.23
5.40
6.05
6.95
7.89
8.70
9.27
9.54
9.47
9.04
8.27
7.20
5.91
4.48
2.97
1.41
-0.18
-1.76
-3.30
-4.72
-5.99
-7.11
-8.13
-9.11
-10.11
-11.16
-12.35
-13.79
-15.60
-17.86
-20.39
-22.72
-24.19
-24.13
-22.18
-18.43
-13.42
-7.93
-2.68
1.84
5.43
8.10
9.90
10.86
11.01
10.44
9.36
8.10
6.96
6.19
5.85
5.85
6.00
6.10
6.06
5.90
5.68
5.42
5.10
4.65
4.01
3.18
2.20
1.11
-0.09
-1.45
-2.95
-4.50
-5.96
-7.17
-8.11
-8.89
-9.73
-10.79
-12.15
-13.76
-15.54
-17.42
-19.35
-21.17
-22.50
-22.87
-21.82
-19.18
-15.18
-10.42
-5.66
-1.47
1.86
4.29
5.96
6.90
7.07
6.41
4.97
3.03
1.03
-0.56
-1.33
-1.18
-0.20
1.28
2.92
4.35
5.35
5.86
5.95
5.76
5.45
5.07
4.60
3.98
3.10
1.92
0.45
-1.25
-3.06
-4.86
-6.50
-7.86
-8.89
-9.67
-10.35
-11.17
-12.30
-13.71
-15.16
-16.24
-16.49
-15.62
-13.55
-10.52
-6.93
-3.29
-0.04
2.58
4.47
5.61
6.02
5.73
4.76
3.29
1.57
-0.02
-1.11
-1.53
-1.32
-0.71
-0.04
0.40
0.43
0.06
-0.61
-1.40
-2.15
-2.77
-3.26
-3.67
-4.11
-4.67
-5.31
-5.92
-6.35
-6.52
-6.51
-6.53
-6.86
-7.74
-9.25
-11.30
-13.69
-16.14
-18.30
-19.80
-20.24
-19.31
-16.91
-13.30
-9.00
-4.72
-1.03
1.78
3.75
5.10
6.01
6.50
6.43
5.72
4.43
2.84
1.32
0.20
-0.37
-0.44
-0.20
0.12
0.40
0.60
0.77
0.93
1.08
1.11
0.87
0.22
-0.89
-2.38
-4.01
-5.46
-6.51
-7.08
-7.35
-7.64
-8.28
-9.52
-11.36
-13.65
-16.14
-18.53
-20.54
-21.87
-22.19
-21.25
-18.91
-15.33
-10.90
-6.19
-1.74
2.05
4.96
6.91
7.95
8.06
7.37
6.04
4.42
2.88
1.79
1.35
1.58
2.25
3.09
3.76
4.07
3.97
3.53
2.97
2.45
2.05
1.73
1.32
0.70
-0.21
-1.32
-2.49
-3.60
-4.59
-5.54
-6.57
-7.82
-9.40
-11.36
-13.68
-16.29
-18.96
-21.32
-22.88
-23.17
-21.89
-19.05
-15.00
-10.30
-5.58
-1.30
2.27
5.01
6.87
7.82
7.83
6.93
5.34
3.43
1.68
0.48
0.01
0.22
0.89
1.72
2.52
3.20
3.80
4.31
4.72
4.90
4.73
4.13
3.09
1.71
0.16
-1.39
-2.82
-4.09
-5.30
-6.69
-8.56
-11.19
-14.61
-18.53
-22.36
-25.31
-26.66
-26.00
-23.36
-19.12
-13.96
-8.51
-3.36
1.08
4.52
6.77
7.80
7.73
6.87
5.67
4.52
3.77
3.53
3.77
4.32
4.98
5.56
6.00
6.25
6.35
6.29
6.04
5.56
4.78
3.66
2.20
0.44
-1.53
-3.64
-5.80
-7.96
-10.06
-12.21
-14.53
-17.19
-20.27
-23.61
-26.78
-29.17
-30.17
-29.35
-26.60
-22.16
-16.53
-10.35
-4.27
1.12
5.43
8.44
10.14
10.72
10.41
9.53
8.35
7.13
6.10
5.51
5.51
6.14
7.22
8.45
9.46
9.97
9.87
9.19
8.05
6.58
4.88
3.00
1.01
-0.97
-2.82
-4.45
-5.85
-7.16
-8.63
-10.57
-13.24
-16.73
-20.79
-24.85
-28.07
-29.56
-28.71
-25.34
-19.87
-13.14
-6.17
0.16
5.31
9.15
11.74
13.25
13.81
13.55
12.66
11.43
10.27
9.58
9.60
10.35
11.62
13.09
14.45
15.49
16.18
16.56
16.67
16.52
16.00
14.99
13.44
11.39
9.04
6.63
4.40
2.40
0.49
-1.64
-4.36
-7.98
-12.55
-17.80
-23.14
-27.82
-30.98
-31.95
-30.36
-26.23
-20.03
-12.51
-4.57
2.95
9.38
14.38
17.88
19.98
20.88
20.84
20.16
19.22
18.43
18.12
18.47
19.38
20.58
21.71
22.52
22.92
22.96
22.70
22.12
21.11
19.56
17.47
14.97
12.35
9.89
7.72
5.87
4.25
2.74
1.15
-0.71
-3.13
-6.31
-10.33
-14.92
-19.48
-23.14
-25.03
-24.54
-21.51
-16.28
-9.59
-2.33
4.60
10.55
15.13
18.25
20.04
20.71
20.49
19.54
18.08
16.39
14.88
13.98
13.99
14.86
16.25
17.62
18.52
18.80
18.61
18.25
17.91
17.51
16.75
15.26
12.88
9.73
6.20
2.72
-0.36
-2.90
-4.95
-6.75
-8.64
-10.91
-13.83
-17.39
-21.28
-24.82
-27.14
-27.34
-24.90
-19.82
-12.73
-4.64
3.32
10.25
15.66
19.46
21.76
22.74
22.62
21.57
19.93
18.13
16.66
15.89
15.94
16.68
17.72
18.65
19.14
19.04
18.41
17.42
16.30
15.15
13.96
12.55
10.71
8.34
5.47
2.32
-0.82
-3.68
-6.16
-8.35
-10.49
-12.91
-15.87
-19.48
-23.64
-27.93
-31.72
-34.17
-34.54
-32.38
-27.73
-21.14
-13.48
-5.70
1.41
7.40
12.12
15.57
17.81
18.88
18.92
18.20
17.14
16.22
15.83
16.14
17.04
18.26
19.43
20.20
20.40
20.02
19.16
18.01
16.75
15.43
13.99
12.28
10.15
7.57
4.67
1.71
-1.01
-3.30
-5.16
-6.78
-8.49
-10.63
-13.46
-17.10
-21.43
-26.08
-30.46
-33.82
-35.48
-34.90
-31.91
-26.73
-19.96
-12.39
-4.83
2.07
7.92
12.54
15.94
18.19
19.39
19.68
19.29
18.55
17.91
17.76
18.30
19.41
20.75
21.88
22.45
22.36
21.70
20.72
19.64
18.55
17.37
15.93
14.08
11.77
9.12
6.39
3.80
1.52
-0.43
-2.16
-3.82
-5.54
-7.43
-9.64
-12.33
-15.68
-19.60
-23.68
-27.12
-29.01
-28.63
-25.75
-20.74
-14.36
-7.46
-0.79
5.14
10.05
13.77
16.21
17.39
17.45
16.69
15.52
14.30
13.36
12.88
12.94
13.53
14.50
15.61
16.56
17.15
17.27
16.98
16.33
15.38
14.03
12.16
9.69
6.68
3.43
0.32
-2.31
-4.34
-5.88
-7.22
-8.73
-10.68
-13.23
-16.36
-19.89
-23.42
-26.38
-28.06
-27.86
-25.39
-20.71
-14.30
-6.94
0.45
7.09
12.39
16.05
17.99
18.32
17.37
15.61
13.58
11.86
10.85
10.74
11.48
12.79
14.31
15.67
16.57
16.84
16.47
15.54
14.17
12.48
10.53
8.32
5.82
3.04
0.15
-2.66
-5.17
-7.26
-8.99
-10.55
-12.23
-14.36
-17.22
-20.87
-25.12
-29.37
-32.80
-34.45
-33.69
-30.33
-24.78
-17.86
-10.49
-3.48
2.70
7.79
11.69
14.32
15.65
15.75
14.81
13.23
11.48
10.03
9.22
9.19
9.85
10.98
12.27
13.41
14.20
14.53
14.38
13.77
12.76
11.40
9.79
8.03
6.16
4.26
2.30
0.27
-1.81
-3.88
-5.88
-7.74
-9.52
-11.37
-13.56
-16.28
-19.66
-23.53
-27.52
-31.00
-33.28
-33.76
-32.09
-28.24
-22.58
-15.76
-8.57
-1.82
3.91
8.31
11.35
13.24
14.25
14.62
14.50
14.02
13.26
12.46
11.93
11.92
12.53
13.61
14.82
15.77
16.21
16.15
15.78
15.35
14.94
14.46
13.62
12.17
10.00
7.24
4.18
1.14
-1.65
-4.12
-6.28
-8.20
-9.97
-11.74
-13.73
-16.23
-19.49
-23.53
-28.02
-32.22
-35.18
-36.02
-34.20
-29.69
-23.07
-15.23
-7.21
0.11
6.16
10.79
14.11
16.37
17.78
18.43
18.39
17.74
16.71
15.66
14.99
14.96
15.56
16.54
17.52
18.17
18.35
18.07
17.44
16.55
15.40
13.99
12.32
10.47
8.50
6.47
4.36
2.14
-0.23
-2.65
-4.97
-7.01
-8.72
-10.20
-11.72
-13.63
-16.23
-19.69
-23.93
-28.54
-32.82
-35.90
-36.87
-35.15
-30.60
-23.69
-15.35
-6.78
0.99
7.27
11.86
14.91
16.74
17.58
17.61
16.91
15.64
14.11
12.71
11.83
11.72
12.34
13.50
14.82
16.00
16.78
17.04
16.77
16.09
15.13
14.05
12.89
11.59
10.01
8.01
5.53
2.65
-0.40
-3.35
-5.98
-8.16
-9.89
-11.32
-12.74
-14.47
-16.83
-19.96
-23.72
-27.60
-30.75
-32.24
-31.32
-27.75
-21.88
-14.57
-6.92
0.08
5.79
9.97
12.70
14.17
14.58
14.09
12.90
11.33
9.78
8.70
8.45
9.11
10.51
12.30
14.02
15.37
16.12
16.24
15.82
14.96
13.80
12.45
10.96
9.34
7.55
5.55
3.30
0.82
-1.79
-4.37
-6.74
-8.80
-10.59
-12.29
-14.26
-16.78
-20.02
-23.86
-27.89
-31.50
-34.01
-34.83
-33.62
-30.34
-25.27
-18.97
-12.14
-5.47
0.50
5.46
9.27
11.90
13.37
13.74
13.17
11.93
10.46
9.20
8.51
8.59
9.41
10.77
12.40
13.99
15.30
16.13
16.37
16.00
15.06
13.62
11.81
9.72
7.41
4.96
2.41
-0.18
-2.73
-5.18
-7.49
-9.64
-11.59
-13.34
-14.89
-16.32
-17.79
-19.50
-21.67
-24.32
-27.21
-29.75
-31.13
-30.60
-27.69
-22.48
-15.60
-8.05
-0.87
5.15
9.59
12.39
13.75
13.96
13.36
12.28
11.07
10.03
9.41
9.30
9.68
10.42
11.32
12.25
13.05
13.63
13.87
13.74
13.22
12.34
11.21
9.90
8.50
6.98
5.29
3.34
1.08
-1.40
-3.89
-6.12
-7.89
-9.19
-10.22
-11.36
-13.02
-15.47
-18.78
-22.75
-26.94
-30.69
-33.31
-34.14
-32.72
-28.93
-23.09
-15.87
-8.19
-0.94
5.18
9.81
12.91
14.61
15.14
14.66
13.33
11.39
9.21
7.31
6.20
6.21
7.33
9.22
11.35
13.17
14.37
14.86
14.72
14.07
13.00
11.55
9.75
7.73
5.60
3.48
1.40
-0.64
-2.66
-4.57
-6.21
-7.44
-8.27
-8.87
-9.64
-11.02
-13.30
-16.53
-20.40
-24.33
-27.55
-29.34
-29.12
-26.70
-22.30
-16.52
-10.16
-4.01
1.33
5.55
8.63
10.65
11.80
12.21
12.04
11.44
10.65
9.86
9.37
9.34
9.85
10.77
11.86
12.78
13.22
13.05
12.33
11.33
10.32
9.46
8.72
7.86
6.64
4.94
2.86
0.63
-1.44
-3.16
-4.49
-5.56
-6.62
-7.94
-9.75
-12.21
-15.34
-18.97
-22.70
-25.93
-27.98
-28.27
-26.51
-22.78
-17.50
-11.33
-4.96
1.00
6.05
9.85
12.24
13.21
12.97
11.86
10.36
8.90
7.82
7.31
7.40
8.02
9.06
10.35
11.69
12.87
13.65
13.87
13.47
12.53
11.23
9.73
8.14
6.47
4.64
2.60
0.39
-1.86
-3.98
-5.89
-7.69
-9.56
-11.75
-14.35
-17.24
-20.04
-22.22
-23.23
-22.68
-20.43
-16.62
-11.63
-6.00
-0.34
4.80
9.00
12.00
13.68
14.09
13.35
11.71
9.51
7.20
5.22
3.98
3.64
4.19
5.35
6.77
8.09
9.06
9.56
9.58
9.18
8.41
7.31
5.88
4.11
1.97
-0.47
-3.08
-5.64
-7.92
-9.80
-11.37
-12.99
-15.13
-18.16
-22.14
-26.63
-30.84
-33.81
-34.75
-33.27
-29.44
-23.78
-17.01
-9.89
-3.06
2.97
7.95
11.69
14.08
15.09
14.76
13.34
11.29
9.20
7.65
7.01
7.33
8.38
9.76
11.07
12.02
12.50
12.51
12.08
11.33
10.29
8.97
7.35
5.42
3.23
0.93
-1.22
-3.06
-4.52
-5.80
-7.25
-9.25
-12.04
-15.63
-19.76
-23.91
-27.50
-29.87
-30.48
-29.02
-25.46
-20.15
-13.66
-6.74
-0.07
5.85
10.68
14.25
16.48
17.39
17.09
15.83
14.00
12.11
10.65
9.98
10.22
11.20
12.53
13.78
14.58
14.78
14.44
13.76
12.92
12.02
11.03
9.86
8.37
6.52
4.28
1.79
-0.75
-3.11
-5.12
-6.76
-8.19
-9.68
-11.56
-14.03
-17.10
-20.54
-23.92
-26.65
-28.10
-27.71
-25.17
-20.53
-14.24
-7.09
0.07
6.45
11.54
15.14
17.27
18.11
17.87
16.82
15.27
13.56
12.09
11.18
11.03
11.59
12.66
13.85
14.81
15.32
15.30
14.79
13.91
12.72
11.24
9.49
7.52
5.46
3.42
1.52
-0.21
-1.84
-3.47
-5.26
-7.34
-9.87
-12.91
-16.38
-20.01
-23.30
-25.61
-26.32
-25.07
-21.81
-16.83
-10.71
-4.15
2.15
7.62
11.85
14.64
15.96
15.92
14.73
12.74
10.42
8.28
6.78
6.26
6.73
7.97
9.59
11.20
12.55
13.52
14.14
14.41
14.28
13.66
12.44
10.56
8.09
5.20
2.14
-0.81
-3.47
-5.74
-7.69
-9.50
-11.45
-13.82
-16.81
-20.49
-24.65
-28.83
-32.30
-34.25
-33.97
-31.15
-25.97
-19.10
-11.47
-3.99
2.63
7.99
11.96
14.58
15.91
16.06
15.23
13.70
11.93
10.37
9.41
9.25
9.86
11.04
12.50
13.93
15.04
15.66
15.66
15.07
13.99
12.57
10.95
9.16
7.21
5.03
2.64
0.16
-2.26
-4.44
-6.34
-8.04
-9.79
-11.87
-14.49
-17.73
-21.47
-25.36
-28.81
-31.13
-31.62
-29.82
-25.62
-19.42
-11.96
-4.20
3.03
9.12
13.83
17.13
19.04
19.65
19.03
17.45
15.34
13.32
11.93
11.50
11.99
13.09
14.35
15.36
15.91
15.93
15.51
14.79
13.95
13.13
12.38
11.60
10.55
8.97
6.68
3.81
0.72
-2.08
-4.19
-5.54
-6.44
-7.47
-9.19
-11.93
-15.62
-19.82
-23.87
-26.99
-28.50
-27.89
-24.94
-19.81
-13.09
-5.65
1.51
7.57
12.10
15.03
16.58
17.00
16.50
15.19
13.30
11.20
9.43
8.47
8.53
9.50
10.93
12.36
13.42
14.01
14.22
14.23
14.11
13.80
13.12
11.87
9.89
7.22
4.10
0.90
-1.97
-4.28
-6.04
-7.52
-9.18
-11.43
-14.47
-18.25
-22.42
-26.39
-29.50
-31.08
-30.61
-27.88
-23.06
-16.73
-9.69
-2.75
3.49
8.70
12.77
15.69
17.44
18.01
17.44
15.97
14.01
12.13
10.78
10.23
10.42
11.06
11.77
12.25
12.39
12.23
11.91
11.47
10.92
10.12
8.97
7.36
5.30
2.87
0.26
-2.29
-4.54
-6.34
-7.71
-8.80
-9.93
-11.47
-13.73
-16.91
-20.89
-25.34
-29.58
-32.82
-34.26
-33.37
-29.98
-24.46
-17.48
-9.91
-2.52
4.12
9.64
13.91
16.82
18.33
18.50
17.52
15.80
13.81
12.08
11.01
10.74
11.18
12.04
13.00
13.79
14.30
14.54
14.56
14.42
14.06
13.42
12.39
10.91
9.01
6.79
4.37
1.91
-0.47
-2.67
-4.66
-6.53
-8.44
-10.65
-13.38
-16.76
-20.77
-25.12
-29.32
-32.75
-34.70
-34.60
-32.12
-27.36
-20.78
-13.18
-5.46
1.56
7.30
11.47
14.06
15.23
15.28
14.58
13.52
12.42
11.58
11.16
11.29
11.99
13.17
14.58
15.93
16.89
17.27
17.00
16.19
14.99
13.57
11.97
10.17
8.14
5.90
3.46
0.89
-1.75
-4.35
-6.76
-8.81
-10.40
-11.57
-12.59
-13.86
-15.80
-18.65
-22.34
-26.37
-29.97
-32.22
-32.35
-29.91
-24.97
-18.08
-10.16
-2.27
4.70
10.13
13.84
15.97
16.83
16.81
16.25
15.43
14.57
13.89
13.49
13.46
13.79
14.41
15.24
16.14
16.93
17.40
17.38
16.76
15.56
13.93
12.01
9.91
7.65
5.18
2.49
-0.35
-3.15
-5.64
-7.60
-8.96
-9.80
-10.37
-10.97
-11.92
-13.43
-15.66
-18.58
-22.04
-25.65
-28.79
-30.71
-30.74
-28.48
-23.98
-17.77
-10.70
-3.69
2.50
7.45
10.99
13.19
14.21
14.25
13.54
12.36
11.02
9.80
8.96
8.63
8.86
9.57
10.59
11.69
12.63
13.21
13.31
12.94
12.19
11.22
10.11
8.86
7.44
5.77
3.85
1.78
-0.28
-2.19
-3.87
-5.39
-6.90
-8.55
-10.42
-12.55
-14.94
-17.62
-20.66
-23.98
-27.29
-29.99
-31.32
-30.59
-27.44
-22.13
-15.32
-8.03
-1.21
4.46
8.67
11.42
12.91
13.41
13.17
12.39
11.26
9.99
8.81
7.92
7.53
7.77
8.60
9.80
11.08
12.10
12.62
12.63
12.23
11.59
10.79
9.81
8.46
6.60
4.19
1.38
-1.53
-4.23
-6.48
-8.24
-9.61
-10.82
-12.11
-13.73
-15.92
-18.76
-22.17
-25.77
-28.91
-30.77
-30.62
-28.05
-23.15
-16.51
-9.02
-1.70
4.68
9.64
13.04
14.98
15.71
15.49
14.54
13.11
11.41
9.76
8.50
7.85
7.93
8.53
9.29
9.76
9.73
9.23
8.57
8.09
7.98
8.13
8.22
7.82
6.71
4.90
2.65
0.33
-1.81
-3.62
-5.16
-6.56
-8.03
-9.78
-11.96
-14.72
-18.04
-21.73
-25.36
-28.29
-29.82
-29.38
-26.74
-22.10
-16.05
-9.40
-2.95
2.63
6.93
9.79
11.23
11.44
10.70
9.37
7.88
6.63
5.91
5.83
6.39
7.42
8.71
10.03
11.21
12.09
12.56
12.56
12.07
11.10
9.69
7.92
5.84
3.48
0.94
-1.66
-4.10
-6.15
-7.66
-8.67
-9.47
-10.51
-12.25
-14.97
-18.55
-22.45
-25.84
-27.84
-27.78
-25.40
-20.95
-15.02
-8.37
-1.78
4.16
8.97
12.39
14.28
14.65
13.70
11.77
9.37
7.02
5.25
4.38
4.50
5.48
6.97
8.55
9.83
10.61
10.82
10.52
9.79
8.66
7.10
5.08
2.63
-0.10
-2.88
-5.51
-7.81
-9.76
-11.42
-12.96
-14.55
-16.37
