1520867072.00
64.000000
-0.00
-0.00
-0.00
-0.00
-0.00
-0.00
-0.00
-0.00
-0.00
-0.00
0.00
0.01
0.01
-0.00
-0.03
-0.05
-0.05
0.00
0.13
0.36
0.66
1.01
1.37
1.72
2.06
2.40
2.79
3.24
3.80
4.42
5.06
5.66
6.20
6.68
7.15
7.68
8.31
9.14
10.09
11.04
11.88
12.56
13.14
13.76
14.65
15.96
17.91
20.32
22.90
25.38
27.58
29.57
31.68
34.32
37.81
42.54
48.15
54.10
59.83
64.97
69.58
74.14
79.34
85.71
93.76
103.00
112.62
121.73
129.77
136.75
143.30
150.75
157.77
166.64
177.95
191.79
206.97
220.57
228.25
225.36
208.53
176.87
132.76
80.05
23.07
-34.94
-92.44
-149.16
-205.23
-260.37
-313.74
-363.87
-409.83
-450.91
-486.50
-515.74
-537.23
-549.22
-549.96
-538.37
-514.21
-478.67
-433.88
-382.45
-327.02
-269.84
-212.63
-156.66
-102.95
-52.37
-5.90
35.58
71.43
101.35
125.50
144.38
158.69
169.15
176.37
180.75
182.57
182.07
179.51
175.23
169.65
163.18
156.15
148.81
141.30
133.69
126.02
118.33
110.69
103.16
95.80
88.68
81.83
75.25
68.95
62.95
57.25
51.86
46.78
42.03
37.59
33.45
29.61
26.07
22.81
19.83
17.11
14.67
12.48
10.54
8.83
7.35
6.07
4.97
4.05
3.27
2.62
2.09
1.65
1.30
1.01
0.79
0.61
0.47
0.37
0.29
0.23
0.18
0.16
0.14
0.14
0.14
0.16
0.17
0.20
0.23
0.27
0.31
0.35
0.40
0.44
0.49
0.54
0.59
0.64
0.70
0.75
0.82
0.89
0.96
1.05
1.14
1.24
1.36
1.49
1.63
1.80
1.98
2.18
2.41
2.66
2.93
3.24
3.57
3.94
4.33
4.77
5.24
5.75
6.30
6.88
7.51
8.19
8.90
9.67
10.47
11.33
12.22
13.17
14.16
15.22
16.34
17.53
18.76
20.04
21.32
22.54
23.62
24.46
24.93
24.90
24.28
22.97
20.92
18.14
14.69
10.66
6.25
1.64
-2.94
-7.26
-11.12
-14.38
-16.90
-18.67
-19.72
-20.09
-19.90
-19.25
-18.24
-16.95
-15.44
-13.79
-12.09
-10.38
-8.68
-7.07
-5.55
-4.06
-2.55
-0.96
0.72
2.47
4.26
6.08
7.81
9.43
11.04
12.73
14.58
16.62
18.74
20.82
22.84
24.51
25.86
27.12
28.56
30.41
32.69
35.23
37.70
39.93
41.39
42.09
42.39
42.80
43.72
45.18
46.81
48.00
48.29
46.81
43.43
38.46
32.40
25.49
17.36
6.78
-8.55
-26.78
-48.30
-73.64
-102.79
-134.61
-166.38
-194.12
-213.60
-221.80
-218.04
-205.04
-187.11
-168.66
-152.66
-140.05
-129.95
-120.62
-110.39
-98.10
-83.78
-67.69
-50.27
-32.14
-14.07
3.08
18.54
31.79
42.66
51.01
57.03
61.13
63.87
65.80
67.26
68.37
69.07
69.27
68.87
68.00
66.86
65.59
64.15
62.36
59.99
56.93
53.18
48.79
43.81
38.31
32.35
26.12
19.94
14.12
8.87
4.19
-0.15
-4.58
-9.62
-15.72
-23.14
-31.73
-40.84
-49.37
-55.94
-59.24
-58.41
-53.31
-44.50
-33.18
-20.69
-8.28
3.14
13.11
21.49
28.31
33.67
37.64
40.29
41.78
42.43
42.67
42.87
43.17
43.44
43.39
42.77
41.51
39.85
38.11
36.56
35.21
33.83
32.05
29.60
26.33
22.30
17.65
12.56
7.24
1.93
-3.17
-7.92
-12.31
-16.48
-20.73
-25.45
-31.06
-37.83
-45.64
-53.80
-61.02
-65.68
-66.37
-62.40
-54.06
-42.59
-29.66
-16.83
-5.12
4.99
13.48
20.52
26.24
30.78
34.21
36.63
38.21
39.14
39.68
39.99
40.17
40.14
39.82
39.12
38.10
36.98
35.96
35.09
34.19
32.87
30.71
27.48
23.20
18.17
12.75
7.28
1.97
-3.06
-7.79
-12.24
-16.46
-20.66
-25.14
-30.28
-36.39
-43.45
-50.97
-57.87
-62.78
-64.34
-61.73
-54.96
-44.90
-33.04
-20.93
-9.81
-0.27
7.66
14.34
20.09
25.04
29.07
31.99
33.78
34.69
35.20
35.85
36.90
38.25
39.46
40.04
39.74
38.65
37.11
35.48
33.88
32.18
30.07
27.29
23.76
19.59
15.00
10.17
5.21
0.20
-4.72
-9.33
-13.38
-16.82
-19.84
-23.02
-27.12
-32.73
-39.96
-48.20
-56.15
-62.18
-64.79
-63.06
-56.96
-47.35
-35.63
-23.43
-12.09
-2.41
5.44
11.74
16.96
21.46
25.35
28.58
31.02
32.67
33.67
34.31
34.87
35.48
36.13
36.71
37.08
37.10
36.70
35.82
34.48
32.73
30.57
28.05
25.15
21.92
18.38
14.64
10.82
7.01
3.25
-0.48
-4.22
-8.03
-11.95
-16.05
-20.45
-25.32
-30.88
-37.16
-43.93
-50.50
-55.84
-58.74
-58.20
-53.78
-45.80
-35.33
-23.85
-12.82
-3.26
4.49
10.65
15.71
20.08
23.91
27.11
29.50
31.05
31.89
32.25
32.32
32.16
31.72
31.00
30.08
29.17
28.47
28.05
27.78
27.38
26.57
25.17
23.11
20.42
17.13
13.27
8.95
4.36
-0.19
-4.41
-8.16
-11.46
-14.55
-17.75
-21.42
-25.87
-31.19
-37.22
-43.38
-48.64
-51.79
-51.79
-48.12
-41.09
-31.73
-21.41
-11.47
-2.83
4.09
9.32
13.09
15.66
17.29
18.14
18.39
18.19
17.71
17.10
16.52
16.10
15.98
16.28
17.05
18.26
19.67
20.91
21.50
21.04
19.36
16.62
13.27
9.85
6.76
4.12
1.77
-0.59
-3.19
-6.13
-9.33
-12.69
-16.08
-19.47
-22.88
-26.43
-30.26
-34.52
-39.30
-44.34
-49.00
-52.30
-53.16
-50.84
-45.26
-37.10
-27.59
-18.02
-9.37
-2.08
3.85
8.66
12.54
15.60
17.87
19.37
20.22
20.60
20.66
20.58
20.42
20.27
20.22
20.34
20.68
21.18
21.70
22.06
22.05
21.54
20.45
18.73
16.38
13.45
10.08
6.44
2.73
-0.87
-4.27
-7.43
-10.39
-13.18
-15.94
-18.84
-22.12
-26.01
-30.67
-36.08
-41.98
-47.80
-52.73
-55.81
-56.15
-53.19
-46.95
-38.10
-27.86
-17.61
-8.55
-1.27
4.21
8.31
11.57
14.36
16.85
19.05
20.91
22.38
23.48
24.23
24.72
25.07
25.44
25.93
26.56
27.17
27.49
27.20
26.10
24.10
21.27
17.75
13.76
9.50
5.16
0.94
-3.07
-6.88
-10.61
-14.41
-18.44
-22.77
-27.44
-32.34
-37.28
-42.00
-46.19
-49.58
-52.00
-53.39
-53.75
-53.06
-51.19
-47.93
-43.06
-36.50
-28.42
-19.30
-9.87
-1.00
6.49
12.04
15.37
16.56
15.98
14.16
11.78
9.53
8.01
7.55
8.13
9.34
10.58
11.24
10.98
9.81
8.00
5.93
3.85
1.85
-0.10
-2.02
-3.85
-5.48
-6.82
-7.91
-8.91
-10.02
-11.47
-13.41
-15.86
-18.71
-21.77
-24.72
-27.24
-29.02
-29.78
-29.33
-27.55
-24.41
-19.99
-14.53
-8.34
-1.84
4.58
10.57
15.88
20.34
23.92
26.69
28.83
30.69
32.66
35.10
38.27
42.20
46.76
51.66
56.60
61.39
66.12
71.04
76.47
82.38
88.12
92.34
93.21
89.01
78.71
62.45
41.62
18.62
-3.62
-22.12
-34.53
-39.55
-37.48
-30.18
-20.75
-12.62
-8.63
-10.13
-16.86
-27.20
-38.84
-49.38
-56.92
-60.18
-58.65
-52.58
-42.98
-31.38
-19.51
-8.93
-0.67
4.88
7.94
9.15
9.32
9.18
9.28
9.87
10.92
12.28
13.66
14.83
15.58
15.77
15.35
14.42
13.19
11.98
11.01
10.35
9.91
9.44
8.79
7.87
6.75
5.48
4.03
2.31
0.20
-2.31
-5.10
-8.02
-10.91
-13.72
-16.50
-19.40
-22.57
-26.07
-29.77
-33.28
-35.94
-37.00
-35.83
-32.21
-26.47
-19.43
-12.10
-5.39
0.16
4.34
7.23
9.05
10.12
10.76
11.30
12.02
13.01
14.20
15.37
16.23
16.49
16.05
15.00
13.61
12.24
11.25
10.79
10.77
10.86
10.59
9.58
7.71
5.20
2.46
-0.10
-2.23
-3.94
-5.38
-6.70
-8.04
-9.43
-10.89
-12.50
-14.40
-16.69
-19.43
-22.48
-25.55
-28.22
-30.04
-30.63
-29.76
-27.43
-23.83
-19.35
-14.49
-9.70
-5.31
-1.48
1.75
4.51
6.88
8.89
10.46
11.55
12.20
12.64
13.16
14.00
15.13
16.29
17.10
17.38
17.22
16.96
16.90
17.11
17.27
16.85
15.44
12.98
9.83
6.53
3.58
1.21
-0.73
-2.55
-4.60
-7.06
-9.84
-12.60
-14.96
-16.64
-17.73
-18.65
-20.02
-22.33
-25.65
-29.45
-32.78
-34.65
-34.42
-32.03
-27.96
-22.93
-17.63
-12.48
-7.67
-3.21
0.88
4.52
7.54
9.76
11.04
11.42
11.07
10.32
9.52
8.99
8.91
9.30
10.04
10.91
11.68
12.18
12.36
12.20
11.75
11.06
10.16
9.05
7.73
6.22
4.54
2.72
0.71
-1.58
-4.14
-6.87
-9.47
-11.52
-12.72
-13.01
-12.65
-12.14
-12.03
-12.78
-14.58
-17.36
-20.80
-24.34
-27.30
-29.01
-28.97
-27.03
-23.48
-18.94
-14.15
-9.66
-5.79
-2.52
0.29
2.73
4.78
6.37
7.44
8.04
8.37
8.59
8.81
8.99
9.02
8.88
8.60
8.36
8.31
8.49
8.82
9.08
9.07
8.68
7.97
7.09
6.19
5.38
4.67
4.07
3.59
3.20
2.81
2.24
1.31
-0.11
-1.99
-4.16
-6.37
-8.53
-10.75
-13.35
-16.66
-20.86
-25.75
-30.73
-34.93
-37.44
-37.60
-35.21
-30.71
-24.97
-19.00
-13.57
-8.93
-4.85
-0.86
3.32
7.63
11.65
14.85
16.92
17.94
18.26
18.35
18.54
18.89
19.28
19.55
19.63
19.57
19.46
19.35
19.14
18.70
17.87
16.60
15.05
13.40
11.82
10.35
8.91
7.30
5.39
3.17
0.81
-1.49
-3.56
-5.32
-6.86
-8.41
-10.29
-12.79
-16.06
-19.98
-24.05
-27.57
-29.78
-30.15
-28.56
-25.31
-20.97
-16.13
-11.21
-6.44
-1.90
2.37
6.27
9.66
12.43
14.49
15.82
16.52
16.76
16.74
16.68
16.74
16.92
17.12
17.16
17.00
16.66
16.29
15.99
15.74
15.37
14.69
13.60
12.12
10.41
8.62
6.75
4.77
2.56
0.08
-2.54
-5.13
-7.55
-9.80
-12.02
-14.53
-17.54
-21.15
-25.20
-29.25
-32.69
-34.82
-35.14
-33.37
-29.63
-24.38
-18.24
-11.81
-5.60
0.04
4.94
9.02
12.29
14.76
16.54
17.70
18.34
18.54
18.38
18.02
17.64
17.45
17.54
17.90
18.31
18.48
18.18
17.35
16.14
14.79
13.52
12.34
11.14
9.68
7.79
5.48
2.95
0.47
-1.72
-3.62
-5.40
-7.40
-9.98
-13.38
-17.69
-22.74
-28.18
-33.45
-37.85
-40.74
-41.62
-40.30
-36.95
-32.02
-26.11
-19.83
-13.61
-7.77
-2.42
2.36
6.45
9.78
12.26
13.92
14.92
15.53
16.01
16.61
17.42
18.41
19.48
20.48
21.26
21.76
21.94
21.83
21.53
21.21
20.96
20.81
20.62
20.13
19.06
17.24
14.72
11.79
8.84
6.15
3.80
1.65
-0.59
-3.14
-6.09
-9.36
-12.88
-16.64
-20.78
-25.38
-30.33
-35.02
-38.52
-39.83
-38.22
-33.62
-26.70
-18.65
-10.69
-3.68
2.04
6.64
10.44
13.73
16.54
18.82
20.45
21.48
22.02
22.30
22.51
22.74
23.03
23.39
23.78
24.18
24.52
24.71
24.63
24.16
23.21
21.71
19.64
17.13
14.38
11.67
9.26
7.27
5.64
4.14
2.47
0.43
-2.02
-4.79
-7.72
-10.68
-13.74
-17.15
-21.31
-26.41
-32.40
-38.60
-43.98
-47.27
-47.55
-44.50
-38.55
-30.71
-22.13
-13.82
-6.34
0.11
5.55
10.06
13.72
16.61
18.84
20.55
21.93
23.18
24.43
25.77
27.11
28.26
28.95
28.99
28.47
27.66
26.99
26.68
26.54
26.11
24.77
22.25
18.72
14.80
11.23
8.50
6.63
5.25
3.85
2.06
-0.15
-2.57
-4.92
-7.03
-9.00
-11.09
-13.67
-16.99
-21.19
-26.25
-31.97
-37.91
-43.43
-47.59
-49.44
-48.24
-43.78
-36.58
-27.70
-18.44
-9.91
-2.70
3.11
7.74
11.44
14.32
16.39
17.72
18.56
19.29
20.24
21.48
22.79
23.73
23.99
23.51
22.60
21.73
21.25
21.23
21.43
21.50
21.18
20.37
19.14
17.56
15.63
13.29
10.53
7.47
4.33
1.41
-1.16
-3.45
-5.71
-8.29
-11.48
-15.43
-20.17
-25.60
-31.42
-37.08
-41.80
-44.64
-44.89
-42.27
-37.10
-30.17
-22.47
-14.88
-7.97
-2.01
2.95
6.96
10.13
12.60
14.46
15.83
16.75
17.16
17.11
16.73
16.33
16.26
16.80
18.11
20.17
22.86
25.91
28.96
31.56
33.28
33.78
32.99
31.01
28.06
24.41
20.25
15.81
11.35
7.18
3.54
0.57
-1.94
-4.34
-7.10
-10.60
-15.04
-20.48
-26.79
-33.65
-40.48
-46.49
-50.80
-52.57
-51.35
-47.18
-40.63
-32.62
-24.15
-16.05
-8.81
-2.56
2.79
7.34
11.11
14.00
15.90
16.78
16.83
16.41
15.95
15.85
16.36
17.63
19.65
22.29
25.20
27.91
29.90
30.79
30.48
29.15
27.23
25.16
23.24
21.62
20.30
19.14
17.96
16.53
14.57
11.89
8.45
4.49
0.42
-3.30
-6.40
-8.96
-11.49
-14.72
-19.25
-25.25
-32.21
-38.93
-43.90
-45.75
-43.74
-38.04
-29.59
-19.78
-9.98
-1.22
5.91
11.20
14.71
16.63
17.31
17.18
16.74
16.43
16.55
17.16
18.11
19.11
19.81
19.98
19.57
18.75
17.85
17.19
16.93
17.03
17.25
17.25
16.77
15.61
13.72
11.09
7.86
4.26
0.66
-2.58
-5.22
-7.20
-8.73
-10.16
-11.86
-14.12
-17.14
-21.00
-25.66
-30.89
-36.16
-40.70
-43.56
-43.90
-41.32
-36.00
-28.68
-20.42
-12.31
-5.12
0.70
5.09
8.28
10.61
12.50
14.32
16.32
18.63
21.16
23.75
26.13
28.09
29.53
30.45
30.93
31.08
30.97
30.62
29.98
29.02
27.76
26.28
24.75
23.33
22.01
20.65
18.97
16.82
14.25
11.59
9.30
7.80
7.11
6.91
6.57
5.41
2.96
-0.93
-6.07
-11.99
-17.93
-22.96
-26.06
-26.36
-23.42
-17.49
-9.46
-0.64
7.66
14.56
19.70
23.15
25.16
25.92
25.54
24.16
22.09
19.76
17.64
16.08
15.21
14.96
15.19
15.71
16.31
16.76
16.84
16.39
15.35
13.82
11.96
9.89
7.64
5.17
2.44
-0.42
-3.17
-5.53
-7.36
-8.73
-9.90
-11.28
-13.22
-15.97
-19.58
-23.91
-28.65
-33.26
-37.05
-39.26
-39.26
-36.77
-31.98
-25.51
-18.18
-10.78
-3.88
2.25
7.50
11.85
15.23
17.47
18.54
18.47
17.56
16.30
15.22
14.67
14.71
15.13
15.55
15.77
15.75
15.66
15.64
15.57
15.10
13.81
11.48
8.30
4.82
1.64
-0.83
-2.59
-3.88
-5.06
-6.36
-7.94
-10.01
-12.78
-16.46
-21.01
-25.98
-30.51
-33.57
-34.32
-32.44
-28.22
-22.42
-16.05
-9.99
-4.76
-0.59
2.59
4.93
6.50
7.29
7.36
6.84
6.10
5.56
5.50
5.88
6.38
6.56
6.15
5.22
4.06
3.08
2.54
2.43
2.50
2.47
2.07
1.23
0.06
-1.26
-2.54
-3.61
-4.42
-5.05
-5.68
-6.59
-8.01
-10.10
-12.89
-16.21
-19.60
-22.41
-23.86
-23.32
-20.57
-15.93
-10.15
-4.15
1.36
6.03
9.88
13.02
15.54
17.37
18.39
18.61
18.20
17.44
16.61
15.88
15.30
14.92
14.81
15.04
15.64
16.49
17.29
17.69
17.40
16.30
14.45
12.03
9.28
6.45
3.77
1.39
-0.58
-2.14
-3.43
-4.70
-6.30
-8.56
-11.62
-15.36
-19.35
-22.92
-25.38
-26.21
-25.13
-22.28
-18.12
-13.30
-8.46
-4.17
-0.73
1.75
3.33
4.21
4.51
4.37
3.95
3.40
2.89
2.57
2.44
2.35
2.09
1.51
0.61
-0.46
-1.51
-2.39
-3.14
-3.90
-4.85
-6.05
-7.50
-9.09
-10.69
-12.22
-13.64
-14.96
-16.24
-17.62
-19.29
-21.36
-23.79
-26.26
-28.25
-29.15
-28.52
-26.27
-22.67
-18.24
-13.60
-9.25
-5.40
-2.10
0.75
3.16
5.02
6.11
6.27
5.51
4.16
2.66
1.38
0.48
-0.03
-0.24
-0.12
0.38
1.24
2.22
2.88
2.74
1.62
-0.23
-2.32
-4.09
-5.30
-6.09
-6.85
-7.94
-9.50
-11.48
-13.72
-16.16
-18.79
-21.55
-24.18
-26.19
-26.98
-26.07
-23.40
-19.34
-14.67
-10.19
-6.47
-3.63
-1.45
0.45
2.33
4.21
5.91
7.24
8.09
8.50
8.58
8.43
8.07
7.51
6.77
5.92
5.08
4.30
3.62
3.01
2.38
1.63
0.65
-0.71
-2.47
-4.51
-6.57
-8.36
-9.80
-11.07
-12.61
-14.88
-18.05
-21.84
-25.52
-28.20
-29.13
-27.96
-24.86
-20.42
-15.42
-10.63
-6.55
-3.34
-0.90
1.09
2.90
4.67
6.40
7.98
9.31
10.32
10.98
11.21
10.97
10.31
9.37
8.41
7.66
7.21
6.94
6.63
6.03
4.98
3.35
1.12
-1.64
-4.72
-7.79
-10.43
-12.30
-13.33
-13.71
-13.90
-14.37
-15.47
-17.42
-20.21
-23.64
-27.26
-30.38
-32.19
-32.01
-29.53
-24.98
-19.04
-12.64
-6.63
-1.61
2.15
4.71
6.41
7.70
9.06
10.74
12.74
14.74
16.36
17.23
17.30
16.69
15.60
14.25
12.85
11.56
10.67
10.42
10.87
11.82
12.78
13.17
12.56
10.83
8.18
5.07
2.01
-0.58
-2.49
-3.71
-4.52
-5.37
-6.78
-9.23
-12.84
-17.43
-22.36
-26.72
-29.56
-30.19
-28.36
-24.36
-18.88
-12.81
-6.87
-1.56
3.00
6.86
10.08
12.69
14.68
16.04
16.85
17.25
17.41
17.44
17.47
17.65
18.11
18.88
19.82
20.67
21.10
20.98
20.40
19.66
19.06
18.71
18.47
18.00
16.98
15.22
12.77
9.82
6.73
3.80
1.29
-0.69
-2.19
-3.39
-4.60
-6.20
-8.52
-11.79
-16.02
-20.83
-25.50
-29.04
-30.50
-29.36
-25.68
-20.16
-13.85
-7.77
-2.57
1.53
4.59
6.86
8.51
9.69
10.53
11.22
11.99
12.97
14.17
15.46
16.61
17.40
17.65
17.34
16.60
15.65
14.76
14.09
13.60
13.11
12.34
11.08
9.26
7.00
4.56
2.25
0.29
-1.19
-2.22
-2.99
-3.78
-4.92
-6.81
-9.69
-13.64
-18.41
-23.41
-27.80
-30.64
-31.24
-29.32
-25.15
-19.51
-13.42
-7.78
-3.10
0.63
3.66
6.34
8.83
11.09
13.01
14.46
15.47
16.13
16.57
16.86
17.01
17.07
17.09
17.15
17.31
17.50
17.62
17.54
17.21
16.62
15.79
14.70
13.29
11.58
9.67
7.80
6.16
4.80
3.63
2.42
0.96
-0.85
-2.99
-5.36
-7.95
-10.84
-14.16
-17.90
-21.81
-25.30
-27.67
-28.27
-26.83
-23.48
-18.75
-13.34
-7.96
-3.06
1.14
4.63
7.55
9.97
11.97
13.56
14.73
15.54
16.05
16.40
16.68
17.00
17.31
17.53
17.57
17.37
17.00
16.57
16.21
15.99
15.87
15.70
15.29
14.50
13.32
11.83
10.19
8.57
7.05
5.66
4.38
3.15
1.90
0.54
-1.05
-3.04
-5.62
-8.95
-13.02
-17.62
-22.31
-26.49
-29.42
-30.49
-29.28
-25.84
-20.63
-14.46
-8.26
-2.82
1.43
4.49
6.70
8.52
10.25
12.02
13.72
15.20
16.37
17.22
17.77
18.06
18.11
17.95
17.72
17.60
17.76
18.30
19.09
19.84
20.10
19.53
18.01
15.72
13.16
10.92
9.40
8.65
8.34
7.83
6.59
4.37
1.39
-1.83
-4.74
-6.95
-8.46
-9.52
-10.54
-11.83
-13.63
-15.94
-18.63
-21.37
-23.63
-24.81
-24.40
-22.17
-18.31
-13.38
-8.19
-3.44
0.38
3.14
4.96
6.10
6.79
7.23
7.59
8.00
8.53
9.21
9.97
10.65
11.13
11.29
11.15
10.80
10.35
9.92
9.57
9.27
8.91
8.38
7.56
6.42
5.06
3.61
2.30
1.25
0.47
-0.18
-0.87
-1.78
-3.02
-4.60
-6.50
-8.70
-11.25
-14.17
-17.40
-20.74
-23.78
-26.06
-27.12
-26.64
-24.58
-21.19
-16.93
-12.38
-8.05
-4.32
-1.33
0.99
2.78
4.23
5.41
6.35
7.02
7.46
7.76
8.05
8.43
8.91
9.42
9.84
10.12
10.20
10.12
9.92
9.64
9.27
8.79
8.16
7.34
6.29
4.98
3.44
1.68
-0.21
-2.13
-3.98
-5.63
-7.05
-8.26
-9.41
-10.67
-12.25
-14.30
-16.88
-19.90
-23.07
-25.97
-28.13
-29.13
-28.72
-26.87
-23.75
-19.71
-15.22
-10.79
-6.90
-3.89
-1.89
-0.71
-0.00
0.64
1.47
2.54
3.77
5.00
6.16
7.23
8.17
8.90
9.27
9.23
8.85
8.44
8.28
8.56
9.19
9.83
10.03
9.47
8.11
6.17
4.05
2.11
0.55
-0.66
-1.71
-2.81
-4.07
-5.50
-7.00
-8.60
-10.43
-12.77
-15.86
-19.72
-24.01
-28.00
-30.86
-31.90
-30.87
-28.02
-24.00
-19.52
-15.17
-11.24
-7.79
-4.71
-1.89
0.75
3.21
5.49
7.53
9.23
10.47
11.16
11.25
10.83
10.11
9.41
9.03
9.16
9.85
10.93
12.13
13.11
13.65
13.60
12.97
11.87
10.48
8.98
7.51
6.20
5.10
4.15
3.25
2.25
1.03
-0.40
-1.96
-3.54
-5.18
-7.04
-9.40
-12.51
-16.41
-20.83
-25.21
-28.83
-31.05
-31.45
-29.97
-26.84
-22.47
-17.39
-12.09
-6.99
-2.39
1.51
4.62
6.90
8.45
9.40
9.97
10.37
10.74
11.08
11.29
11.29
11.08
10.84
10.80
11.09
11.67
12.28
12.64
12.47
11.71
10.49
8.99
7.35
5.65
3.89
2.13
0.46
-0.99
-2.15
-3.13
-4.15
-5.44
-7.17
-9.36
-11.97
-14.91
-18.14
-21.53
-24.82
-27.53
-29.05
-28.90
-26.90
-23.27
-18.53
-13.29
-8.06
-3.14
1.29
5.08
8.02
9.91
10.65
10.36
9.36
8.12
7.07
6.55
6.70
7.47
8.67
10.01
11.18
11.93
12.13
11.83
11.14
10.26
9.36
8.52
7.74
6.92
5.95
4.71
3.21
1.52
-0.22
-1.93
-3.58
-5.28
-7.19
-9.44
-12.13
-15.35
-19.16
-23.53
-28.22
-32.73
-36.30
-38.11
-37.59
-34.67
-29.78
-23.75
-17.51
-11.76
-6.93
-3.06
-0.01
2.44
4.49
6.20
7.56
8.52
9.11
9.47
9.84
10.47
11.47
12.80
14.21
15.43
16.20
16.41
16.17
15.68
15.19
14.82
14.55
14.21
13.53
12.38
10.78
8.89
6.93
5.03
3.16
1.18
-1.11
-3.84
-7.04
-10.74
-14.97
-19.81
-25.21
-30.88
-36.23
-40.42
-42.62
-42.33
-39.52
-34.66
-28.53
-21.92
-15.42
-9.38
-3.92
0.89
5.05
8.53
11.36
13.61
15.40
16.83
17.95
18.85
19.58
20.25
20.95
21.70
22.46
23.08
23.49
23.59
23.41
22.97
22.34
21.52
20.49
19.22
17.69
15.96
14.09
12.17
10.23
8.19
5.96
3.43
0.61
-2.41
-5.47
-8.52
-11.63
-15.08
-19.12
-23.80
-28.74
-33.13
-35.96
-36.37
-34.03
-29.24
-22.84
-15.87
-9.19
-3.36
1.45
5.29
8.28
10.52
12.14
13.29
14.17
14.97
15.78
16.56
17.25
17.82
18.28
18.71
19.15
19.59
20.03
20.43
20.78
21.05
21.14
20.95
20.38
19.39
18.00
16.31
14.43
12.42
10.32
8.16
5.95
3.73
1.46
-0.94
-3.66
-6.89
-10.83
-15.54
-20.85
-26.24
-30.95
-34.06
-34.81
-32.82
-28.26
-21.80
-14.42
-7.12
-0.62
4.69
8.77
11.77
13.89
15.31
16.19
16.67
16.88
16.96
17.02
17.17
17.46
17.90
18.45
19.04
19.55
19.85
19.87
19.60
19.08
18.41
17.63
16.70
15.51
13.93
11.93
9.61
7.19
4.92
2.95
1.32
-0.09
-1.46
-3.06
-5.15
-8.05
-11.98
-16.96
-22.65
-28.30
-33.00
-35.83
-36.25
-34.24
-30.26
-25.03
-19.27
-13.58
-8.33
-3.71
0.18
3.30
5.64
7.19
7.97
8.03
7.61
7.06
6.89
7.56
9.29
11.98
15.17
18.25
20.71
22.29
23.02
23.13
22.89
22.44
21.79
20.89
19.67
18.11
16.24
14.12
11.81
9.32
6.67
3.93
1.18
-1.41
-3.70
-5.66
-7.50
-9.63
-12.51
-16.51
-21.60
-27.27
-32.60
-36.49
-38.01
-36.64
-32.44
-26.05
-18.43
-10.64
-3.55
2.33
6.90
10.39
13.18
15.59
17.79
19.72
21.25
22.21
22.59
22.48
22.13
21.77
21.63
21.78
22.23
22.87
23.60
24.35
25.01
25.45
25.51
25.01
23.81
21.96
19.66
17.19
14.81
12.57
10.37
8.00
5.42
2.67
0.00
-2.43
-4.65
-6.94
-9.75
-13.53
-18.46
-24.30
-30.44
-35.95
-39.83
-41.25
-39.81
-35.69
-29.56
-22.43
-15.34
-9.03
-3.78
0.49
4.11
7.30
10.11
12.36
13.83
14.46
14.44
14.14
13.99
14.25
14.94
15.87
16.75
17.35
17.54
17.30
16.75
15.99
15.11
14.13
12.93
11.39
9.39
7.01
4.47
2.11
0.19
-1.20
-2.23
-3.21
-4.43
-6.10
-8.39
-11.46
-15.49
-20.53
-26.29
-31.99
-36.48
-38.58
-37.53
-33.31
-26.72
-19.02
-11.46
-4.90
0.43
4.72
8.34
11.50
14.14
16.06
17.07
17.22
16.85
16.46
16.46
17.00
17.91
18.79
19.29
19.21
18.62
17.73
16.78
15.93
15.18
14.48
13.78
13.01
12.11
11.01
9.57
7.70
5.41
2.89
0.41
-1.81
-3.74
-5.64
-7.96
-11.21
-15.68
-21.27
-27.43
-33.30
-37.86
-40.27
-40.01
-37.08
-31.88
-25.14
-17.71
-10.38
-3.73
1.94
6.59
10.33
13.30
15.59
17.15
17.94
17.95
17.35
16.46
15.66
15.32
15.65
16.61
18.02
19.55
20.90
21.88
22.39
22.47
22.17
21.55
20.58
19.17
17.27
14.89
12.21
9.42
6.74
4.26
1.97
-0.23
-2.44
-4.72
-7.15
-9.85
-13.04
-16.92
-21.53
-26.52
-31.11
-34.27
-35.09
-33.11
-28.52
-22.14
-15.03
-8.21
-2.31
2.51
6.39
9.65
12.52
15.14
17.43
19.24
20.43
20.99
21.04
20.83
20.69
20.86
21.40
22.22
23.09
23.76
24.04
23.87
23.29
22.41
21.30
20.09
18.87
17.71
16.65
15.61
14.41
12.83
10.72
8.17
5.44
2.90
0.81
-0.85
-2.34
-4.07
-6.38
-9.45
-13.26
-17.64
-22.31
-26.81
-30.48
-32.54
-32.28
-29.40
-24.21
-17.55
-10.54
-4.20
0.92
4.77
7.61
9.81
11.52
12.73
13.27
13.09
12.32
11.32
10.49
10.17
10.43
11.17
12.12
13.07
13.92
14.64
15.23
15.63
15.68
15.25
14.29
12.86
11.13
9.24
7.27
5.25
3.15
1.03
-1.02
-2.89
-4.54
-6.00
-7.39
-8.91
-10.80
-13.28
-16.50
-20.42
-24.73
-28.78
-31.75
-32.87
-31.70
-28.22
-22.97
-16.74
-10.42
-4.70
0.00
3.62
6.25
8.12
9.36
10.08
10.32
10.22
9.96
9.79
9.89
10.27
10.78
11.18
11.29
11.08
10.75
10.53
10.55
10.76
10.90
10.76
10.19
9.24
8.07
6.80
5.48
4.10
2.63
1.16
-0.22
-1.42
-2.49
-3.61
-5.02
-6.93
-9.39
-12.37
-15.82
-19.67
-23.76
-27.67
-30.80
-32.38
-31.83
-29.01
-24.38
-18.81
-13.27
-8.47
-4.62
-1.54
1.13
3.60
5.83
7.60
8.70
9.07
8.92
8.53
8.16
7.89
7.64
7.34
7.02
6.88
7.15
7.93
9.11
10.31
11.11
11.19
10.49
9.16
7.49
5.75
4.17
2.91
2.00
1.38
0.82
0.07
-1.15
-2.88
-5.02
-7.33
-9.59
-11.77
-14.04
-16.68
-19.87
-23.59
-27.49
-31.00
-33.48
-34.36
-33.32
-30.37
-25.88
-20.45
-14.75
-9.31
-4.43
-0.23
3.24
5.88
7.58
8.25
7.97
7.11
6.18
5.69
5.93
6.90
8.30
9.77
10.94
11.59
11.77
11.62
11.35
11.10
10.89
10.58
10.02
9.17
8.11
7.05
6.18
5.55
5.04
4.38
3.32
1.76
-0.17
-2.16
-3.86
-5.09
-5.86
-6.49
-7.40
-9.01
-11.54
-14.98
-19.00
-23.07
-26.58
-28.93
-29.65
-28.49
-25.57
-21.27
-16.21
-11.07
-6.37
-2.41
0.78
3.28
5.19
6.56
7.37
7.61
7.35
6.74
6.05
5.52
5.38
5.72
6.49
7.57
8.77
9.92
10.94
11.77
12.34
12.59
12.46
11.93
11.04
9.85
8.41
6.73
4.82
2.74
0.65
-1.26
-2.86
-4.21
-5.51
-7.04
-9.03
-11.51
-14.38
-17.49
-20.67
-23.71
-26.30
-27.95
-28.19
-26.65
-23.35
-18.69
-13.39
-8.22
-3.79
-0.34
2.16
3.81
4.72
4.92
4.44
3.41
2.19
1.19
0.78
1.08
1.91
2.90
3.66
3.97
3.84
3.47
3.08
2.79
2.52
2.14
1.47
0.43
-0.91
-2.42
-3.93
-5.36
-6.69
-7.97
-9.24
-10.50
-11.75
-13.08
-14.65
-16.67
-19.18
-21.92
-24.30
-25.59
-25.17
-22.88
-19.06
-14.43
-9.78
-5.65
-2.22
0.64
3.12
5.32
7.11
8.33
8.81
8.61
7.93
7.08
6.30
5.68
5.18
4.75
4.38
4.23
4.42
5.01
5.84
6.54
6.68
5.91
4.15
1.56
-1.48
-4.54
-7.27
-9.42
-10.90
-11.79
-12.33
-12.90
-13.98
-15.97
-19.06
-23.03
-27.18
-30.57
-32.28
-31.81
-29.23
-25.14
-20.28
-15.32
-10.62
-6.33
-2.53
0.64
2.97
4.36
4.91
4.95
4.92
5.15
5.80
6.72
7.70
8.51
9.02
9.23
9.20
9.10
9.03
9.08
9.22
9.27
8.97
8.13
6.62
4.56
2.20
-0.08
-2.01
-3.50
-4.63
-5.68
-6.94
-8.66
-10.90
-13.60
-16.55
-19.48
-22.14
-24.16
-25.18
-24.87
-23.04
-19.79
-15.54
-10.91
-6.49
-2.63
0.67
3.63
6.47
9.20
11.61
13.40
14.39
14.69
14.70
14.81
15.26
15.98
16.69
17.06
16.91
16.34
15.63
15.11
14.97
15.14
15.40
15.50
15.32
14.94
14.45
13.89
13.09
11.74
9.61
6.73
3.41
0.14
-2.71
-5.10
-7.31
-9.79
-12.81
-16.31
-19.84
-22.73
-24.36
-24.36
-22.71
-19.61
-15.50
-10.81
-5.95
-1.21
3.16
7.02
10.27
12.90
14.96
16.53
17.74
18.73
19.63
20.54
21.47
22.38
23.16
23.74
24.08
24.23
24.27
24.25
24.14
23.85
23.28
22.38
21.21
19.94
18.76
17.80
17.06
16.43
15.72
14.74
13.39
11.66
9.64
7.53
5.55
3.84
2.37
0.91
-0.91
-3.51
-7.04
-11.25
-15.49
-18.90
-20.73
-20.61
-18.65
-15.32
-11.23
-6.91
-2.69
1.24
4.79
7.91
10.52
12.60
14.14
15.19
15.86
16.24
16.44
16.50
16.41
16.16
15.74
15.20
14.67
14.26
14.07
14.01
13.95
13.72
13.19
12.30
11.07
9.53
7.73
5.80
3.92
2.31
1.10
0.31
-0.24
-0.85
-1.83
-3.33
-5.31
-7.58
-9.92
-12.20
-14.37
-16.39
-18.21
-19.70
-20.68
-21.01
-20.60
-19.47
-17.71
-15.45
-12.81
-9.96
-7.11
-4.51
-2.37
-0.84
0.09
0.56
0.77
0.88
1.00
1.15
1.35
1.61
2.00
2.60
3.41
4.41
5.46
6.42
7.18
7.66
7.76
7.44
6.60
5.26
3.54
1.69
-0.00
-1.35
-2.37
-3.28
-4.38
-5.91
-7.92
-10.29
-12.79
-15.12
-17.01
-18.26
-18.70
-18.21
-16.71
-14.24
-10.90
-6.96
-2.84
1.05
4.31
6.72
8.28
9.20
9.75
10.07
10.14
9.81
9.00
7.88
6.74
5.97
5.84
6.26
6.98
7.59
7.81
7.44
6.45
4.89
2.92
0.84
-1.00
-2.23
-2.68
-2.46
-1.96
-1.65
-1.91
-2.87
-4.45
-6.41
-8.52
-10.61
-12.52
-14.19
-15.64
-17.03
-18.63
-20.60
-22.85
-24.89
-26.09
-25.92
-24.21
-21.33
-17.87
-14.40
-11.17
-8.12
-5.03
-1.84
1.30
3.98
5.80
6.57
6.42
5.83
5.37
5.45
6.24
7.56
9.08
10.48
11.55
12.27
12.66
12.75
12.52
11.97
11.16
10.25
9.42
8.83
8.50
8.37
8.25
7.95
7.21
5.85
3.85
1.42
-1.05
-3.06
-4.24
-4.60
-4.47
-4.40
-4.96
-6.52
-9.17
-12.77
-16.95
-21.10
-24.51
-26.45
-26.43
-24.38
-20.72
-16.23
-11.81
-8.13
-5.55
-4.06
-3.36
-3.06
-2.78
-2.31
-1.55
-0.58
0.48
1.52
2.48
3.37
4.09
4.55
4.66
4.50
4.23
4.17
4.50
5.20
5.97
6.40
6.17
5.17
3.59
1.70
-0.16
-1.77
-3.04
-3.94
-4.52
-4.90
-5.25
-5.72
-6.54
-7.87
-9.83
-12.44
-15.54
-18.75
-21.53
-23.29
-23.63
-22.50
-20.19
-17.24
-14.15
-11.25
-8.59
-6.08
-3.63
-1.26
0.78
2.24
2.98
3.07
2.81
2.55
2.62
3.13
3.96
4.87
5.58
5.86
5.60
4.88
3.84
2.72
1.75
1.05
0.65
0.45
0.28
-0.05
-0.67
-1.65
-3.01
-4.70
-6.60
-8.60
-10.54
-12.35
-13.98
-15.50
-17.01
-18.63
-20.41
-22.39
-24.59
-26.91
-29.18
-31.10
-32.24
-32.22
-30.83
-28.10
-24.38
-20.09
-15.61
-11.16
-6.80
-2.57
1.36
4.71
7.19
8.59
8.99
8.71
8.18
7.81
7.85
8.35
9.22
10.33
11.50
12.55
13.28
13.56
13.30
12.51
11.21
9.53
7.60
5.62
3.74
2.15
0.83
-0.31
-1.45
-2.76
-4.29
-6.00
-7.79
-9.63
-11.56
-13.71
-16.23
-19.26
-22.83
-26.81
-30.77
-34.12
-36.17
-36.45
-34.96
-32.12
-28.59
-24.87
-21.11
-17.12
-12.57
-7.37
-1.79
3.71
8.68
12.95
16.54
19.54
21.89
23.39
23.81
23.13
21.63
19.86
18.45
17.89
18.39
19.79
21.58
23.12
23.81
23.36
21.87
19.75
17.50
15.49
13.79
12.29
10.79
9.19
7.47
5.61
3.59
1.31
-1.32
-4.31
-7.62
-11.27
-15.32
-19.82
-24.69
-29.51
-33.65
-36.40
-37.26
-36.09
-33.12
-28.79
-23.57
-17.87
-11.99
-6.20
-0.75
4.12
8.13
11.11
13.05
14.13
14.71
15.26
16.18
17.68
19.67
21.79
23.57
24.63
24.84
24.35
23.56
22.92
22.67
22.82
23.07
22.99
22.21
20.65
18.44
15.91
13.28
10.59
7.73
4.56
1.08
-2.61
-6.32
-9.95
-13.55
-17.15
-20.65
-23.68
-25.78
-26.43
-25.39
-22.71
-18.79
-14.16
-9.31
-4.55
0.02
4.44
8.74
12.81
16.41
19.23
21.08
22.01
22.29
22.37
22.56
23.03
23.66
24.28
24.75
25.03
25.13
25.05
24.69
24.02
22.97
21.61
20.01
18.19
16.18
14.05
11.95
10.01
8.27
6.60
4.64
2.05
-1.38
-5.54
-10.11
-14.62
-18.58
-21.58
-23.27
-23.45
-22.08
-19.31
-15.49
-11.05
-6.37
-1.73
2.70
6.80
10.46
13.54
15.95
17.72
18.89
19.58
19.88
19.89
19.67
19.35
19.07
19.00
19.26
19.85
20.71
21.63
22.30
22.42
21.81
20.48
18.63
16.52
14.35
12.16
9.89
7.52
5.15
3.02
1.27
-0.15
-1.60
-3.61
-6.59
-10.63
-15.32
-19.93
-23.60
-25.56
-25.45
-23.29
-19.52
-14.76
-9.65
-4.69
-0.21
3.69
6.99
9.72
11.88
13.49
14.54
15.10
15.25
15.06
14.61
13.99
13.32
12.77
12.53
12.68
13.19
13.94
14.69
15.24
15.35
14.81
13.52
11.54
9.06
6.42
3.90
1.67
-0.28
-2.17
-4.24
-6.72
-9.72
-13.22
-16.96
-20.53
-23.31
-24.61
-23.88
-20.94
-16.10
-10.09
-3.81
1.94
6.63
10.06
12.28
13.45
13.76
13.38
12.51
11.34
10.11
9.05
8.36
8.16
8.40
8.90
9.35
9.46
9.02
7.99
6.45
4.57
2.52
0.42
-1.61
-3.55
-5.37
-7.13
-8.91
-10.86
-13.16
-15.91
-19.07
-22.34
-25.22
-27.03
-27.22
-25.50
-22.02
-17.26
-11.89
-6.53
-1.61
2.69
6.29
9.13
11.03
11.92
11.79
10.86
9.52
8.23
7.30
6.85
6.82
7.00
7.24
7.42
7.53
7.49
7.17
6.40
5.02
3.03
0.67
-1.76
-3.93
-5.74
-7.34
-9.08
-11.35
-14.35
-17.96
-21.78
-25.21
-27.70
-28.82
-28.34
-26.26
-22.77
-18.24
-13.16
-8.11
-3.61
-0.03
2.56
4.32
5.59
6.63
7.58
8.45
9.09
9.41
9.41
9.15
8.76
8.34
7.97
7.66
7.36
6.99
6.48
5.72
4.65
3.26
1.58
-0.27
-2.11
-3.74
-5.05
-6.06
-7.03
-8.37
-10.53
-13.70
-17.68
-21.86
-25.40
-27.54
-27.89
-26.49
-23.73
-20.10
-16.02
-11.72
-7.36
-3.09
0.89
4.36
7.17
9.28
10.81
11.89
12.68
13.22
13.48
13.41
12.98
12.25
11.37
10.60
10.19
10.24
10.66
11.15
11.30
10.85
9.68
7.95
5.90
3.74
1.57
-0.62
-2.89
-5.29
-7.89
-10.80
-14.19
-18.13
-22.49
-26.82
-30.35
-32.22
-31.77
-28.79
-23.69
-17.37
-10.90
-5.23
-0.88
2.10
4.00
5.34
6.50
7.73
9.02
10.25
11.23
11.86
12.15
12.22
12.19
12.12
12.00
11.76
11.38
10.95
10.70
10.79
11.16
11.47
11.20
9.89
7.46
4.28
0.99
-1.77
-3.72
-5.06
-6.38
-8.34
-11.36
-15.41
-20.01
-24.36
-27.67
-29.36
-29.16
-27.12
-23.52
-18.79
-13.39
-7.81
-2.51
2.13
5.86
8.58
10.37
11.42
11.95
12.17
12.30
12.51
12.90
13.50
14.16
14.64
14.76
14.51
14.13
13.92
14.04
14.35
14.51
14.07
12.79
10.76
8.32
5.85
3.58
1.50
-0.58
-2.85
-5.46
-8.48
-11.94
-15.89
-20.23
-24.66
-28.59
-31.24
-31.92
-30.23
-26.34
-20.91
-14.84
-8.99
-3.93
0.12
3.25
5.58
7.24
8.28
8.74
8.71
8.39
7.97
7.63
7.48
7.57
7.91
8.51
9.34
10.33
11.35
12.21
12.71
12.66
11.95
10.58
8.67
6.44
4.17
2.07
0.22
-1.53
-3.47
-5.96
-9.22
-13.20
-17.54
-21.55
-24.49
-25.73
-24.89
-22.06
-17.66
-12.43
-7.09
-2.24
1.83
5.06
7.56
9.43
10.75
11.45
11.50
10.99
10.13
9.30
8.80
8.81
9.28
9.99
10.66
11.12
11.28
11.16
10.79
10.12
9.07
7.56
5.61
3.35
0.98
-1.33
-3.46
-5.44
-7.35
-9.34
-11.57
-14.19
-17.36
-21.14
-25.47
-29.98
-34.09
-36.98
-37.91
-36.35
-32.24
-26.02
-18.49
-10.57
-3.02
3.62
9.15
13.46
16.54
18.39
19.17
19.22
19.05
19.18
19.93
21.29
22.90
24.26
24.98
24.89
24.15
23.06
21.92
20.94
20.16
19.46
18.64
17.46
15.74
13.40
10.49
7.21
3.84
0.65
-2.24
-4.82
-7.33
-10.06
-13.36
-17.45
-22.34
-27.71
-32.90
-37.06
-39.32
-39.05
-36.08
-30.76
-23.86
-16.33
-9.03
-2.52
3.00
7.58
11.35
14.36
16.59
18.00
18.70
19.02
19.37
20.08
21.22
22.56
23.71
24.34
24.40
24.06
23.57
23.05
22.44
21.56
20.23
18.46
16.41
14.29
12.22
10.22
8.27
6.32
4.38
2.46
0.46
-1.79
-4.53
-7.94
-12.03
-16.64
-21.46
-26.10
-30.14
-33.05
-34.30
-33.43
-30.30
-25.16
-18.73
-11.90
-5.46
0.16
4.96
9.17
13.00
16.45
19.31
21.35
22.50
22.94
23.03
23.13
23.46
24.04
24.69
25.24
25.52
25.46
25.06
24.39
23.49
22.38
21.04
19.48
17.70
15.81
13.90
12.08
10.37
8.74
7.14
5.49
3.76
1.92
-0.07
-2.22
-4.54
-7.03
-9.72
-12.75
-16.26
-20.27
-24.54
-28.47
-31.21
-32.00
-30.40
-26.58
-21.20
-15.17
-9.30
-4.04
0.56
4.66
8.46
12.00
15.11
17.51
18.99
19.57
19.50
19.25
19.20
19.58
20.35
21.30
22.13
22.68
22.87
22.78
22.52
22.16
21.72
21.12
20.27
19.03
17.34
15.16
12.57
9.77
6.96
4.38
2.13
0.22
-1.46
-3.12
-4.95
-7.19
-10.05
-13.67
-17.96
-22.52
-26.63
-29.47
-30.36
-29.06
-25.80
-21.21
-16.02
-10.83
-5.97
-1.52
2.49
5.94
8.60
10.23
10.75
10.34
9.41
8.47
7.93
7.98
8.50
9.21
9.77
9.99
9.82
9.42
8.93
8.47
8.01
7.50
6.87
6.09
5.13
3.97
2.58
0.92
-0.97
-3.00
-5.02
-6.95
-8.80
-10.73
-13.03
-15.97
-19.61
-23.71
-27.67
-30.71
-32.07
-31.26
-28.21
-23.34
-17.38
-11.15
-5.33
-0.30
3.82
7.07
9.52
11.17
11.98
11.95
11.17
9.92
8.62
7.63
7.21
7.36
7.95
8.74
9.50
10.05
10.30
10.17
9.62
8.64
7.22
5.46
3.49
1.46
-0.50
-2.31
-3.90
-5.27
-6.45
-7.57
-8.86
-10.61
-13.05
-16.24
-19.98
-23.80
-27.14
-29.44
-30.30
-29.54
-27.15
-23.31
-18.31
-12.63
-6.86
-1.66
2.52
5.45
7.29
8.41
9.15
9.73
10.14
10.28
10.11
9.75
9.38
9.21
9.35
9.74
10.24
10.65
10.83
10.74
10.43
10.00
9.57
9.16
8.66
7.89
6.63
4.84
2.65
0.33
-1.90
-3.95
-5.93
-8.08
-10.55
-13.47
-16.83
-20.56
-24.48
-28.32
-31.57
-33.63
-33.93
-32.16
-28.50
-23.48
-17.85
-12.32
-7.32
-3.03
0.64
3.82
6.64
9.14
11.30
13.06
14.30
14.98
15.08
14.72
14.13
13.56
13.26
13.41
14.00
14.88
15.80
16.48
16.72
16.48
15.86
15.01
14.07
13.02
11.76
10.15
8.08
5.60
2.84
0.04
-2.62
-5.04
-7.22
-9.19
-10.99
-12.71
-14.50
-16.65
-19.41
-22.83
-26.64
-30.17
-32.47
-32.73
-30.53
-26.07
-20.15
-13.78
-7.85
-2.89
1.03
4.13
6.70
8.89
10.72
12.11
13.09
13.73
14.15
14.50
14.81
15.09
15.36
15.74
16.31
17.10
17.96
18.66
18.95
18.68
17.87
16.66
15.22
13.63
11.88
9.92
7.77
5.58
3.53
1.81
0.50
-0.47
-1.27
-2.08
-3.05
-4.33
-6.16
-8.77
-12.42
-17.08
-22.34
-27.38
-31.22
-33.00
-32.33
-29.37
-24.73
-19.26
-13.68
-8.48
-3.86
0.17
3.62
6.46
8.59
9.90
10.39
10.20
9.62
9.00
8.62
8.60
8.86
9.19
9.41
9.36
8.98
8.29
7.31
6.12
4.89
3.76
2.89
2.25
1.66
0.83
-0.50
-2.36
-4.51
-6.55
-8.14
-9.19
-9.90
-10.69
-11.98
-14.04
-16.85
-20.17
-23.58
-26.59
-28.68
-29.42
-28.49
-25.82
-21.61
-16.34
-10.56
-4.79
0.57
5.26
9.14
12.08
13.98
14.81
14.67
13.81
12.64
11.57
10.90
10.77
11.13
11.80
12.59
13.34
13.98
14.48
14.79
14.87
14.68
14.15
13.28
12.09
10.63
8.96
7.12
5.13
3.02
0.84
-1.29
-3.24
-4.94
-6.46
-8.02
-9.97
-12.64
-16.13
-20.23
-24.35
-27.71
-29.48
-29.13
-26.52
-21.95
-16.09
-9.79
-3.84
1.15
4.89
7.44
9.06
10.06
10.69
11.08
11.33
11.46
11.54
11.69
11.95
12.27
12.55
12.69
12.66
12.57
12.50
12.50
12.49
12.32
11.87
11.11
10.15
9.14
8.12
7.00
5.61
3.81
1.60
-0.81
-3.19
-5.34
-7.26
-9.13
-11.24
-13.91
-17.32
-21.45
-25.92
-30.12
-33.22
-34.52
-33.57
-30.40
-25.50
-19.62
-13.56
-7.92
-3.02
1.10
4.56
7.51
10.05
12.16
13.77
14.84
15.45
15.73
15.91
16.13
16.41
16.62
16.66
16.48
16.19
15.95
15.88
15.96
16.05
15.98
15.65
15.06
14.21
13.10
11.70
9.96
7.90
5.66
3.43
1.41
-0.33
-1.85
-3.33
-5.00
-7.12
-9.90
-13.48
-17.84
-22.66
-27.36
-31.13
-33.14
-32.83
-30.11
-25.37
-19.36
-12.90
-6.65
-1.00
3.90
8.04
11.41
14.00
15.83
17.00
17.57
17.66
17.33
16.62
15.62
14.47
13.42
12.65
12.30
12.37
12.74
13.18
13.49
13.49
13.10
12.33
11.24
9.90
8.35
6.58
4.59
2.45
0.31
-1.63
-3.21
-4.46
-5.64
-7.13
-9.31
-12.34
-16.11
-20.23
-24.14
-27.23
-28.99
-29.06
-27.35
-24.01
-19.46
-14.22
-8.87
-3.87
0.50
4.14
7.07
9.38
11.09
12.21
12.71
12.64
12.11
11.37
10.66
10.15
9.90
9.85
9.86
9.84
9.72
9.45
9.04
8.42
7.53
6.31
4.79
3.00
1.04
-0.95
-2.83
-4.44
-5.68
-6.59
-7.33
-8.25
-9.74
-12.10
-15.44
-19.54
-23.93
-27.90
-30.72
-31.84
-31.00
-28.35
-24.29
-19.37
-14.10
-8.89
-4.00
0.30
3.83
6.39
7.91
8.50
8.45
8.12
7.82
7.77
8.04
8.60
9.41
10.39
11.49
12.63
13.73
14.68
15.34
15.56
15.21
14.25
12.73
10.80
8.63
6.32
3.89
1.30
-1.44
-4.20
-6.74
-8.82
-10.35
-11.51
-12.64
-14.17
-16.41
-19.38
-22.78
-26.05
-28.57
-29.80
-29.42
-27.38
-23.86
-19.21
-13.84
-8.18
-2.64
2.45
6.79
10.22
12.69
14.22
15.00
15.22
15.16
15.13
15.46
16.40
18.04
20.21
22.58
24.64
26.05
26.64
26.51
25.93
25.17
24.45
23.79
23.12
22.31
21.25
19.86
18.16
16.22
14.19
12.21
10.38
8.68
7.01
5.21
3.07
0.38
-3.09
-7.53
-12.91
-18.95
-24.92
-29.92
-32.97
-33.50
-31.47
-27.43
-22.31
-17.06
-12.38
-8.54
-5.55
-3.23
-1.45
-0.17
0.58
0.79
0.51
-0.10
-0.83
-1.53
-2.12
-2.59
-2.98
-3.30
-3.52
-3.61
-3.56
-3.44
-3.37
-3.45
-3.73
-4.12
-4.54
-4.93
-5.37
-6.01
-6.98
-8.25
-9.65
-10.91
-11.85
-12.47
-12.98
-13.72
-14.99
-16.96
-19.60
-22.74
-26.05
-29.06
-31.18
-31.81
-30.49
-27.10
-21.94
-15.64
-8.98
-2.65
2.90
7.44
10.90
13.32
14.76
15.37
15.36
15.00
14.58
14.30
14.29
14.52
14.88
15.19
15.26
14.96
14.27
13.36
12.44
11.70
11.18
10.72
9.99
8.70
6.72
4.12
1.22
-1.58
-3.97
-5.85
-7.39
-8.88
-10.71
-13.12
-16.18
-19.76
-23.58
-27.20
-30.15
-31.94
-32.13
-30.50
-27.04
-22.08
-16.17
-10.02
-4.31
0.50
4.19
6.85
8.69
9.99
10.95
11.74
12.42
12.99
13.52
14.05
14.71
15.55
16.57
17.57
18.28
18.42
17.88
16.78
15.39
13.95
12.60
11.26
9.78
8.03
6.05
3.99
2.00
0.14
-1.66
-3.52
-5.48
-7.52
-9.59
-11.80
-14.41
-17.76
-21.97
-26.73
-31.31
-34.78
-36.31
-35.50
-32.52
-27.95
-22.54
-16.91
-11.48
-6.41
-1.77
2.46
6.23
9.52
12.28
14.44
15.91
16.67
16.82
16.56
16.19
15.99
16.12
16.57
17.21
17.80
18.14
18.10
17.68
16.99
16.20
15.48
14.88
14.31
13.54
12.35
10.64
8.51
6.24
4.10
2.26
0.64
-0.97
-2.90
-5.42
-8.70
-12.79
-17.63
-22.96
-28.30
-32.94
-36.10
-37.14
-35.76
-32.15
-26.91
-20.78
-14.45
-8.37
-2.78
2.21
6.51
10.03
12.72
14.63
15.92
16.80
17.47
18.09
18.76
19.51
20.33
21.05
21.51
21.54
21.17
20.58
20.05
19.72
19.54
19.25
18.57
17.38
15.74
13.84
11.81
9.68
7.41
5.02
2.70
0.70
-0.88
-2.14
-3.48
-5.36
-8.14
-11.98
-16.79
-22.20
-27.64
-32.28
-35.22
-35.72
-33.44
-28.69
-22.28
-15.32
-8.84
-3.50
0.51
3.33
5.32
6.80
8.09
9.34
10.66
12.04
13.47
14.85
16.11
17.01
17.39
17.10
16.23
15.02
13.88
13.16
12.92
12.96
12.85
12.17
10.71
8.50
5.83
3.01
0.28
-2.23
-4.54
-6.68
-8.76
-10.90
-13.29
-16.10
-19.44
-23.24
-27.16
-30.60
-32.78
-33.02
-30.96
-26.69
-20.73
-13.91
-7.01
-0.71
4.65
8.92
12.10
14.27
15.54
16.01
15.90
15.46
15.02
14.85
15.08
15.69
16.47
17.16
17.49
17.36
16.80
16.03
15.31
14.81
14.55
14.33
13.86
12.87
11.22
8.97
6.40
3.80
1.42
-0.71
-2.77
-5.04
-7.85
-11.43
-15.81
-20.85
-26.16
-31.18
-35.20
-37.54
-37.68
-35.40
-30.91
-24.77
-17.80
-10.82
-4.51
0.73
4.83
7.92
10.24
11.98
13.34
14.41
15.31
16.12
16.92
17.76
18.68
19.65
20.55
21.23
21.47
21.11
20.10
18.61
16.94
15.49
14.46
13.84
13.33
12.54
11.26
9.46
7.40
5.41
3.75
2.42
1.25
-0.07
-1.76
-3.97
-6.79
-10.23
-14.31
-18.89
-23.51
-27.35
-29.37
-28.68
-24.86
-18.21
-9.66
-0.39
8.59
16.70
23.85
30.24
36.12
41.62
46.82
51.68
56.20
60.30
63.88
66.79
68.99
70.61
72.03
73.73
76.11
79.18
82.54
85.41
86.95
86.59
84.23
80.31
75.65
71.11
67.29
64.41
62.25
60.20
57.46
53.29
47.32
39.67
31.08
22.49
14.65
7.65
0.72
-7.50
-18.40
-32.79
-50.53
-70.43
-90.59
-108.67
-122.50
-130.39
-131.67
-126.83
-117.58
-106.43
-95.96
-88.15
-84.01
-83.55
-86.03
-90.19
-94.50
-97.18
-96.60
-91.72
-82.65
-70.83
-58.66
-48.73
-42.96
-42.05
-45.54
-52.25
-60.68
-69.23
-76.24
-79.92
-78.72
-71.87
-59.86
-44.49
-28.39
-14.13
-3.43
3.24
6.50
7.50
7.34
6.70
5.87
4.86
3.60
2.06
0.21
-2.06
-4.86
-8.25
-12.09
-15.96
-19.22
-21.09
-20.91
-18.33
-13.50
-7.02
0.22
7.32
13.60
18.69
22.59
25.43
27.41
28.64
29.22
29.23
28.82
28.23
27.70
27.36
27.24
27.23
27.23
27.13
26.86
26.40
25.69
24.69
23.36
21.71
19.82
17.86
15.99
14.31
12.78
11.29
9.65
7.73
5.49
2.97
0.29
-2.44
-5.10
-7.67
-10.24
-13.05
-16.38
-20.50
-25.42
-30.78
-35.84
-39.60
-41.14
-40.02
-36.36
-30.88
-24.59
-18.43
-12.95
-8.24
-3.98
0.23
4.63
9.18
13.53
17.24
20.01
21.77
22.72
23.23
23.62
24.07
24.58
25.12
25.66
26.27
26.97
27.65
28.13
28.08
27.33
25.88
23.93
21.72
19.43
17.06
14.52
11.76
8.81
5.83
2.95
0.20
-2.53
-5.41
-8.57
-12.09
-16.03
-20.52
-25.64
-31.32
-37.12
-42.22
-45.59
-46.33
-44.01
-38.87
-31.69
-23.60
-15.60
-8.39
-2.23
2.98
7.43
11.29
14.56
17.10
18.81
19.74
20.18
20.53
21.09
21.97
23.03
24.03
24.83
25.47
26.08
26.79
27.51
27.94
27.70
26.51
24.35
21.49
18.34
15.26
12.45
9.83
7.20
4.39
1.31
-1.99
-5.42
-8.95
-12.61
-16.47
-20.54
-24.77
-28.99
-33.06
-36.72
-39.64
-41.30
-41.05
-38.40
-33.18
-25.81
-17.20
-8.45
-0.48
6.27
11.87
16.70
21.14
25.37
29.37
32.94
35.94
38.29
40.06
41.34
42.24
42.85
43.29
43.66
44.06
44.51
44.96
45.23
45.13
44.46
43.06
40.92
38.15
34.93
31.44
27.86
24.26
20.69
17.14
13.63
10.19
6.83
3.53
0.25
-3.07
-6.52
-10.22
-14.35
-19.12
-24.64
-30.74
-36.88
-42.20
-45.69
-46.55
-44.49
-39.80
-33.27
-25.93
-18.72
-12.23
-6.65
-1.88
2.26
5.81
8.71
10.76
11.89
12.25
12.22
12.25
12.71
13.71
15.06
16.45
17.56
18.20
18.33
18.08
17.54
16.83
15.93
14.75
13.14
11.00
8.32
5.31
2.30
-0.44
-2.70
-4.57
-6.26
-8.02
-10.06
-12.55
-15.61
-19.33
-23.76
-28.69
-33.57
-37.54
-39.65
-39.23
-36.16
-30.89
-24.27
-17.22
-10.41
-4.25
1.12
5.66
9.28
11.90
13.47
14.09
14.07
13.86
13.86
14.36
15.39
16.76
18.17
19.28
19.84
19.74
19.02
17.83
16.39
14.89
13.45
12.09
10.71
9.19
7.39
5.26
2.84
0.28
-2.24
-4.58
-6.71
-8.76
-11.01
-13.81
-17.40
-21.92
-27.24
-32.96
-38.43
-42.84
-45.33
-45.34
-42.69
-37.80
-31.47
-24.67
-18.20
-12.47
-7.48
-3.01
1.13
4.96
8.30
10.92
12.68
13.68
14.17
14.50
15.05
16.09
17.78
20.12
22.95
25.92
28.60
30.56
31.51
31.37
30.26
28.47
26.31
24.03
21.73
19.39
16.88
14.04
10.75
6.97
2.84
-1.44
-5.65
-9.72
-13.73
-17.96
-22.79
-28.41
-34.75
-41.25
-47.01
-51.00
-52.33
-50.60
-46.05
-39.43
-31.77
-24.00
-16.69
-10.03
-3.96
1.65
6.80
11.37
15.26
18.42
20.96
23.04
24.80
26.32
27.59
28.58
29.26
29.66
29.82
29.76
29.47
28.87
27.90
26.51
24.75
22.79
20.80
18.87
16.97
14.96
12.59
9.74
6.45
2.92
-0.63
-4.06
-7.45
-11.07
-15.26
-20.26
-26.02
-32.16
-37.99
-42.64
-45.29
-45.42
-42.90
-38.09
-31.64
-24.34
-16.86
-9.66
-2.93
3.20
8.67
13.33
17.02
19.63
21.25
22.09
22.54
22.97
23.66
24.67
25.89
27.06
27.90
28.26
28.14
27.66
26.97
26.17
25.20
23.93
22.17
19.80
16.88
13.62
10.31
7.15
4.21
1.33
-1.75
-5.32
-9.56
-14.50
-20.05
-25.96
-31.85
-37.20
-41.35
-43.65
-43.61
-41.03
-36.13
-29.53
-22.02
-14.37
-7.12
-0.58
5.17
10.07
14.03
16.91
18.63
19.29
19.27
19.05
19.09
19.65
20.66
21.82
22.71
23.00
22.59
21.62
20.38
19.13
17.93
16.60
14.84
12.45
9.56
6.59
4.06
2.29
1.10
-0.09
-2.00
-5.21
-9.82
-15.51
-21.65
-27.59
-32.62
-36.08
-37.38
-36.10
-32.15
-25.96
-18.35
-10.30
-2.72
3.80
9.00
12.89
15.64
17.46
18.57
19.16
19.43
19.48
19.40
19.18
18.86
18.45
18.02
17.63
17.36
17.23
17.24
17.26
17.10
16.47
15.11
12.88
9.89
6.47
3.04
-0.02
-2.56
-4.74
-6.96
-9.75
-13.54
-18.50
-24.47
-30.81
-36.65
-41.00
-43.01
-42.22
-38.69
-32.96
-25.90
-18.44
-11.29
-4.85
0.82
5.81
10.22
14.01
17.04
19.17
20.40
20.94
21.21
21.58
22.28
23.23
24.16
24.74
24.79
24.33
23.59
22.79
22.08
21.36
20.38
18.86
16.65
13.77
10.43
6.89
3.42
0.14
-2.86
-5.59
-8.09
-10.50
-13.01
-15.98
-19.73
-24.44
-29.94
-35.60
-40.55
-43.87
-44.88
-43.36
-39.43
-33.59
-26.45
-18.70
-10.93
-3.70
2.66
8.02
12.45
16.13
19.21
21.78
23.81
25.31
26.35
27.06
27.64
28.12
28.51
28.67
28.53
28.03
27.20
26.11
24.86
23.53
22.16
20.78
19.33
17.66
15.65
13.16
10.18
6.81
3.25
-0.25
-3.37
-5.92
-7.90
-9.51
-11.16
-13.33
-16.46
-20.72
-25.98
-31.74
-37.23
-41.53
-43.76
-43.43
-40.48
-35.39
-28.96
-22.11
-15.61
-9.85
-4.92
-0.68
3.08
6.53
9.75
12.78
15.60
18.10
20.13
21.57
22.41
22.76
22.88
23.01
23.32
23.79
24.28
24.55
24.42
23.80
22.74
21.34
19.70
17.88
15.89
13.75
11.46
9.07
6.64
4.25
1.93
-0.34
-2.61
-4.95
-7.46
-10.23
-13.41
-17.17
-21.70
-27.01
-32.83
-38.53
-43.16
-45.78
-45.70
-42.86
-37.77
-31.37
-24.59
-18.09
-12.16
-6.81
-1.94
2.50
6.34
9.38
11.40
12.38
12.48
12.06
11.55
11.32
11.54
12.20
13.08
13.98
14.71
15.18
15.40
15.38
15.10
14.45
13.38
11.86
9.95
7.82
5.69
3.78
2.22
0.99
-0.10
-1.37
-3.16
-5.73
-9.19
-13.47
-18.36
-23.53
-28.53
-32.76
-35.58
-36.42
-34.98
-31.40
-26.25
-20.33
-14.40
-8.99
-4.25
-0.05
3.73
7.11
9.94
12.00
13.14
13.46
13.26
12.99
13.01
13.48
14.31
15.20
15.82
15.93
15.44
14.50
13.35
12.30
11.50
10.92
10.34
9.42
7.87
5.56
2.59
-0.75
-4.12
-7.17
-9.68
-11.63
-13.22
-14.78
-16.75
-19.53
-23.33
-28.06
-33.23
-38.06
-41.60
-43.09
-42.13
-38.84
-33.77
-27.74
-21.56
-15.80
-10.75
-6.36
-2.43
1.21
4.59
7.57
9.96
11.62
12.56
12.98
13.17
13.40
13.83
14.44
15.17
15.96
16.73
17.42
17.86
17.81
17.11
15.71
13.79
11.68
9.65
7.85
6.27
4.83
3.45
2.09
0.78
-0.58
-2.14
-4.12
-6.80
-10.30
-14.65
-19.67
-24.94
-29.83
-33.60
-35.52
-35.14
-32.46
-27.93
-22.32
-16.44
-10.92
-6.11
-2.04
1.47
4.66
7.71
10.66
13.43
15.83
17.70
18.97
19.67
19.92
19.85
19.54
19.11
18.64
18.24
18.03
18.05
18.20
18.31
18.12
17.43
16.10
14.18
11.79
9.18
6.63
4.38
2.52
1.00
-0.38
-1.87
-3.67
-5.90
-8.63
-11.96
-15.95
-20.57
-25.52
-30.22
-33.86
-35.70
-35.30
-32.75
-28.60
-23.64
-18.61
-13.98
-9.82
-6.06
-2.54
0.85
4.00
6.83
9.23
11.15
12.64
13.79
14.62
15.14
15.33
15.25
15.01
14.79
14.66
14.59
14.42
13.90
12.81
11.09
8.86
6.38
3.92
1.71
-0.13
-1.59
-2.76
-3.80
-4.94
-6.52
-8.83
-12.06
-16.18
-20.87
-25.48
-29.19
-31.17
-30.97
-28.58
-24.50
-19.50
-14.34
-9.51
-5.14
-1.21
2.32
5.33
7.59
8.98
9.58
9.73
9.82
10.04
10.44
10.85
11.14
11.32
11.50
11.85
12.40
13.11
13.79
14.20
14.13
13.34
11.67
9.06
5.68
1.88
-1.90
-5.25
-7.94
-10.04
-11.85
-13.84
-16.42
-19.91
-24.27
-29.11
-33.74
-37.33
-39.14
-38.79
-36.27
-31.93
-26.34
-20.11
-13.82
-8.01
-3.07
0.79
3.54
5.38
6.60
7.50
8.34
9.23
10.14
10.96
11.53
11.72
11.48
10.89
10.14
9.47
9.09
9.02
9.10
9.07
8.66
7.72
6.26
4.40
2.29
0.07
-2.21
-4.50
-6.69
-8.74
-10.63
-12.58
-14.95
-18.12
-22.22
-26.93
-31.48
-34.93
-36.50
-35.88
-33.28
-29.24
-24.37
-19.15
-13.83
-8.57
-3.46
1.36
5.73
9.49
12.54
14.80
16.30
17.20
17.74
18.19
18.76
19.47
20.20
20.75
21.06
21.17
21.25
21.44
21.70
21.79
21.33
20.05
17.91
15.21
12.42
9.99
8.06
6.47
4.82
2.74
0.05
-3.25
-7.06
-11.38
-16.17
-21.32
-26.40
-30.66
-33.24
-33.52
-31.44
-27.46
-22.39
-17.01
-11.74
-6.66
-1.67
3.32
8.14
12.49
16.04
18.57
20.14
21.00
21.49
21.90
22.39
22.88
23.22
23.22
22.86
22.22
21.48
20.82
20.23
19.59
18.66
17.23
15.23
12.77
10.16
7.72
5.69
4.17
3.09
2.22
1.26
-0.17
-2.33
-5.36
-9.10
-13.12
-16.78
-19.45
-20.62
-20.13
-18.09
-14.83
-10.77
-6.34
-1.90
2.19
5.66
8.32
10.17
11.37
12.16
12.82
13.50
14.23
14.97
15.62
16.11
16.47
16.64
16.61
16.37
15.86
15.13
14.23
13.23
12.09
10.77
9.14
7.14
4.79
2.22
-0.39
-2.92
-5.37
-7.87
-10.66
-13.92
-17.62
-21.44
-24.81
-27.00
-27.40
-25.78
-22.38
-17.80
-12.80
-8.03
-3.82
-0.17
3.08
6.02
8.63
10.77
12.33
13.30
13.89
14.36
14.93
15.63
16.28
16.64
16.50
15.86
14.87
13.74
12.59
11.44
10.25
8.96
7.59
6.25
4.99
3.84
2.72
1.56
0.34
-0.98
-2.38
-3.99
-5.98
-8.51
-11.65
-15.24
-19.00
-22.55
-25.54
-27.68
-28.72
-28.51
-27.00
-24.33
-20.83
-16.93
-13.09
-9.64
-6.64
-4.02
-1.59
0.75
3.02
5.16
7.07
8.64
9.75
10.33
10.37
9.98
9.46
9.21
9.59
10.70
12.38
14.20
15.67
16.46
16.48
15.84
14.71
13.20
11.33
9.16
6.80
4.49
2.39
0.53
-1.22
-3.14
-5.45
-8.23
-11.36
-14.65
-17.95
-21.17
-24.30
-27.28
-29.90
-31.80
-32.57
-31.90
-29.73
-26.27
-21.88
-17.00
-12.04
-7.30
-3.00
0.67
3.63
5.91
7.62
8.96
10.14
11.23
12.23
13.07
13.69
14.11
14.38
14.56
14.63
14.56
14.34
14.02
13.70
13.47
13.31
13.08
12.51
11.46
9.92
8.15
6.46
5.09
4.07
3.21
2.24
0.95
-0.65
-2.46
-4.35
-6.25
-8.25
-10.50
-13.10
-16.10
-19.37
-22.67
-25.66
-27.97
-29.27
-29.37
-28.28
-26.14
-23.23
-19.83
-16.16
-12.40
-8.70
-5.24
-2.13
0.45
2.46
3.89
4.83
5.40
5.78
6.16
6.70
7.46
8.40
9.39
10.34
11.20
12.00
12.78
13.46
13.91
13.91
13.30
12.07
10.32
8.34
6.36
4.60
3.11
1.84
0.65
-0.60
-2.02
-3.57
-5.14
-6.59
-7.90
-9.26
-11.01
-13.47
-16.75
-20.62
-24.55
-27.87
-30.05
-30.79
-30.04
-27.98
-24.86
-21.04
-16.93
-12.95
-9.44
-6.55
-4.18
-2.12
-0.17
1.75
3.47
4.84
5.71
6.13
6.29
6.42
6.70
7.14
7.66
8.14
8.49
8.69
8.75
8.65
8.37
7.83
6.98
5.75
4.20
2.43
0.56
-1.26
-2.95
-4.44
-5.75
-6.96
-8.21
-9.70
-11.70
-14.47
-18.07
-22.38
-27.06
-31.57
-35.43
-38.15
-39.45
-39.16
-37.30
-34.03
-29.73
-24.91
-20.13
-15.81
-12.14
-9.04
-6.33
-3.84
-1.55
0.42
1.91
2.95
3.65
4.30
5.07
6.04
7.17
8.36
9.53
10.65
11.63
12.29
12.47
12.07
11.18
10.09
9.12
8.46
8.01
7.42
6.26
4.33
1.69
-1.27
-4.08
-6.44
-8.38
-10.16
-12.20
-14.79
-18.06
-21.99
-26.46
-31.22
-36.00
-40.38
-43.85
-45.92
-46.23
-44.75
-41.74
-37.65
-32.97
-28.03
-22.98
-17.84
-12.66
-7.57
-2.83
1.34
4.79
7.64
10.11
12.51
14.97
17.41
19.61
21.37
22.64
23.57
24.46
25.50
26.72
27.88
28.58
28.52
27.50
25.69
23.45
21.25
19.46
18.20
17.32
16.48
15.31
13.58
11.25
8.48
5.49
2.43
-0.62
-3.65
-6.74
-10.00
-13.62
-17.83
-22.84
-28.56
-34.61
-40.25
-44.55
-46.78
-46.57
-44.09
-39.84
-34.50
-28.70
-22.86
-17.19
-11.79
-6.65
-1.73
2.97
7.47
11.70
15.46
18.52
20.72
22.10
22.90
23.55
24.45
25.83
27.63
29.57
31.26
32.42
32.90
32.71
31.98
30.84
29.47
27.97
26.40
24.71
22.78
20.43
17.58
14.31
10.82
7.34
3.99
0.75
-2.58
-6.24
-10.43
-15.23
-20.59
-26.28
-31.88
-36.71
-40.03
-41.10
-39.54
-35.45
-29.43
-22.43
-15.39
-9.03
-3.65
0.82
4.60
7.94
10.93
13.59
15.89
17.78
19.34
20.63
21.75
22.71
23.57
24.34
25.08
25.83
26.54
27.09
27.34
27.19
26.61
25.58
24.10
22.10
19.51
16.35
12.78
9.12
5.69
2.66
-0.03
-2.71
-5.79
-9.70
-14.65
-20.60
-27.11
-33.45
-38.68
-41.90
-42.46
-40.17
-35.31
-28.62
-21.02
-13.40
-6.40
-0.35
4.74
9.02
12.70
15.96
18.91
21.57
23.95
26.06
27.99
29.86
31.73
33.59
35.29
36.58
37.22
37.11
36.37
35.31
34.28
33.45
32.70
31.62
29.79
26.93
23.15
18.86
14.55
10.55
6.93
3.50
-0.01
-3.78
-7.87
-12.30
-17.18
-22.64
-28.74
-35.22
-41.42
-46.39
-49.10
-48.89
-45.65
-39.95
-32.71
-24.94
-17.38
-10.39
-3.96
2.03
7.67
12.86
17.44
21.25
24.28
26.69
28.65
30.27
31.49
32.18
32.27
31.82
31.10
30.38
29.82
29.33
28.70
27.68
26.22
24.45
22.59
20.78
18.98
16.96
14.50
11.48
8.03
4.38
0.77
-2.68
-6.03
-9.44
-13.21
-17.53
-22.57
-28.29
-34.43
-40.41
-45.42
-48.57
-49.26
-47.35
-43.15
-37.31
-30.43
-22.91
-14.97
-6.79
1.36
9.09
15.95
21.67
26.18
29.60
32.13
33.88
34.93
35.38
35.44
35.40
35.58
36.07
36.81
37.55
38.02
38.04
37.57
36.65
35.35
33.77
31.99
30.20
28.67
27.59
26.98
26.65
26.17
25.12
23.18
20.27
16.51
12.10
7.23
2.08
-3.12
-7.94
-11.75
-13.76
-13.35
-10.20
-4.50
3.10
11.67
20.19
27.84
34.09
38.82
42.25
44.80
46.90
48.80
50.53
51.92
52.82
53.27
53.56
54.23
55.93
59.19
64.31
71.22
79.41
87.87
95.18
99.71
99.98
95.12
85.13
70.86
53.69
35.01
15.81
-3.36
-22.29
-40.72
-58.10
-73.45
-85.63
-93.64
-97.09
-96.43
-92.86
-88.06
-83.54
-80.24
-78.28
-77.03
-75.53
-73.02
-69.25
-64.54
-59.55
-54.93
-51.03
-47.91
-45.46
-43.68
-42.80
-43.17
-45.06
-48.35
-52.37
-56.04
-58.13
-57.75
-54.59
-49.07
-42.24
-35.53
-30.35
-27.80
-28.35
-31.75
-37.09
-43.22
-49.16
-54.53
-59.61
-65.10
-71.68
-79.65
-88.78
-98.47
-108.00
-116.77
-124.41
-130.71
-135.47
-138.32
-138.67
-135.66
-128.34
-116.00
-98.61
-77.01
-53.00
-28.80
-6.37
13.12
29.51
43.28
54.96
64.77
72.47
77.73
80.53
81.39
81.20
80.90
81.07
81.79
82.72
83.42
83.62
83.30
82.70
82.07
81.42
80.41
78.34
74.48
68.40
60.27
50.95
41.72
33.77
27.74
23.43
19.93
15.91
10.15
2.10
-7.90
-18.58
-28.10
-34.59
-36.73
-34.31
-28.15
-19.87
-11.22
-3.54
2.51
6.82
9.61
11.17
11.72
11.46
10.49
8.84
6.41
3.06
-1.13
-5.64
-9.46
-11.33
-10.29
-6.04
0.85
9.19
17.66
25.29
31.45
35.87
38.36
38.76
37.01
33.38
28.54
23.35
18.61
14.63
11.14
7.45
2.72
-3.66
-11.85
-21.43
-31.50
-40.81
-47.98
-51.85
-51.68
-47.47
-39.91
-30.15
-19.43
-8.68
1.73
11.89
21.99
32.00
41.42
49.43
55.22
58.41
59.21
58.40
57.03
55.95
55.64
56.03
56.78
57.45
57.69
57.32
56.30
54.66
52.49
49.84
46.75
43.21
39.21
34.71
29.72
24.38
18.91
13.59
8.65
4.18
0.05
-3.99
-8.32
-13.27
-19.04
-25.68
-32.95
-40.34
-47.00
-51.85
-53.80
-52.01
-46.19
-36.82
-25.05
-12.39
-0.30
10.27
18.97
25.98
31.69
36.36
40.04
42.56
43.83
44.01
43.56
43.05
42.91
43.25
43.83
44.24
44.13
43.35
42.01
40.28
38.32
36.15
33.62
30.63
27.09
23.08
18.72
14.19
9.64
5.14
0.73
-3.61
-7.95
-12.43
-17.18
-22.31
-27.90
-33.86
-39.99
-45.84
-50.74
-53.84
-54.32
-51.65
-45.75
-37.14
-26.76
-15.74
-5.09
4.50
12.68
19.35
24.51
28.19
30.43
31.35
31.17
30.19
28.78
27.29
25.96
24.93
24.19
23.66
23.24
22.82
22.30
21.51
20.22
18.21
15.34
11.67
7.43
3.04
-1.10
-4.65
-7.49
-9.70
-11.52
-13.42
-15.90
-19.44
-24.23
-29.97
-35.91
-40.93
-43.90
-44.05
-41.12
-35.49
-27.93
-19.39
-10.74
-2.67
4.43
10.27
14.75
17.84
19.65
20.42
20.48
20.24
20.09
20.24
20.76
21.50
22.23
22.79
23.12
23.37
23.76
24.42
25.23
25.85
25.81
24.80
22.90
20.59
18.62
17.54
17.44
17.80
17.71
16.32
13.24
8.75
3.74
-0.57
-2.89
-2.23
2.00
9.79
20.40
32.37
43.62
51.89
55.13
52.02
42.09
25.75
4.01
-21.85
-50.38
-80.11
-109.37
-136.20
-158.27
-173.12
-178.62
-173.51
-157.98
-133.95
-104.81
-74.78
-47.89
-27.05
-13.47
-6.73
-5.19
-6.72
-9.22
-10.76
-9.81
-5.42
2.36
11.97
20.31
23.51
18.46
4.61
-15.17
-35.03
-48.12
-49.04
-35.87
-10.66
21.58
54.85
84.06
106.04
119.58
124.87
122.80
114.69
102.29
87.98
74.43
63.88
57.33
53.95
51.45
47.16
39.32
27.94
14.47
0.96
-10.94
-20.54
-28.15
-34.60
-40.65
-46.49
-51.88
-56.43
-60.05
-62.97
-65.51
-67.66
-69.09
-69.41
-68.71
-67.86
-68.16
-70.71
-75.61
-81.74
-87.22
-90.17
-89.59
-85.67
-79.31
-71.48
-62.72
-53.26
-43.22
-32.73
-21.80
-10.23
2.30
15.74
29.35
41.67
51.03
56.44
57.93
56.56
53.79
50.82
48.21
45.85
43.20
39.75
35.16
29.37
22.63
15.40
8.30
1.99
-3.00
-6.47
-8.60
-9.89
-10.84
-11.79
-12.74
-13.43
-13.54
-12.93
-11.75
-10.41
-9.43
-9.13
-9.69
-11.04
-13.07
-15.60
-18.40
-21.02
-22.79
-22.97
-21.00
-16.82
-10.97
-4.43
1.69
6.56
9.79
11.44
11.91
11.70
11.32
11.15
11.44
12.26
13.54
15.11
16.75
18.20
19.22
19.60
19.23
18.15
16.54
14.77
13.19
12.09
11.50
11.24
10.97
10.33
9.08
7.15
4.68
1.88
-0.96
-3.60
-5.90
-7.76
-9.26
-10.55
-11.89
-13.58
-15.86
-18.74
-21.90
-24.67
-26.24
-25.97
-23.69
-19.76
-14.91
-9.88
-5.20
-1.04
2.53
5.48
7.61
8.72
8.76
8.01
6.92
5.99
5.51
5.47
5.70
5.92
5.94
5.67
5.12
4.33
3.40
2.39
1.38
0.42
-0.54
-1.52
-2.57
-3.68
-4.79
-5.85
-6.89
-7.95
-9.15
-10.57
-12.26
-14.23
-16.39
-18.60
-20.56
-21.95
-22.41
-21.69
-19.79
-16.89
-13.38
-9.64
-6.02
-2.66
0.36
3.04
5.27
6.90
7.78
7.90
7.39
6.57
5.79
5.30
5.15
5.23
5.33
5.30
5.08
4.68
4.13
3.35
2.26
0.78
-1.04
-2.98
-4.73
-6.09
-6.98
-7.52
-7.96
-8.57
-9.62
-11.34
-13.87
-17.16
-20.93
-24.63
-27.54
-29.05
-28.82
-26.92
-23.73
-19.77
-15.54
-11.43
-7.64
-4.26
-1.33
1.18
3.35
5.19
6.73
7.95
8.84
9.45
9.87
10.13
10.25
10.17
9.80
9.10
8.16
7.15
6.27
5.66
5.36
5.23
4.97
4.28
2.86
0.65
-2.15
-5.15
-7.88
-10.06
-11.70
-13.13
-14.81
-17.04
-19.86
-22.93
-25.70
-27.61
-28.27
-27.54
-25.49
-22.37
-18.44
-13.96
-9.22
-4.54
-0.25
3.34
5.98
7.62
8.45
8.80
9.09
9.60
10.45
11.51
12.56
13.43
14.03
14.36
14.54
14.57
14.43
14.04
13.34
12.31
10.96
9.32
7.47
5.48
3.47
1.53
-0.35
-2.39
-4.89
-8.18
-12.34
-17.16
-22.08
-26.31
-29.07
-29.85
-28.52
-25.35
-20.88
-15.77
-10.60
-5.80
-1.65
1.66
4.03
5.39
5.84
5.56
4.89
4.13
3.48
3.02
2.73
2.61
2.68
2.92
3.23
3.37
3.09
2.25
0.86
-0.91
-2.85
-4.78
-6.59
-8.24
-9.64
-10.75
-11.59
-12.36
-13.35
-14.89
-17.16
-20.02
-23.09
-25.78
-27.47
-27.70
-26.29
-23.38
-19.40
-14.90
-10.44
-6.39
-2.98
-0.29
1.66
2.93
3.59
3.78
3.70
3.59
3.63
3.94
4.50
5.24
6.03
6.68
7.03
6.93
6.29
5.15
3.61
1.85
0.02
-1.84
-3.76
-5.90
-8.42
-11.50
-15.21
-19.55
-24.41
-29.46
-34.24
-38.15
-40.54
-40.89
-38.95
-34.91
-29.32
-23.01
-16.78
-11.23
-6.62
-2.82
0.43
3.40
6.23
8.78
10.84
12.20
12.88
13.06
13.07
13.17
13.44
13.80
14.13
14.33
14.46
14.55
14.62
14.51
14.00
12.87
11.06
8.71
6.12
3.59
1.31
-0.85
-3.26
-6.45
-10.82
-16.39
-22.62
-28.49
-32.83
-34.69
-33.69
-30.02
-24.35
-17.42
-9.92
-2.34
4.95
11.64
17.47
22.31
26.18
29.28
31.88
34.19
36.30
38.20
39.76
40.82
41.21
40.90
39.96
38.64
37.26
36.09
35.25
34.55
33.68
32.26
30.09
27.26
24.09
20.99
18.25
15.99
14.07
12.30
10.46
8.39
5.93
2.96
-0.55
-4.44
-8.25
-11.32
-12.95
-12.61
-10.23
-6.06
-0.70
5.15
10.91
16.16
20.70
24.49
27.62
30.23
32.48
34.43
36.08
37.33
38.12
38.48
38.52
38.37
38.08
37.66
37.08
36.40
35.71
35.12
34.64
34.13
33.39
32.24
30.65
28.71
26.58
24.40
22.18
19.92
17.61
15.25
12.90
10.52
7.98
5.13
1.83
-1.94
-6.04
-10.23
-14.13
-17.32
-19.38
-19.98
-18.97
-16.45
-12.84
-8.69
-4.57
-0.79
2.59
5.73
8.81
11.86
14.72
17.12
18.81
19.69
19.96
19.96
20.05
20.45
21.15
21.90
22.43
22.55
22.22
21.62
20.95
20.33
19.74
19.00
17.92
16.42
14.62
12.78
11.18
9.92
8.91
7.92
6.71
5.22
3.56
1.94
0.52
-0.76
-2.20
-4.16
-6.89
-10.40
-14.31
-18.05
-21.02
-22.78
-23.16
-22.27
-20.35
-17.72
-14.71
-11.60
-8.61
-5.91
-3.58
-1.61
-0.03
1.21
2.11
2.75
3.21
3.65
4.19
4.88
5.61
6.26
6.75
7.11
7.47
7.90
8.40
8.81
8.93
8.57
7.71
6.43
4.85
3.16
1.52
0.09
-1.03
-1.85
-2.51
-3.20
-4.12
-5.39
-6.95
-8.65
-10.33
-11.92
-13.39
-14.82
-16.27
-17.83
-19.57
-21.50
-23.52
-25.40
-26.82
-27.41
-26.90
-25.24
-22.57
-19.23
-15.64
-12.27
-9.40
-7.16
-5.47
-4.16
-3.04
-1.97
-0.94
0.01
0.88
1.71
2.55
3.40
4.13
4.56
4.52
4.03
3.30
2.68
2.44
2.65
3.12
3.52
3.54
3.09
2.27
1.38
0.69
0.28
0.01
-0.36
-1.04
-2.18
-3.62
-5.18
-6.63
-7.85
-8.91
-9.89
-10.92
-11.99
-13.07
-14.17
-15.32
-16.68
-18.41
-20.51
-22.75
-24.70
-25.81
-25.65
-24.06
-21.24
-17.69
-14.00
-10.68
-7.99
-5.90
-4.22
-2.81
-1.57
-0.55
0.28
0.99
1.72
2.57
3.47
4.26
4.75
4.83
4.59
4.22
3.87
3.54
3.13
2.53
1.79
1.07
0.59
0.44
0.54
0.58
0.25
-0.64
-2.11
-3.96
-5.86
-7.48
-8.61
-9.21
-9.38
-9.36
-9.41
-9.77
-10.65
-12.13
-14.20
-16.64
-19.06
-20.96
-21.84
-21.41
-19.66
-16.87
-13.48
-9.91
-6.51
-3.44
-0.77
1.47
3.23
4.45
5.06
5.10
4.70
4.11
3.59
3.38
3.55
3.98
4.44
4.71
4.71
4.48
4.18
3.91
3.67
3.37
2.88
2.17
1.36
0.58
-0.03
-0.47
-0.87
-1.40
-2.21
-3.35
-4.73
-6.17
-7.52
-8.78
-10.07
-11.66
-13.74
-16.38
-19.44
-22.59
-25.47
-27.77
-29.34
-30.10
-30.05
-29.12
-27.31
-24.65
-21.36
-17.79
-14.30
-11.16
-8.45
-6.10
-4.00
-2.10
-0.46
0.82
1.69
2.23
2.67
3.29
4.32
5.74
7.38
8.85
9.89
10.33
10.24
9.77
9.04
8.13
6.99
5.66
4.25
2.92
1.79
0.82
-0.16
-1.42
-3.08
-5.06
-7.11
-9.02
-10.69
-12.28
-14.05
-16.18
-18.80
-21.88
-25.37
-29.13
-32.99
-36.58
-39.37
-40.72
-40.14
-37.50
-33.18
-27.92
-22.57
-17.79
-13.87
-10.78
-8.27
-6.15
-4.32
-2.71
-1.30
0.06
1.54
3.23
5.14
7.02
8.65
9.85
10.65
11.26
11.86
12.57
13.30
13.82
13.91
13.53
12.75
11.73
10.56
9.19
7.49
5.36
2.84
0.10
-2.64
-5.20
-7.52
-9.67
-11.75
-13.89
-16.22
-18.83
-21.89
-25.49
-29.59
-33.91
-37.88
-40.79
-41.91
-40.80
-37.41
-32.20
-25.98
-19.68
-14.06
-9.50
-5.99
-3.26
-0.95
1.21
3.32
5.38
7.28
8.89
10.15
11.07
11.71
12.19
12.59
12.88
13.06
13.09
13.08
13.18
13.51
14.00
14.38
14.26
13.30
11.45
8.95
6.15
3.34
0.64
-1.94
-4.39
-6.58
-8.48
-10.20
-12.20
-15.13
-19.44
-25.09
-31.33
-36.94
-40.61
-41.45
-39.21
-34.44
-28.07
-21.23
-14.73
-8.99
-4.07
0.25
4.18
7.87
11.27
14.34
17.02
19.37
21.43
23.25
24.78
25.92
26.66
27.07
27.40
27.85
28.59
29.63
30.88
32.11
32.96
33.03
31.90
29.38
25.56
20.92
16.08
11.65
7.95
4.95
2.39
-0.09
-2.77
-5.83
-9.36
-13.43
-17.99
-22.87
-27.68
-31.78
-34.52
-35.33
-34.03
-30.80
-26.25
-21.08
-15.91
-11.16
-6.94
-3.18
0.19
3.15
5.54
7.25
8.38
9.31
10.59
12.72
15.83
19.60
23.45
26.75
29.16
30.76
31.89
32.91
33.97
34.88
35.28
34.78
33.25
30.77
27.60
23.98
20.13
16.18
12.31
8.68
5.43
2.52
-0.31
-3.45
-7.37
-12.36
-18.34
-24.89
-31.19
-36.30
-39.39
-39.88
-37.66
-33.08
-26.81
-19.64
-12.34
-5.46
0.74
6.22
11.04
15.26
18.90
21.91
24.34
26.29
27.96
29.52
31.11
32.66
33.98
34.83
35.08
34.79
34.20
33.60
33.16
32.77
32.14
30.85
28.64
25.50
21.76
17.85
14.19
10.94
8.02
5.16
2.00
-1.78
-6.38
-11.81
-17.82
-23.84
-29.02
-32.44
-33.39
-31.61
-27.43
-21.61
-15.07
-8.64
-2.80
2.25
6.50
10.04
12.88
15.08
16.67
17.77
18.55
19.20
19.87
20.69
21.78
23.22
25.07
27.27
29.62
31.74
33.22
33.72
33.11
31.48
29.05
26.11
22.84
19.37
15.81
12.33
9.11
6.28
3.71
1.03
-2.28
-6.71
-12.30
-18.64
-24.85
-29.85
-32.74
-33.00
-30.58
-25.90
-19.60
-12.42
-5.05
1.97
8.30
13.79
18.34
21.92
24.44
25.85
26.21
25.82
25.13
24.63
24.60
25.06
25.76
26.38
26.70
26.69
26.45
26.05
25.45
24.44
22.75
20.23
16.92
13.10
9.22
5.65
2.59
-0.06
-2.64
-5.58
-9.21
-13.67
-18.91
-24.63
-30.36
-35.41
-39.00
-40.36
-39.00
-34.94
-28.72
-21.26
-13.52
-6.25
0.20
5.78
10.59
14.75
18.28
21.17
23.38
24.94
25.87
26.27
26.31
26.21
26.19
26.38
26.74
27.10
27.22
26.93
26.19
25.11
23.80
22.26
20.35
17.87
14.70
10.95
6.96
3.16
-0.13
-2.78
-5.02
-7.27
-10.08
-13.87
-18.83
-24.77
-31.12
-37.03
-41.56
-43.89
-43.52
-40.44
-35.09
-28.25
-20.80
-13.46
-6.72
-0.72
4.60
9.39
13.67
17.29
20.02
21.69
22.41
22.55
22.60
22.88
23.44
24.05
24.39
24.29
23.81
23.24
22.80
22.49
22.05
21.11
19.40
16.95
14.04
11.00
8.08
5.35
2.83
0.56
-1.38
-3.00
-4.49
-6.25
-8.81
-12.53
-17.50
-23.48
-29.99
-36.37
-41.83
-45.47
-46.44
-44.24
-38.99
-31.54
-23.20
-15.29
-8.61
-3.23
1.28
5.45
9.54
13.42
16.77
19.31
20.95
21.84
22.23
22.34
22.31
22.23
22.17
22.17
22.28
22.50
22.77
22.92
22.76
22.08
20.80
18.99
16.84
14.55
12.22
9.85
7.25
4.27
0.90
-2.65
-6.09
-9.14
-11.78
-14.26
-17.03
-20.57
-25.14
-30.53
-36.07
-40.71
-43.34
-43.25
-40.32
-35.15
-28.75
-22.23
-16.33
-11.27
-6.90
-2.89
1.03
4.87
8.51
11.75
14.44
16.54
18.07
19.06
19.56
19.65
19.47
19.20
18.96
18.81
18.74
18.71
18.71
18.71
18.55
18.00
16.72
14.46
11.24
7.43
3.60
0.28
-2.26
-4.22
-6.04
-8.18
-10.87
-14.09
-17.65
-21.40
-25.23
-29.01
-32.40
-34.71
-35.18
-33.28
-29.05
-23.19
-16.73
-10.65
-5.49
-1.26
2.33
5.57
8.55
11.14
13.19
14.65
15.62
16.27
16.67
16.82
16.62
16.05
15.18
14.22
13.37
12.76
12.34
11.92
11.21
9.99
8.18
5.85
3.25
0.65
-1.74
-3.85
-5.80
-7.82
-10.08
-12.74
-15.88
-19.47
-23.36
-27.19
-30.39
-32.25
-32.17
-29.85
-25.48
-19.64
-13.15
-6.75
-0.94
4.07
8.26
11.65
14.17
15.77
16.45
16.38
15.84
15.19
14.68
14.43
14.37
14.36
14.23
13.90
13.37
12.73
12.10
11.55
11.04
10.48
9.66
8.46
6.79
4.64
2.17
-0.44
-3.00
-5.32
-7.29
-8.94
-10.47
-12.28
-14.80
-18.36
-22.90
-27.97
-32.70
-36.17
-37.62
-36.75
-33.67
-28.88
-22.97
-16.55
-10.10
-4.01
1.41
5.91
9.35
11.74
13.25
14.23
14.99
15.80
16.70
17.55
18.12
18.18
17.75
16.96
16.06
15.27
14.64
14.12
13.61
13.06
12.48
11.76
10.65
8.88
6.30
3.02
-0.42
-3.44
-5.60
-6.88
-7.70
-8.68
-10.41
-13.24
-17.23
-22.08
-27.23
-31.90
-35.21
-36.37
-34.97
-31.12
-25.48
-18.99
-12.57
-6.91
-2.31
1.20
3.86
5.97
7.86
9.73
11.63
13.48
15.11
16.39
17.27
17.79
17.97
17.83
17.36
16.65
15.90
15.36
15.24
15.50
15.89
15.93
15.21
13.47
10.79
7.51
4.19
1.34
-0.78
-2.23
-3.36
-4.67
-6.57
-9.27
-12.75
-16.89
-21.44
-25.98
-29.87
-32.34
-32.62
-30.34
-25.73
-19.55
-12.88
-6.71
-1.67
2.04
4.50
5.95
6.65
6.84
6.83
6.92
7.39
8.37
9.78
11.35
12.71
13.45
13.32
12.23
10.38
8.20
6.22
4.84
4.20
4.11
4.12
3.84
3.02
1.63
-0.20
-2.30
-4.52
-6.78
-9.05
-11.37
-13.78
-16.31
-18.91
-21.33
-23.09
-23.67
-22.64
-19.93
-15.82
-10.90
-5.79
-0.96
3.29
6.87
9.65
11.51
12.44
12.50
11.99
11.30
10.82
10.80
11.26
12.00
12.76
13.24
13.30
12.90
12.15
11.18
10.05
8.79
7.37
5.74
3.92
1.99
0.13
-1.50
-2.85
-3.97
-5.04
-6.27
-7.85
-9.93
-12.56
-15.70
-19.18
-22.66
-25.61
-27.48
-27.76
-26.24
-23.05
-18.65
-13.67
-8.77
-4.40
-0.77
2.13
4.48
6.51
8.37
10.14
11.76
13.12
14.07
14.54
14.52
14.06
13.30
12.34
11.38
10.62
10.27
10.43
11.02
11.78
12.26
12.08
10.95
8.90
6.18
3.22
0.43
-1.87
-3.63
-4.99
-6.23
-7.64
-9.50
-11.99
-15.13
-18.68
-22.25
-25.19
-26.84
-26.75
-24.84
-21.43
-17.15
-12.69
-8.51
-4.84
-1.64
1.20
3.77
6.08
8.08
9.76
11.16
12.33
13.34
14.12
14.51
14.28
13.35
11.83
10.05
8.45
7.37
6.95
7.04
7.35
7.58
7.54
7.10
6.17
4.69
2.70
0.44
-1.68
-3.21
-3.97
-4.13
-4.25
-4.96
-6.69
-9.55
-13.22
-17.13
-20.62
-23.16
-24.32
-23.92
-21.99
-18.76
-14.60
-9.96
-5.25
-0.89
2.77
5.47
7.19
8.06
8.48
8.81
9.28
9.87
10.36
10.58
10.53
10.29
10.05
9.83
9.57
9.10
8.38
7.54
6.81
6.45
6.53
6.97
7.45
7.57
7.00
5.61
3.53
1.09
-1.26
-3.19
-4.59
-5.64
-6.72
-8.24
-10.47
-13.54
-17.30
-21.40
-25.21
-28.02
-29.11
-28.09
-25.02
-20.41
-15.06
-9.75
-5.03
-1.19
1.72
3.76
5.13
6.03
6.71
7.37
8.12
8.93
9.74
10.49
11.12
11.57
11.69
11.38
10.63
9.60
8.60
7.91
7.61
7.53
7.33
6.75
5.68
4.17
2.38
0.42
-1.59
-3.61
-5.52
-7.23
-8.79
-10.39
-12.30
-14.72
-17.58
-20.53
-23.00
-24.44
-24.47
-23.01
-20.22
-16.51
-12.37
-8.23
-4.48
-1.29
1.26
3.12
4.22
4.54
4.15
3.29
2.41
1.93
2.10
2.84
3.85
4.72
5.24
5.37
5.21
4.90
4.49
4.02
3.50
3.04
2.67
2.38
2.00
1.33
0.25
-1.24
-3.00
-4.84
-6.57
-8.16
-9.64
-11.15
-12.82
-14.83
-17.21
-19.93
-22.68
-24.98
-26.29
-26.12
-24.29
-21.01
-16.78
-12.28
-8.07
-4.45
-1.46
1.00
3.07
4.75
5.93
6.57
6.73
6.66
6.69
7.09
7.94
9.08
10.27
11.23
11.77
11.82
11.39
10.54
9.36
7.96
6.44
4.85
3.24
1.60
-0.04
-1.63
-3.14
-4.54
-5.92
-7.38
-9.05
-11.07
-13.55
-16.52
-19.94
-23.58
-27.04
-29.70
-30.93
-30.28
-27.68
-23.54
-18.53
-13.43
-8.75
-4.63
-0.98
2.45
5.68
8.55
10.74
11.99
12.27
11.84
11.19
10.77
10.86
11.43
12.25
12.95
13.23
13.02
12.41
11.66
10.99
10.46
9.94
9.19
8.02
6.40
4.50
2.54
0.76
-0.78
-2.16
-3.55
-5.10
-6.89
-9.00
-11.45
-14.24
-17.26
-20.26
-22.82
-24.42
-24.66
-23.35
-20.62
-16.82
-12.36
-7.68
-3.14
1.02
4.56
7.30
9.17
10.22
10.66
10.85
11.06
11.45
11.96
12.41
12.62
12.48
12.03
11.42
10.82
10.40
10.27
10.45
10.85
11.27
11.46
11.18
10.27
8.77
6.88
4.87
2.94
1.16
-0.56
-2.38
-4.45
-6.89
-9.74
-12.94
-16.31
-19.48
-21.92
-23.07
-22.54
-20.32
-16.70
-12.26
-7.54
-2.91
1.48
5.57
9.18
12.07
13.92
14.65
14.47
13.96
13.66
13.96
14.79
15.85
16.67
16.97
16.78
16.39
16.13
16.22
16.66
17.21
17.50
17.24
16.24
14.57
12.40
10.04
7.71
5.56
3.61
1.79
0.02
-1.82
-3.81
-6.11
-8.86
-12.13
-15.83
-19.61
-22.96
-25.26
-26.07
-25.19
-22.77
-19.19
-14.97
-10.51
-6.12
-1.90
2.05
5.57
8.44
10.45
11.53
11.85
11.78
11.76
12.05
12.66
13.35
13.80
13.87
13.66
13.48
13.62
14.11
14.71
14.99
14.62
13.53
11.97
10.35
8.99
7.99
7.13
6.10
4.66
2.81
0.72
-1.39
-3.40
-5.39
-7.60
-10.23
-13.39
-16.97
-20.63
-23.88
-26.22
-27.29
-26.89
-25.11
-22.18
-18.46
-14.28
-9.93
-5.64
-1.55
2.24
5.61
8.48
10.81
12.57
13.82
14.60
15.00
15.11
15.10
15.08
15.12
15.18
15.13
14.82
14.20
13.34
12.44
11.69
11.20
10.94
10.78
10.54
10.04
9.17
7.92
6.31
4.45
2.44
0.41
-1.56
-3.48
-5.45
-7.65
-10.27
-13.35
-16.74
-20.14
-23.07
-25.05
-25.73
-24.95
-22.86
-19.76
-16.08
-12.20
-8.44
-5.02
-2.04
0.53
2.74
4.70
6.37
7.67
8.45
8.60
8.17
7.44
6.73
6.39
6.49
6.93
7.42
7.75
7.80
7.57
7.09
6.31
5.20
3.71
1.93
0.09
-1.54
-2.78
-3.65
-4.34
-5.15
-6.29
-7.87
-9.83
-12.08
-14.50
-16.99
-19.27
-20.96
-21.58
-20.78
-18.53
-15.23
-11.55
-8.15
-5.38
-3.22
-1.36
0.50
2.41
4.09
5.21
5.48
4.97
3.99
3.04
2.54
2.71
3.52
4.74
6.01
7.01
7.56
7.63
7.38
6.99
6.59
6.12
5.34
4.01
2.07
-0.39
-2.99
-5.36
-7.30
-8.80
-10.04
-11.24
-12.60
-14.23
-16.24
-18.71
-21.57
-24.52
-27.06
-28.59
-28.68
-27.19
-24.37
-20.74
-16.78
-12.89
-9.22
-5.84
-2.78
-0.10
2.11
3.79
4.96
5.74
6.26
6.66
7.06
7.56
8.17
8.85
9.51
10.04
10.39
10.52
10.39
10.01
9.39
8.51
7.41
6.04
4.38
2.38
0.10
-2.27
-4.43
-6.09
-7.21
-8.07
-9.19
-11.10
-14.09
-17.98
-22.24
-26.11
-28.96
-30.43
-30.41
-29.00
-26.42
-22.96
-18.96
-14.76
-10.70
-7.00
-3.75
-0.88
1.73
4.19
6.57
8.83
10.88
12.65
14.06
15.11
15.87
16.46
16.95
17.33
17.51
17.37
16.85
16.05
15.15
14.31
13.58
12.80
11.73
10.18
8.15
5.91
3.82
2.21
1.08
0.23
-0.77
-2.29
-4.54
-7.51
-11.01
-14.75
-18.38
-21.57
-24.00
-25.36
-25.46
-24.24
-21.75
-18.19
-13.89
-9.20
-4.53
-0.16
3.74
7.13
10.05
12.52
14.48
15.84
16.64
17.07
17.49
18.22
19.37
20.78
22.08
22.89
23.08
22.79
22.34
22.06
22.11
22.40
22.68
22.64
22.01
20.69
18.71
16.28
13.73
11.41
9.51
8.02
6.67
5.10
2.93
-0.03
-3.74
-7.99
-12.37
-16.41
-19.57
-21.31
-21.24
-19.24
-15.52
-10.62
-5.25
-0.04
4.57
8.39
11.44
13.82
15.60
16.90
17.77
18.32
18.64
18.83
18.96
19.10
19.30
19.58
19.91
20.17
20.22
19.90
19.18
18.17
17.12
16.23
15.57
14.96
14.04
12.50
10.25
7.51
4.74
2.33
0.45
-1.07
-2.59
-4.45
-6.81
-9.63
-12.68
-15.70
-18.41
-20.55
-21.80
-21.89
-20.63
-17.96
-14.06
-9.32
-4.20
0.76
5.10
8.50
10.81
12.16
12.76
12.93
12.95
13.00
13.17
13.47
13.84
14.18
14.36
14.25
13.80
13.06
12.15
11.19
10.27
9.38
8.42
7.29
5.89
4.19
2.24
0.10
-2.14
-4.49
-7.02
-9.88
-13.19
-16.92
-20.83
-24.42
-27.02
-28.02
-27.07
-24.28
-20.17
-15.49
-10.94
-6.98
-3.75
-1.19
0.91
2.70
4.25
5.62
6.89
8.15
9.48
10.84
12.11
13.07
13.54
13.41
12.76
11.72
10.50
9.28
8.19
7.25
6.36
5.34
3.98
2.22
0.12
-2.14
-4.33
-6.33
-8.19
-10.14
-12.33
-14.81
-17.33
-19.46
-20.66
-20.56
-19.05
-16.30
-12.69
-8.70
-4.73
-1.04
2.16
4.77
6.70
7.92
8.49
8.58
8.42
8.24
8.23
8.44
8.84
9.33
9.79
10.09
10.19
10.13
10.01
10.00
10.10
10.19
9.97
9.12
7.43
4.97
2.06
-0.84
-3.37
-5.45
-7.32
-9.40
-12.04
-15.33
-18.99
-22.39
-24.87
-25.89
-25.26
-23.14
-19.89
-16.05
-12.08
-8.28
-4.83
-1.73
1.07
3.54
5.62
7.21
8.23
8.75
8.96
9.06
9.26
9.56
9.85
9.93
9.70
9.19
8.53
7.89
7.33
6.83
6.26
5.47
4.44
3.18
1.76
0.29
-1.18
-2.73
-4.48
-6.61
-9.18
-12.11
-15.09
-17.60
-19.18
-19.47
-18.38
-16.08
-12.88
-9.15
-5.20
-1.25
2.52
5.92
8.78
10.92
12.34
13.15
13.57
13.77
13.82
13.66
13.20
12.46
11.59
10.86
10.46
10.43
10.57
10.58
10.16
9.16
7.70
5.98
4.30
2.87
1.76
0.90
0.07
-0.95
-2.45
-4.66
-7.69
-11.45
-15.60
-19.51
-22.38
-23.55
-22.65
-19.88
-15.87
-11.46
-7.36
-3.88
-0.98
1.68
4.35
7.13
9.86
12.28
14.10
15.18
15.53
15.26
14.60
13.81
13.13
12.68
12.47
12.42
12.38
12.25
11.94
11.42
10.66
9.58
8.17
6.44
4.51
2.55
0.68
-1.05
-2.65
-4.16
-5.59
-7.08
-8.79
-10.97
-13.75
-17.00
-20.25
-22.78
-23.91
-23.27
-20.93
-17.38
-13.29
-9.20
-5.41
-1.99
1.11
3.89
6.28
8.19
9.59
10.54
11.12
11.45
11.57
11.53
11.31
10.97
10.59
10.23
9.88
9.54
9.12
8.54
7.79
6.92
6.04
5.24
4.56
3.90
3.09
1.95
0.47
-1.17
-2.73
-4.03
-5.22
-6.73
-9.09
-12.57
-16.88
-21.21
-24.49
-25.84
-24.97
-22.19
-18.16
-13.65
-9.19
-5.06
-1.33
1.99
4.84
7.15
8.85
9.96
10.55
10.77
10.73
10.51
10.08
9.36
8.35
7.13
5.88
4.83
4.14
3.88
3.96
4.19
4.33
4.18
3.58
2.50
1.01
-0.69
-2.39
-3.94
-5.38
-6.86
-8.62
-10.78
-13.31
-15.98
-18.44
-20.34
-21.36
-21.27
-19.92
-17.36
-13.81
-9.67
-5.41
-1.47
2.00
4.91
7.31
9.16
10.34
10.75
10.43
9.67
8.94
8.72
9.22
10.37
11.77
13.02
13.77
13.95
13.64
12.96
12.01
10.80
9.29
7.50
5.52
3.49
1.57
-0.21
-1.91
-3.73
-5.88
-8.53
-11.81
-15.70
-20.16
-24.97
-29.79
-34.10
-37.29
-38.84
-38.49
-36.31
-32.73
-28.34
-23.66
-19.03
-14.56
-10.27
-6.23
-2.56
0.55
3.02
4.86
6.13
6.89
7.19
7.04
6.52
5.76
4.95
4.25
3.82
3.70
3.88
4.22
4.53
4.57
4.12
3.06
1.45
-0.52
-2.53
-4.30
-5.57
-6.29
-6.53
-6.50
-6.52
-6.98
-8.22
-10.35
-13.28
-16.56
-19.52
-21.44
-21.76
-20.25
-17.11
-12.90
-8.32
-4.02
-0.34
2.68
5.26
7.61
9.79
11.67
13.00
13.62
13.57
13.06
12.41
11.90
11.66
11.67
11.81
11.93
11.90
11.63
11.13
10.44
9.62
8.74
7.80
6.71
5.43
3.92
2.24
0.50
-1.17
-2.72
-4.20
-5.70
-7.48
-9.76
-12.67
-16.03
-19.38
-21.97
-23.02
-22.07
-19.16
-14.91
-10.14
-5.62
-1.75
1.46
4.20
6.66
8.79
10.45
11.49
11.98
12.15
12.33
12.78
13.55
14.54
15.53
16.30
16.70
16.68
16.32
15.76
15.18
14.70
14.34
13.94
13.29
12.20
10.58
8.48
6.10
3.75
1.67
-0.03
-1.38
-2.65
-4.15
-6.21
-8.96
-12.29
-15.74
-18.70
-20.55
-20.90
-19.70
-17.20
-13.88
-10.24
-6.67
-3.34
-0.25
2.64
5.41
8.04
10.39
12.29
13.63
14.35
14.52
14.29
13.84
13.44
13.26
13.42
13.85
14.29
14.42
14.01
13.06
11.77
10.47
9.38
8.51
7.69
6.68
5.40
3.95
2.55
1.36
0.31
-0.87
-2.56
-4.98
-8.10
-11.69
-15.35
-18.67
-21.31
-22.97
-23.45
-22.72
-20.87
-18.15
-14.92
-11.51
-8.16
-5.00
-2.09
0.57
2.94
4.99
6.73
8.18
9.44
10.58
11.67
12.71
13.68
14.53
15.19
15.58
15.66
15.48
15.14
14.72
14.30
13.77
13.04
12.01
10.66
9.06
7.32
5.50
3.65
1.76
-0.25
-2.46
-4.98
-7.85
-10.96
-13.94
-16.23
-17.25
-16.62
-14.33
-10.81
-6.77
-2.91
0.28
2.67
4.34
5.49
6.31
6.89
7.26
7.39
7.23
6.83
6.32
5.91
5.85
6.27
7.15
8.27
9.32
10.04
10.33
10.25
9.96
9.54
8.97
8.04
6.58
4.56
2.07
-0.59
-3.15
-5.48
-7.66
-9.90
-12.37
-14.99
-17.33
-18.74
-18.57
-16.51
-12.75
-8.00
-3.13
1.09
4.31
6.55
8.10
9.22
10.02
10.47
10.51
10.21
9.82
9.67
9.97
10.73
11.69
12.42
12.52
11.82
10.36
8.43
6.39
4.56
3.02
1.71
0.38
-1.18
-3.09
-5.33
-7.76
-10.26
-12.77
-15.29
-17.75
-19.91
-21.31
-21.44
-20.05
-17.25
-13.54
-9.59
-5.86
-2.43
0.91
4.42
8.12
11.69
14.59
16.35
16.87
16.44
15.61
14.88
14.54
14.55
14.67
14.69
14.50
14.13
13.65
13.05
12.17
10.77
8.72
6.14
3.40
0.95
-0.87
-2.07
-2.94
-3.92
-5.36
-7.37
-9.84
-12.54
-15.32
-18.07
-20.66
-22.80
-24.09
-24.09
-22.59
-19.75
-16.06
-12.19
-8.73
-5.93
-3.76
-1.95
-0.27
1.34
2.76
3.79
4.33
4.46
4.44
4.55
4.95
5.62
6.41
7.16
7.81
8.38
8.88
9.28
9.44
9.23
8.57
7.50
6.12
4.54
2.87
1.16
-0.49
-2.03
-3.48
-4.96
-6.75
-9.14
-12.25
-15.86
-19.43
-22.26
-23.71
-23.50
-21.68
-18.64
-14.87
-10.76
-6.58
-2.54
1.16
4.23
6.48
7.82
8.41
8.62
8.89
9.52
10.57
11.80
12.84
13.37
13.28
12.59
11.54
10.38
9.30
8.42
7.73
7.18
6.54
5.61
4.29
2.67
1.04
-0.26
-1.00
-1.29
-1.53
-2.12
-3.35
-5.21
-7.50
-9.95
-12.45
-14.88
-17.15
-18.94
-19.77
-19.25
-17.24
-14.01
-10.09
-6.07
-2.35
0.88
3.61
5.79
7.37
8.28
8.58
8.49
8.34
8.44
8.95
9.80
10.66
11.17
11.02
10.12
8.65
6.99
5.57
4.68
4.31
4.22
4.07
3.54
2.57
1.24
-0.17
-1.45
-2.48
-3.30
-4.02
-4.82
-5.85
-7.19
-8.90
-10.94
-13.14
-15.23
-16.88
-17.78
-17.73
-16.67
-14.73
-12.17
-9.39
-6.74
-4.44
-2.55
-0.96
0.54
2.06
3.59
5.03
6.20
7.05
7.64
8.09
8.52
8.98
9.44
9.80
9.99
9.98
9.74
9.19
8.25
6.90
5.17
3.30
1.58
0.30
-0.45
-0.73
-0.85
-1.11
-1.83
-3.17
-5.20
-7.87
-11.02
-14.29
-17.17
-19.09
-19.58
-18.52
-16.16
-13.07
-9.87
-6.97
-4.54
-2.56
-0.93
0.34
1.21
1.66
1.77
1.75
1.79
2.00
2.29
2.60
2.82
2.97
3.12
3.37
3.78
4.32
4.87
5.19
5.05
4.24
2.73
0.70
-1.55
-3.74
-5.76
-7.75
-10.06
-12.98
-16.62
-20.60
-24.25
-26.76
-27.54
-26.32
-23.30
-19.02
-14.08
-9.15
-4.74
-1.21
1.21
2.59
3.09
3.08
2.91
2.86
3.03
3.39
3.87
4.40
4.86
5.14
5.12
4.67
3.78
2.57
1.22
-0.10
-1.25
-2.18
-2.86
-3.34
-3.71
-4.11
-4.77
-5.85
-7.48
-9.68
-12.43
-15.57
-18.80
-21.67
-23.63
-24.18
-23.16
-20.81
-17.68
-14.33
-11.12
-8.09
-5.06
-1.94
1.19
4.04
6.24
7.56
7.94
7.56
6.73
5.85
5.29
5.33
6.00
7.14
8.35
9.21
9.42
8.93
7.80
6.19
4.25
2.12
-0.07
-2.11
-3.76
-4.88
-5.58
-6.22
-7.38
-9.49
-12.78
-16.95
-21.29
-24.88
-26.94
-27.07
-25.35
-22.24
-18.36
-14.19
-9.96
-5.73
-1.52
2.47
6.00
8.84
10.94
12.53
13.92
15.34
16.76
17.99
18.79
19.09
19.02
18.81
18.64
18.49
18.23
17.71
16.83
15.67
14.37
13.00
11.56
9.97
8.13
5.99
3.59
1.05
-1.51
-4.00
-6.43
-8.90
-11.51
-14.27
-16.94
-19.13
-20.39
-20.39
-19.06
-16.57
-13.24
-9.38
-5.16
-0.68
3.97
8.62
12.96
16.63
19.36
21.05
21.89
22.21
22.39
22.66
23.09
23.56
23.94
24.14
24.18
24.09
23.80
23.16
22.03
20.38
18.41
16.45
14.76
13.41
12.22
10.92
9.37
7.54
5.57
3.55
1.46
-0.80
-3.35
-6.22
-9.31
-12.45
-15.42
-18.02
-20.00
-21.01
-20.77
-19.10
-16.09
-12.06
-7.50
-2.85
1.56
5.53
8.93
11.69
13.74
15.10
15.87
16.21
16.30
16.29
16.26
16.22
16.22
16.25
16.35
16.54
16.84
17.26
17.70
18.05
18.17
17.93
17.27
16.21
14.80
13.10
11.19
9.17
7.17
5.34
3.74
2.31
0.90
-0.70
-2.65
-4.98
-7.63
-10.52
-13.45
-16.17
-18.30
-19.40
-19.13
-17.35
-14.28
-10.43
-6.41
-2.69
0.49
3.20
5.59
7.83
9.96
11.83
13.14
13.66
13.34
12.40
11.33
10.61
10.53
11.02
11.80
12.47
12.81
12.83
12.68
12.49
12.27
11.87
11.12
9.98
8.50
6.87
5.21
3.63
2.19
0.89
-0.29
-1.43
-2.66
-4.08
-5.81
-7.83
-10.10
-12.51
-14.94
-17.17
-18.90
-19.77
-19.55
-18.19
-15.95
-13.27
-10.58
-8.12
-5.89
-3.75
-1.49
0.93
3.40
5.65
7.35
8.24
8.27
7.63
6.73
6.01
5.79
6.06
6.65
7.29
7.78
8.08
8.14
7.93
7.36
6.37
4.99
3.41
1.88
0.59
-0.40
-1.15
-1.81
-2.53
-3.56
-5.13
-7.42
-10.41
-13.81
-17.01
-19.35
-20.33
-19.76
-17.81
-14.87
-11.36
-7.72
-4.34
-1.47
0.76
2.35
3.49
4.37
5.18
5.99
6.84
7.70
8.58
9.34
9.75
9.58
8.71
7.23
5.57
4.21
3.49
3.46
3.81
4.10
3.94
3.13
1.73
-0.09
-2.02
-3.84
-5.35
-6.50
-7.36
-8.14
-9.12
-10.52
-12.45
-14.81
-17.34
-19.59
-21.05
-21.26
-19.92
-17.08
-13.13
-8.67
-4.39
-0.76
2.05
4.11
5.63
6.83
7.81
8.55
9.01
9.19
9.11
8.92
8.81
8.91
9.29
9.78
10.13
10.01
9.21
7.80
6.10
4.54
3.43
2.84
2.55
2.22
1.56
0.38
-1.27
-3.29
-5.50
-7.78
-10.09
-12.47
-15.05
-17.86
-20.81
-23.56
-25.59
-26.45
-25.90
-24.03
-21.22
-17.88
-14.32
-10.67
-6.95
-3.21
0.35
3.47
5.94
7.66
8.72
9.35
9.78
10.21
10.73
11.34
11.94
12.47
12.87
13.12
13.25
13.24
13.07
12.65
11.93
10.93
9.74
8.47
7.22
6.05
4.97
3.98
3.03
2.04
0.83
-0.73
-2.80
-5.39
-8.46
-11.89
-15.50
-19.09
-22.31
-24.68
-25.70
-25.07
-22.79
-19.27
-15.20
-11.23
-7.77
-4.87
-2.38
-0.10
2.08
4.19
6.17
7.95
9.49
10.73
11.51
11.75
11.43
10.69
9.82
9.13
8.92
9.20
9.80
10.37
10.54
10.05
8.89
7.28
5.58
4.00
2.54
0.95
-1.05
-3.59
-6.53
-9.52
-12.25
-14.56
-16.42
-17.81
-18.55
-18.34
-16.90
-14.19
-10.53
-6.42
-2.45
1.03
3.86
6.08
7.71
8.74
9.21
9.25
9.13
9.13
9.47
10.17
11.03
11.78
12.27
12.47
12.49
12.50
12.59
12.75
12.85
12.67
12.07
10.96
9.33
7.34
5.20
3.17
1.43
0.07
-1.05
-2.18
-3.61
-5.56
-8.06
-10.93
-13.88
-16.55
-18.61
-19.80
-19.94
-18.96
-16.93
-14.02
-10.58
-6.97
-3.52
-0.44
2.26
4.65
6.85
8.89
10.68
12.07
12.89
13.10
12.77
12.12
11.37
10.72
10.26
10.01
9.89
9.85
9.85
9.85
9.86
9.77
9.48
8.89
7.94
6.69
5.25
3.80
2.40
1.06
-0.38
-2.08
-4.16
-6.63
-9.41
-12.30
-14.99
-17.17
-18.49
-18.75
-17.87
-15.99
-13.44
-10.57
-7.70
-5.01
-2.53
-0.16
2.17
4.44
6.57
8.39
9.73
10.49
10.69
10.44
9.91
9.28
8.70
8.28
8.10
8.16
8.44
8.78
9.01
8.92
8.35
7.30
5.83
4.10
2.26
0.46
-1.23
-2.69
-3.84
-4.71
-5.35
-5.96
-6.72
-7.77
-9.16
-10.82
-12.51
-13.97
-14.87
-15.00
-14.25
-12.69
-10.52
-7.97
-5.24
-2.52
0.07
2.38
4.35
5.94
7.18
8.18
9.05
9.80
10.38
10.65
10.50
9.93
9.03
8.00
7.04
6.28
5.74
5.36
5.02
4.62
4.05
3.33
2.48
1.62
0.83
0.17
-0.40
-0.95
-1.55
-2.21
-2.95
-3.73
-4.70
-6.04
-8.00
-10.61
-13.66
-16.58
-18.74
-19.57
-18.89
-16.96
-14.27
-11.40
-8.76
-6.55
-4.75
-3.29
-2.11
-1.17
-0.47
0.07
0.58
1.16
1.87
2.64
3.27
3.57
3.44
2.90
2.10
1.25
0.49
-0.13
-0.64
-1.12
-1.61
-2.11
-2.62
-3.12
-3.65
-4.17
-4.68
-5.13
-5.58
-6.11
-6.88
-7.99
-9.39
-10.90
-12.23
-13.03
-13.08
-12.26
-10.64
-8.40
-5.88
-3.36
-1.09
0.79
2.28
3.42
4.23
4.70
4.77
4.36
3.56
2.55
1.59
0.98
0.89
1.34
2.17
3.08
3.70
3.75
3.11
1.84
0.16
-1.70
-3.58
-5.39
-7.12
-8.69
-10.05
-11.14
-12.00
-12.82
-13.82
-15.08
-16.48
-17.68
-18.23
-17.81
-16.39
-14.14
-11.43
-8.60
-5.86
-3.32
-1.03
0.93
2.44
3.42
3.89
4.03
4.09
4.31
4.74
5.27
5.70
5.82
5.56
5.01
4.33
3.71
3.19
2.70
2.06
1.17
-0.04
-1.45
-2.83
-3.96
-4.73
-5.22
-5.67
-6.46
-7.84
-9.92
-12.57
-15.51
-18.36
-20.75
-22.31
-22.76
-21.89
-19.75
-16.54
-12.73
-8.82
-5.28
-2.34
-0.01
1.81
3.27
4.41
5.22
5.65
5.70
5.44
5.03
4.67
4.51
4.59
4.82
4.96
4.77
4.12
3.09
1.98
1.06
0.45
0.02
-0.51
-1.38
-2.67
-4.16
-5.58
-6.73
-7.65
-8.59
-9.89
-11.83
-14.46
-17.62
-20.93
-23.96
-26.28
-27.62
-27.89
-27.17
-25.59
-23.29
-20.37
-16.95
-13.26
-9.57
-6.18
-3.25
-0.73
1.55
3.80
6.04
8.09
9.71
10.73
11.22
11.34
11.32
11.27
11.20
11.06
10.88
10.67
10.48
10.20
9.66
8.66
7.07
4.92
2.46
-0.02
-2.25
-4.07
-5.49
-6.63
-7.76
-9.17
-11.13
-13.82
-17.22
-21.05
-24.80
-27.82
-29.44
-29.23
-27.04
-23.22
-18.40
-13.33
-8.62
-4.52
-0.94
2.41
5.71
8.93
11.69
13.62
14.56
14.69
14.51
14.50
14.94
15.69
16.45
16.97
17.25
17.55
18.10
18.91
19.64
19.84
19.16
17.59
15.41
13.00
10.64
8.37
6.11
3.77
1.38
-0.97
-3.20
-5.39
-7.80
-10.77
-14.57
-19.16
-24.13
-28.69
-31.90
-33.01
-31.70
-28.21
-23.24
-17.69
-12.23
-7.20
-2.56
1.86
6.15
10.14
13.58
16.24
18.07
19.29
20.18
20.96
21.61
21.95
21.72
20.86
19.52
18.07
16.94
16.33
16.23
16.33
16.23
15.55
14.11
11.96
9.37
6.70
4.27
2.22
0.48
-1.20
-3.16
-5.67
-8.84
-12.63
-16.84
-21.10
-24.94
-27.84
-29.25
-28.79
-26.34
-22.17
-16.84
-11.02
-5.28
0.03
4.75
8.85
12.30
15.02
17.01
18.40
19.43
20.34
21.23
22.02
22.51
22.53
22.07
21.32
20.58
20.09
19.91
19.86
19.64
18.94
17.56
15.52
12.96
10.15
7.35
4.72
2.30
0.00
-2.39
-5.15
-8.60
-12.88
-17.93
-23.30
-28.24
-31.82
-33.21
-32.02
-28.37
-22.93
-16.61
-10.27
-4.46
0.62
5.01
8.81
12.03
14.63
16.53
17.82
18.71
19.48
20.32
21.29
22.26
23.03
23.45
23.55
23.44
23.27
23.09
22.82
22.27
21.23
19.59
17.45
15.04
12.65
10.44
8.39
6.27
3.72
0.39
-3.94
-9.21
-15.08
-20.89
-25.79
-28.91
-29.63
-27.77
-23.71
-18.22
-12.20
-6.36
-1.10
3.54
7.63
11.22
14.31
16.83
18.78
20.26
21.42
22.36
23.01
23.24
22.98
22.31
21.52
20.90
20.61
20.59
20.55
20.07
18.85
16.82
14.15
11.13
8.10
5.31
2.85
0.71
-1.20
-3.07
-5.12
-7.60
-10.70
-14.48
-18.74
-23.01
-26.63
-28.94
-29.41
-27.88
-24.53
-19.85
-14.43
-8.87
-3.60
1.04
4.86
7.81
9.94
11.42
12.42
13.13
13.73
14.39
15.29
16.52
18.04
19.66
21.03
21.83
21.91
21.33
20.35
19.24
18.11
16.85
15.23
13.06
10.29
7.08
3.74
0.50
-2.53
-5.44
-8.45
-11.66
-14.93
-17.77
-19.57
-19.78
-18.18
-14.97
-10.71
-6.01
-1.37
2.94
6.78
10.09
12.70
14.47
15.33
15.35
14.77
13.92
13.09
12.49
12.19
12.11
12.06
11.80
11.19
10.23
9.12
8.15
7.48
7.07
6.59
5.66
3.96
1.45
-1.74
-5.43
-9.46
-13.67
-17.77
-21.29
-23.57
-24.06
-22.54
-19.25
-14.86
-10.18
-5.84
-2.15
0.98
3.78
6.44
8.93
11.00
12.34
12.80
12.48
11.73
10.98
10.54
10.47
10.58
10.53
10.12
9.26
8.06
6.71
5.35
4.01
2.62
1.02
-0.96
-3.42
-6.38
-9.76
-13.39
-17.01
-20.25
-22.64
-23.71
-23.08
-20.61
-16.52
-11.31
-5.68
-0.22
4.72
8.99
12.64
15.67
17.95
19.32
19.70
19.23
18.28
17.26
16.48
15.97
15.57
14.97
13.92
12.41
10.61
8.81
7.23
5.96
4.85
3.62
1.95
-0.45
-3.71
-7.81
-12.52
-17.44
-21.99
-25.55
-27.59
-27.85
-26.35
-23.47
-19.71
-15.58
-11.43
-7.42
-3.59
0.05
3.47
6.60
9.40
11.77
13.68
15.02
15.75
15.91
15.68
15.33
15.08
15.04
15.11
15.11
14.81
14.11
13.05
11.72
10.23
8.65
6.95
5.12
3.11
0.88
-1.64
-4.57
-7.94
-11.68
-15.53
-19.03
-21.65
-22.86
-22.31
-19.97
-16.13
-11.34
-6.31
-1.67
2.17
5.06
7.10
8.50
9.54
10.37
11.13
11.85
12.52
13.08
13.45
13.55
13.33
12.77
11.93
10.95
9.98
9.13
8.46
7.91
7.36
6.65
5.64
4.31
2.71
0.92
-1.04
-3.20
-5.63
-8.38
-11.33
-14.26
-16.81
-18.57
-19.27
-18.72
-16.96
-14.20
-10.80
-7.19
-3.72
-0.62
2.02
4.21
5.97
7.31
8.21
8.66
8.73
8.58
8.39
8.26
8.24
8.30
8.36
8.37
8.26
7.90
7.14
5.85
4.05
1.90
-0.33
-2.35
-4.05
-5.49
-6.90
-8.49
-10.38
-12.47
-14.51
-16.21
-17.26
-17.46
-16.70
-15.00
-12.47
-9.32
-5.83
-2.31
1.02
3.99
6.53
8.57
10.04
10.93
11.23
11.06
10.54
9.86
9.13
8.43
7.81
7.30
6.86
6.50
6.10
5.58
4.84
3.86
2.66
1.32
-0.12
-1.66
-3.38
-5.29
-7.36
-9.51
-11.69
-13.95
-16.36
-18.94
-21.53
-23.74
-25.05
-25.02
-23.49
-20.58
-16.73
-12.43
-8.15
-4.21
-0.80
1.95
4.03
5.56
6.72
7.73
8.70
9.59
10.19
10.34
9.95
9.09
7.95
6.78
5.70
4.81
4.14
3.67
3.30
2.87
2.16
1.04
-0.50
-2.22
-3.89
-5.29
-6.47
-7.56
-8.77
-10.25
-12.00
-13.84
-15.53
-16.78
-17.32
-16.97
-15.64
-13.40
-10.50
-7.18
-3.72
-0.36
2.72
5.36
7.43
8.86
9.71
10.09
10.18
10.07
9.86
9.63
9.45
9.46
9.61
9.73
9.58
8.97
7.92
6.71
5.68
5.08
4.79
4.52
3.93
2.84
1.36
-0.23
-1.67
-2.86
-3.95
-5.20
-6.88
-9.18
-12.10
-15.46
-18.88
-21.79
-23.60
-23.86
-22.47
-19.71
-16.18
-12.53
-9.24
-6.54
-4.40
-2.68
-1.23
0.06
1.28
2.48
3.68
4.86
5.87
6.51
6.66
6.30
5.58
4.77
4.09
3.66
3.45
3.29
3.00
2.45
1.65
0.69
-0.28
-1.17
-1.97
-2.71
-3.44
-4.13
-4.77
-5.38
-6.06
-7.00
-8.32
-9.98
-11.71
-13.07
-13.63
-13.08
-11.46
-8.99
-6.08
-3.11
-0.36
2.05
4.02
5.49
6.40
6.63
6.18
5.14
3.79
2.53
1.75
1.66
2.16
2.92
3.49
3.57
3.07
2.22
1.33
0.64
0.22
-0.07
-0.38
-0.82
-1.36
-1.96
-2.56
-3.20
-4.02
-5.12
-6.54
-8.23
-10.12
-12.12
-14.19
-16.19
-17.92
-19.11
-19.44
-18.76
-17.03
-14.46
-11.32
-7.92
-4.52
-1.37
1.40
3.69
5.48
6.77
7.63
8.10
8.23
8.11
7.83
7.52
7.32
7.26
7.32
7.43
7.47
7.37
7.08
6.61
5.99
5.24
4.33
3.28
2.07
0.73
-0.67
-2.08
-3.48
-4.87
-6.29
-7.88
-9.77
-12.05
-14.69
-17.43
-19.83
-21.35
-21.55
-20.28
-17.74
-14.41
-10.83
-7.46
-4.47
-1.88
0.44
2.57
4.47
6.03
7.17
7.85
8.21
8.40
8.54
8.74
9.02
9.36
9.78
10.27
10.77
11.15
11.29
11.09
10.60
9.99
9.47
9.14
8.99
8.80
8.37
7.60
6.57
5.46
4.40
3.35
2.09
0.34
-2.07
-5.15
-8.74
-12.53
-16.23
-19.51
-22.09
-23.68
-24.03
-23.03
-20.73
-17.38
-13.41
-9.26
-5.31
-1.78
1.26
3.75
5.70
7.07
7.91
8.35
8.57
8.70
8.85
9.00
9.11
9.10
8.94
8.59
7.95
7.01
5.76
4.39
3.18
2.40
2.17
2.34
2.59
2.54
2.00
0.92
-0.58
-2.40
-4.48
-6.84
-9.45
-12.19
-14.81
-16.99
-18.40
-18.75
-17.91
-15.92
-13.10
-9.84
-6.58
-3.51
-0.66
2.13
4.95
7.64
9.82
11.05
11.13
10.18
8.68
7.18
6.11
5.63
5.67
6.05
6.57
7.13
7.61
7.86
7.72
7.05
5.85
4.22
2.44
0.74
-0.70
-1.90
-2.96
-4.08
-5.34
-6.71
-8.09
-9.40
-10.73
-12.28
-14.27
-16.76
-19.51
-22.00
-23.62
-23.86
-22.56
-19.94
-16.47
-12.71
-9.08
-5.81
-2.90
-0.28
2.15
4.36
6.25
7.69
8.66
9.24
9.61
9.96
10.33
10.69
10.92
10.96
10.82
10.59
10.38
10.18
9.91
9.39
8.50
7.18
5.49
3.50
1.32
-0.94
-3.08
-4.93
-6.32
-7.24
-7.87
-8.59
-9.80
-11.80
-14.55
-17.69
-20.62
-22.66
-23.28
-22.27
-19.79
-16.35
-12.54
-8.92
-5.83
-3.40
-1.52
-0.07
1.13
2.21
3.32
4.61
6.20
8.06
10.11
12.08
13.66
14.59
14.73
14.18
13.23
12.23
11.48
11.08
10.95
10.80
10.35
9.39
7.86
5.80
3.26
0.36
-2.72
-5.74
-8.37
-10.38
-11.78
-12.85
-14.04
-15.66
-17.69
-19.78
-21.32
-21.82
-21.01
-18.94
-15.87
-12.16
-8.13
-4.05
-0.18
3.23
5.97
7.81
8.65
8.58
7.86
6.92
6.26
6.14
6.60
7.38
8.07
8.38
8.32
8.14
8.13
8.43
8.86
9.07
8.68
7.51
5.73
3.65
1.64
-0.10
-1.52
-2.71
-3.87
-5.13
-6.65
-8.51
-10.79
-13.48
-16.41
-19.24
-21.45
-22.54
-22.07
-19.94
-16.38
-11.97
-7.32
-3.00
0.72
3.80
6.30
8.26
9.66
10.43
10.54
10.14
9.42
8.63
7.98
7.52
7.23
7.03
6.87
6.75
6.72
6.84
7.10
7.40
7.58
7.39
6.68
5.40
3.69
1.78
-0.10
-1.83
-3.54
-5.47
-7.95
-11.16
-15.09
-19.47
-23.80
-27.42
-29.67
-30.04
-28.37
-24.90
-20.22
-15.07
-10.07
-5.60
-1.75
1.60
4.56
7.17
9.35
11.07
12.36
13.39
14.36
15.37
16.32
16.94
16.97
16.35
15.28
14.14
13.31
12.97
12.94
12.90
12.47
11.45
9.83
7.73
5.28
2.58
-0.25
-3.12
-5.85
-8.34
-10.60
-12.76
-15.06
-17.68
-20.58
-23.51
-26.01
-27.49
-27.55
-25.96
-22.77
-18.32
-13.04
-7.44
-1.93
3.21
7.80
11.67
14.71
16.85
18.12
18.71
18.94
19.12
19.41
19.79
20.10
20.11
19.71
18.96
18.03
17.14
16.39
15.78
15.16
14.39
13.39
12.11
10.60
8.90
7.06
5.11
3.15
1.28
-0.43
-2.05
-3.80
-6.08
-9.26
-13.45
-18.36
-23.26
-27.19
-29.34
-29.23
-26.91
-22.85
-17.77
-12.31
-7.00
-2.10
2.26
6.04
9.26
11.88
13.93
15.46
16.57
17.43
18.24
19.12
20.10
21.09
21.93
22.46
22.56
22.20
21.43
20.37
19.16
17.96
16.88
15.88
14.81
13.39
11.43
8.85
5.84
2.70
-0.26
-2.86
-5.15
-7.36
-9.78
-12.64
-16.03
-19.72
-23.26
-26.00
-27.27
-26.65
-24.02
-19.75
-14.49
-8.95
-3.66
1.08
5.21
8.69
11.44
13.34
14.40
14.75
14.71
14.68
14.89
15.34
15.85
16.16
16.10
15.67
15.00
14.21
13.41
12.59
11.73
10.80
9.78
8.64
7.35
5.84
4.12
2.19
0.11
-2.13
-4.57
-7.36
-10.62
-14.38
-18.44
-22.33
-25.45
-27.22
-27.20
-25.24
-21.50
-16.44
-10.67
-4.87
0.35
4.58
7.69
9.69
10.83
11.39
11.65
11.84
12.10
12.47
12.95
13.48
13.97
14.37
14.61
14.71
14.70
14.59
14.30
13.76
12.82
11.38
9.42
7.00
4.23
1.21
-1.93
-5.08
-8.15
-11.05
-13.80
-16.52
-19.50
-23.05
-27.34
-32.23
-37.11
-41.05
-43.00
-42.18
-38.28
-31.73
-23.40
-14.46
-5.91
1.67
8.09
13.45
17.85
21.24
23.46
24.39
24.13
23.07
21.79
20.76
20.21
20.02
19.89
19.52
18.89
18.10
17.34
16.63
15.81
14.62
12.85
10.50
7.74
4.86
2.11
-0.43
-2.78
-5.05
-7.34
-9.77
-12.44
-15.53
-19.17
-23.38
-27.92
-32.23
-35.53
-37.03
-36.15
-32.76
-27.25
-20.40
-13.14
-6.32
-0.41
4.42
8.28
11.31
13.60
15.17
16.01
16.22
16.02
15.74
15.69
16.06
16.84
17.82
18.67
19.14
19.09
18.59
17.90
17.21
16.63
16.08
15.34
14.19
12.48
10.16
7.31
4.09
0.70
-2.66
-5.79
-8.65
-11.35
-14.17
-17.44
-21.36
-25.79
-30.27
-34.12
-36.59
-37.11
-35.46
-31.82
-26.67
-20.68
-14.44
-8.42
-2.87
2.11
6.47
10.19
13.28
15.79
17.79
19.41
20.74
21.77
22.45
22.68
22.46
21.88
21.11
20.36
19.80
19.52
19.48
19.56
19.45
18.87
17.53
15.31
12.26
8.64
4.77
0.96
-2.55
-5.71
-8.61
-11.49
-14.67
-18.41
-22.84
-27.76
-32.65
-36.70
-39.12
-39.30
-37.02
-32.55
-26.42
-19.33
-11.92
-4.74
1.76
7.21
11.34
14.00
15.32
15.63
15.39
15.03
14.86
14.93
15.18
15.47
15.71
15.88
16.03
16.17
16.23
16.11
15.59
14.53
12.88
10.65
8.00
5.11
2.16
-0.73
-3.55
-6.42
-9.51
-13.03
-17.13
-21.77
-26.65
-31.16
-34.54
-35.97
-34.96
-31.42
-25.76
-18.77
-11.36
-4.33
1.81
6.81
10.67
13.46
15.30
16.32
16.69
16.67
16.60
16.77
17.37
18.34
19.42
20.23
20.42
19.82
18.52
16.81
15.03
13.40
11.96
10.48
8.63
6.15
2.96
-0.73
-4.55
-8.05
-11.00
-13.38
-15.51
-17.84
-20.85
-24.85
-29.94
-35.86
-42.05
-47.63
-51.47
-52.51
-50.03
-43.99
-35.11
-24.71
-14.25
-4.88
2.83
8.90
13.70
17.60
20.77
23.22
24.90
25.88
26.39
26.68
26.98
27.30
27.56
27.57
27.28
26.72
26.05
25.39
24.80
24.12
23.11
21.52
19.22
16.32
13.09
9.86
6.88
4.17
1.60
-1.07
-4.07
-7.60
-11.84
-16.93
-22.80
-29.13
-35.15
-39.81
-42.04
-41.16
-37.15
-30.67
-22.84
-14.79
-7.33
-0.78
4.95
10.09
14.84
19.13
22.72
25.34
26.88
27.44
27.36
27.05
26.78
26.65
26.60
26.53
26.44
26.35
26.31
26.21
25.78
24.67
22.64
19.67
16.01
12.05
8.22
4.84
2.05
-0.23
-2.29
-4.60
-7.65
-11.77
-16.93
-22.62
-27.94
-31.75
-33.08
-31.43
-26.92
-20.23
-12.35
-4.31
3.10
9.47
14.64
18.65
21.61
23.62
24.79
25.27
25.25
24.96
24.53
24.04
23.40
22.53
21.39
20.11
18.89
17.94
17.36
16.98
16.47
15.45
13.63
11.01
7.83
4.47
1.32
-1.39
-3.76
-6.11
-8.89
-12.48
-16.97
-22.07
-27.03
-30.94
-32.91
-32.36
-29.19
-23.76
-16.77
-9.05
-1.36
5.70
11.74
16.55
20.10
22.48
23.83
24.34
24.28
23.91
23.55
23.50
23.92
24.79
25.84
26.67
26.87
26.23
24.83
23.02
21.12
19.34
17.58
15.54
12.95
9.76
6.29
3.06
0.49
-1.41
-3.07
-5.17
-8.31
-12.66
-17.89
-23.33
-28.27
-32.09
-34.40
-34.96
-33.59
-30.26
-25.11
-18.56
-11.35
-4.30
1.90
6.87
10.70
13.76
16.40
18.78
20.70
21.77
21.69
20.50
18.69
16.97
15.91
15.71
16.17
16.84
17.32
17.48
17.38
17.15
16.79
16.14
14.94
13.01
10.34
7.13
3.77
0.61
-2.06
-4.17
-5.88
-7.50
-9.43
-12.00
-15.31
-19.24
-23.38
-27.17
-29.95
-31.09
-30.20
-27.24
-22.58
-16.91
-11.06
-5.65
-0.99
2.93
6.28
9.19
11.60
13.34
14.24
14.33
13.91
13.34
12.91
12.61
12.18
11.30
9.86
8.12
6.63
5.89
6.11
7.01
7.91
8.02
6.90
4.62
1.70
-1.19
-3.51
-5.16
-6.35
-7.48
-8.89
-10.73
-13.01
-15.66
-18.54
-21.46
-24.07
-25.87
-26.39
-25.30
-22.66
-18.90
-14.62
-10.39
-6.59
-3.32
-0.53
1.81
3.70
5.07
5.88
6.19
6.23
6.29
6.58
7.14
7.76
8.09
7.88
7.07
5.86
4.59
3.53
2.67
1.87
0.88
-0.43
-1.98
-3.61
-5.18
-6.72
-8.39
-10.41
-12.89
-15.77
-18.88
-21.93
-24.61
-26.51
-27.24
-26.51
-24.22
-20.58
-16.08
-11.35
-6.97
-3.31
-0.53
1.45
2.82
3.75
4.39
4.82
5.02
5.06
4.97
4.90
4.93
5.13
5.48
5.89
6.26
6.49
6.51
6.26
5.70
4.79
3.53
1.91
-0.01
-2.07
-4.09
-5.80
-7.05
-7.92
-8.73
-9.99
-12.17
-15.42
-19.51
-23.78
-27.41
-29.68
-30.14
-28.68
-25.47
-20.87
-15.37
-9.53
-3.93
0.91
4.66
7.19
8.66
9.34
9.61
9.80
10.14
10.72
11.46
12.18
12.65
12.75
12.48
11.99
11.44
10.91
10.40
9.85
9.20
8.43
7.50
6.35
4.88
3.04
0.84
-1.52
-3.78
-5.75
-7.37
-8.80
-10.30
-12.16
-14.53
-17.41
-20.64
-23.85
-26.54
-28.14
-28.18
-26.41
-22.98
-18.31
-13.04
-7.77
-2.94
1.16
4.44
6.88
8.55
9.60
10.18
10.41
10.37
10.12
9.77
9.47
9.36
9.46
9.64
9.64
9.28
8.58
7.79
7.25
7.14
7.31
7.33
6.64
4.94
2.28
-0.94
-4.13
-6.82
-8.79
-10.17
-11.30
-12.54
-14.16
-16.20
-18.54
-20.90
-22.93
-24.22
-24.41
-23.23
-20.67
-16.96
-12.57
-8.10
-4.11
-0.99
1.20
2.62
3.53
4.19
4.68
5.01
5.15
5.12
5.03
5.07
5.35
5.88
6.56
7.14
7.40
7.13
6.21
4.65
2.60
0.31
-1.95
-3.88
-5.40
-6.49
-7.34
-8.16
-9.26
-10.89
-13.19
-16.12
-19.32
-22.15
-23.89
-23.98
-22.25
-19.05
-14.97
-10.68
-6.58
-2.79
0.68
3.83
6.51
8.47
9.56
9.84
9.60
9.23
9.09
9.28
9.65
9.92
9.78
9.11
7.90
6.34
4.61
2.93
1.45
0.25
-0.63
-1.25
-1.78
-2.43
-3.43
-4.93
-6.97
-9.45
-12.22
-15.17
-18.16
-21.02
-23.48
-25.12
-25.52
-24.40
-21.72
-17.81
-13.23
-8.63
-4.51
-1.16
1.47
3.55
5.29
6.80
8.03
8.87
9.23
9.13
8.66
7.98
7.24
6.58
6.18
6.20
6.74
7.75
9.05
10.23
10.86
10.57
9.26
7.01
4.20
1.26
-1.39
-3.54
-5.25
-6.75
-8.41
-10.51
-13.17
-16.29
-19.63
-22.86
-25.58
-27.38
-27.84
-26.70
-23.96
-19.96
-15.26
-10.38
-5.68
-1.19
3.14
7.30
11.14
14.31
16.56
17.78
18.16
18.04
17.77
17.54
17.31
16.96
16.33
15.40
14.29
13.25
12.54
12.34
12.57
12.89
12.82
11.91
10.02
7.34
4.37
1.61
-0.62
-2.34
-3.74
-5.14
-6.81
-8.93
-11.65
-15.04
-18.95
-22.92
-26.23
-28.10
-27.98
-25.81
-21.97
-17.11
-11.89
-6.79
-2.07
2.12
5.61
8.23
9.88
10.59
10.61
10.30
10.04
10.09
10.49
11.07
11.55
11.70
11.48
11.03
10.51
10.03
9.51
8.80
7.77
6.44
4.89
3.23
1.46
-0.52
-2.78
-5.32
-8.02
-10.79
-13.62
-16.61
-19.83
-23.14
-26.11
-28.10
-28.52
-27.07
-23.96
-19.70
-14.94
-10.21
-5.77
-1.73
1.94
5.20
7.88
9.82
10.95
11.42
11.52
11.64
11.99
12.55
13.11
13.44
13.41
13.17
12.93
12.94
13.26
13.66
13.73
13.04
11.37
8.85
5.88
3.02
0.72
-0.89
-1.95
-2.83
-3.97
-5.67
-8.10
-11.18
-14.72
-18.37
-21.63
-23.89
-24.64
-23.61
-20.93
-17.09
-12.71
-8.31
-4.18
-0.36
3.15
6.27
8.85
10.71
11.86
12.49
12.95
13.51
14.25
15.07
15.78
16.22
16.37
16.29
16.12
15.88
15.57
15.10
14.35
13.21
11.64
9.68
7.46
5.24
3.23
1.56
0.14
-1.29
-3.10
-5.60
-8.81
-12.56
-16.43
-20.00
-22.92
-24.98
-25.98
-25.77
-24.25
-21.45
-17.63
-13.27
-8.88
-4.91
-1.50
1.50
4.30
7.00
9.52
11.59
12.96
13.62
13.78
13.79
13.89
14.12
14.30
14.27
13.98
13.58
13.30
13.24
13.30
13.12
12.37
10.84
8.66
6.13
3.65
1.48
-0.39
-2.13
-4.06
-6.45
-9.39
-12.80
-16.44
-19.89
-22.63
-24.12
-23.93
-21.84
-18.04
-13.01
-7.39
-1.76
3.53
8.38
12.75
16.56
19.56
21.47
22.15
21.81
20.89
19.91
19.24
18.91
18.69
18.31
17.62
16.73
15.90
15.36
15.13
15.04
14.79
14.10
12.90
11.22
9.22
7.02
4.68
2.17
-0.57
-3.62
-7.00
-10.71
-14.74
-19.01
-23.28
-27.12
-29.89
-30.93
-29.79
-26.38
-21.05
-14.54
-7.75
-1.55
3.48
7.10
9.40
10.65
11.15
11.13
10.74
10.10
9.38
8.78
8.55
8.85
9.68
10.77
11.73
12.10
11.56
10.03
7.77
5.26
3.06
1.64
1.24
1.89
3.36
5.26
7.09
8.26
8.23
6.66
3.65
-0.22
-3.97
-6.58
-7.33
-6.08
-3.30
0.21
3.68
6.66
9.11
11.31
13.54
15.92
18.29
20.26
21.45
21.62
20.86
19.49
17.96
16.61
15.59
14.83
14.14
13.40
12.60
11.80
11.04
10.24
9.26
7.99
6.43
4.74
3.13
1.74
0.50
-0.82
-2.60
-5.11
-8.47
-12.50
-16.74
-20.48
-22.98
-23.69
-22.39
-19.31
-15.08
-10.46
-6.09
-2.37
0.60
2.96
4.84
6.38
7.65
8.63
9.29
9.60
9.58
9.28
8.88
8.53
8.38
8.52
8.93
9.44
9.83
9.87
9.38
8.32
6.78
4.95
2.99
1.01
-1.02
-3.18
-5.59
-8.28
-11.24
-14.39
-17.54
-20.41
-22.60
-23.65
-23.22
-21.21
-17.90
-13.78
-9.43
-5.29
-1.53
1.83
4.84
7.49
9.67
11.24
12.09
12.23
11.72
10.68
9.25
7.60
5.91
4.40
3.19
2.30
1.66
1.11
0.48
-0.34
-1.38
-2.63
-4.00
-5.43
-6.88
-8.39
-10.10
-12.17
-14.67
-17.47
-20.21
-22.38
-23.49
-23.26
-21.74
-19.20
-16.03
-12.54
-8.96
-5.40
-2.01
1.01
3.41
5.03
5.89
6.19
6.23
6.25
6.39
6.64
6.93
7.20
7.48
7.82
8.23
8.61
8.76
8.42
7.44
5.80
3.70
1.41
-0.83
-2.89
-4.83
-6.85
-9.22
-12.14
-15.63
-19.47
-23.14
-25.96
-27.28
-26.68
-24.15
-20.11
-15.24
-10.20
-5.46
-1.23
2.51
5.83
8.72
11.10
12.84
13.90
14.33
14.30
13.97
13.46
12.84
12.15
11.52
11.08
10.99
11.27
11.74
12.04
11.78
10.69
8.80
6.42
3.97
1.76
-0.11
-1.76
-3.43
-5.31
-7.48
-9.97
-12.80
-15.94
-19.32
-22.63
-25.36
-26.87
-26.60
-24.38
-20.47
-15.50
-10.22
-5.35
-1.32
1.74
3.94
5.49
6.58
7.34
7.85
8.19
8.46
8.78
9.23
9.80
10.37
10.77
10.84
10.51
9.79
8.70
7.33
5.75
4.03
2.28
0.65
-0.74
-1.88
-2.86
-3.86
-5.09
-6.68
-8.66
-11.04
-13.74
-16.63
-19.41
-21.70
-23.06
-23.14
-21.87
-19.42
-16.19
-12.59
-9.02
-5.68
-2.68
-0.03
2.26
4.13
5.55
6.48
6.91
6.87
6.48
5.89
5.26
4.71
4.27
3.95
3.83
4.01
4.54
5.28
5.85
5.77
4.70
2.67
0.07
-2.51
-4.65
-6.33
-7.84
-9.66
-12.10
-15.11
-18.31
-21.13
-23.06
-23.78
-23.14
-21.15
-17.97
-13.86
-9.11
-4.14
0.66
4.99
8.62
11.36
13.15
14.00
14.03
13.52
12.82
12.28
12.13
12.38
12.84
13.18
13.10
12.47
11.39
10.10
8.83
7.70
6.62
5.42
3.95
2.17
0.19
-1.83
-3.72
-5.42
-6.93
-8.37
-9.81
-11.41
-13.37
-15.89
-19.07
-22.77
-26.48
-29.44
-30.84
-30.12
-27.22
-22.62
-17.14
-11.71
-6.92
-3.02
0.10
2.70
5.01
7.07
8.88
10.34
11.51
12.49
13.38
14.24
14.96
15.38
15.37
14.94
14.29
13.72
13.46
13.57
13.87
13.99
13.54
12.29
10.28
7.76
5.10
2.59
0.33
-1.71
-3.65
-5.61
-7.60
-9.63
-11.83
-14.42
-17.64
-21.52
-25.77
-29.69
-32.42
-33.20
-31.72
-28.19
-23.30
-17.92
-12.80
-8.36
-4.67
-1.53
1.33
4.07
6.60
8.71
10.14
10.80
10.85
10.64
10.57
10.90
11.62
12.59
13.58
14.47
15.18
15.74
16.11
16.20
15.91
15.19
14.07
12.60
10.83
8.79
6.56
4.30
2.21
0.41
-1.18
-2.80
-4.78
-7.34
-10.51
-14.17
-18.15
-22.32
-26.50
-30.30
-33.12
-34.23
-33.15
-29.87
-24.96
-19.31
-13.76
-8.79
-4.44
-0.49
3.29
6.93
10.27
13.08
15.23
16.69
17.57
18.06
18.35
18.64
18.98
19.38
19.69
19.67
19.15
18.03
16.42
14.55
12.73
11.14
9.81
8.57
7.22
5.61
3.77
1.86
0.07
-1.50
-2.91
-4.39
-6.21
-8.56
-11.51
-15.04
-19.03
-23.32
-27.60
-31.47
-34.34
-35.61
-34.81
-31.84
-27.04
-21.06
-14.70
-8.65
-3.32
1.22
5.07
8.43
11.33
13.70
15.40
16.39
16.75
16.77
16.81
17.07
17.62
18.24
18.72
18.84
18.55
17.98
17.36
16.87
16.57
16.33
15.79
14.61
12.51
9.54
6.03
2.52
-0.45
-2.62
-4.10
-5.25
-6.56
-8.44
-11.12
-14.61
-18.73
-23.14
-27.34
-30.70
-32.55
-32.31
-29.71
-24.90
-18.48
-11.31
-4.32
1.76
6.52
9.89
12.10
13.45
14.24
14.66
14.85
14.89
14.94
15.18
15.69
16.45
17.28
17.91
18.12
17.88
17.24
16.33
15.28
14.02
12.45
10.45
8.02
5.34
2.71
0.40
-1.44
-2.86
-4.12
-5.56
-7.51
-10.27
-13.92
-18.34
-23.17
-27.79
-31.46
-33.45
-33.22
-30.64
-26.01
-20.02
-13.50
-7.22
-1.62
3.12
7.03
10.16
12.47
13.90
14.48
14.40
14.08
13.92
14.16
14.76
15.48
16.05
16.39
16.56
16.73
16.95
17.13
17.05
16.50
15.37
13.71
11.59
9.05
6.15
2.94
-0.41
-3.76
-7.06
-10.45
-14.23
-18.60
-23.41
-28.02
-31.46
-32.76
-31.38
-27.40
-21.49
-14.62
-7.67
-1.29
4.25
8.84
12.48
15.21
17.08
18.21
18.77
18.95
18.87
18.62
18.23
17.74
17.18
16.63
16.15
15.81
15.59
15.39
15.05
14.38
13.20
11.43
9.10
6.34
3.34
0.29
-2.67
-5.49
-8.27
-11.23
-14.74
-19.09
-24.36
-30.22
-35.88
-40.25
-42.28
-41.27
-37.15
-30.41
-21.97
-12.88
-4.04
3.90
10.56
15.81
19.66
22.22
23.73
24.50
24.86
25.09
25.40
25.84
26.31
26.65
26.65
26.21
25.40
24.44
23.63
23.13
22.81
22.28
21.02
18.66
15.24
11.12
6.94
3.28
0.42
-1.68
-3.35
-5.07
-7.36
-10.61
-15.03
-20.40
-26.08
-31.04
-34.12
-34.45
-31.79
-26.54
-19.58
-11.95
-4.52
2.21
7.91
12.46
15.74
17.70
18.52
18.58
18.43
18.59
19.29
20.46
21.73
22.69
23.07
22.87
22.22
21.33
20.28
19.07
17.63
15.88
13.83
11.52
8.99
6.28
3.49
0.76
-1.77
-4.01
-6.02
-8.07
-10.54
-13.73
-17.74
-22.26
-26.67
-30.11
-31.75
-31.04
-27.90
-22.70
-16.21
-9.29
-2.69
3.12
7.97
11.88
14.93
17.13
18.39
18.65
18.02
16.79
15.44
14.42
13.95
14.01
14.27
14.37
14.14
13.64
13.14
12.85
12.74
12.49
11.62
9.77
6.88
3.27
-0.56
-4.11
-7.08
-9.46
-11.50
-13.57
-16.04
-19.16
-23.03
-27.46
-31.95
-35.75
-37.99
-37.96
-35.36
-30.39
-23.73
-16.28
-8.96
-2.36
3.21
7.74
11.34
14.14
16.24
17.70
18.61
19.08
19.26
19.28
19.24
19.20
19.18
19.22
19.28
19.32
19.22
18.85
18.09
16.88
15.23
13.21
10.92
8.49
5.97
3.44
0.88
-1.75
-4.53
-7.57
-11.03
-15.02
-19.67
-24.89
-30.34
-35.37
-39.09
-40.64
-39.45
-35.51
-29.42
-22.11
-14.61
-7.64
-1.49
3.91
8.70
12.94
16.48
19.10
20.72
21.49
21.79
22.01
22.37
22.85
23.26
23.38
23.17
22.73
22.24
21.78
21.28
20.57
19.44
17.80
15.70
13.24
10.58
7.81
5.03
2.31
-0.32
-2.82
-5.23
-7.65
-10.24
-13.20
-16.75
-21.07
-26.06
-31.32
-36.03
-39.16
-39.76
-37.39
-32.31
-25.34
-17.61
-10.12
-3.53
1.92
6.28
9.70
12.24
13.94
14.86
15.13
14.98
14.71
14.54
14.59
14.86
15.22
15.53
15.69
15.69
15.58
15.41
15.20
14.86
14.25
13.19
11.59
9.42
6.76
3.77
0.71
-2.17
-4.65
-6.67
-8.41
-10.27
-12.84
-16.57
-21.50
-27.06
-32.21
-35.62
-36.28
-33.85
-28.77
-22.11
-15.13
-8.78
-3.56
0.49
3.62
6.11
8.16
9.89
11.33
12.46
13.28
13.79
14.00
13.98
13.81
13.51
13.12
12.68
12.18
11.67
11.15
10.57
9.86
8.96
7.83
6.56
5.20
3.85
2.55
1.31
0.18
-0.82
-1.67
-2.50
-3.58
-5.29
-7.98
-11.85
-16.78
-22.32
-27.64
-31.73
-33.64
-32.72
-28.93
-22.80
-15.25
-7.36
0.04
6.41
11.49
15.16
17.40
18.34
18.23
17.60
16.96
16.74
17.02
17.59
18.12
18.35
18.19
17.78
17.31
16.85
16.26
15.31
13.74
11.45
8.55
5.37
2.27
-0.47
-2.78
-4.74
-6.57
-8.45
-10.50
-12.77
-15.29
-18.15
-21.32
-24.61
-27.53
-29.34
-29.29
-26.90
-22.20
-15.79
-8.67
-1.82
4.05
8.69
12.19
14.79
16.58
17.56
17.57
16.65
15.06
13.32
12.00
11.41
11.54
12.03
12.38
12.27
11.58
10.47
9.16
7.80
6.35
4.69
2.69
0.39
-2.02
-4.28
-6.16
-7.64
-8.89
-10.21
-11.96
-14.44
-17.73
-21.69
-25.92
-29.73
-32.38
-33.25
-31.96
-28.55
-23.46
-17.38
-11.04
-5.05
0.22
4.60
8.07
10.69
12.55
13.74
14.42
14.81
15.10
15.42
15.75
15.95
15.84
15.28
14.30
13.09
11.95
11.11
10.66
10.46
10.23
9.63
8.33
6.21
3.39
0.20
-2.91
-5.53
-7.52
-9.00
-10.39
-12.17
-14.75
-18.26
-22.50
-26.93
-30.72
-32.93
-32.79
-29.95
-24.66
-17.75
-10.41
-3.78
1.47
5.22
7.80
9.70
11.25
12.54
13.47
13.97
14.06
13.93
13.76
13.65
13.57
13.39
13.01
12.45
11.80
11.21
10.72
10.32
9.84
9.05
7.79
6.02
3.83
1.46
-0.83
-2.88
-4.67
-6.42
-8.48
-11.17
-14.64
-18.75
-22.94
-26.40
-28.35
-28.15
-25.67
-21.20
-15.42
-9.07
-2.77
3.08
8.24
12.55
15.80
17.82
18.48
17.90
16.31
14.05
11.39
8.51
5.55
2.72
0.35
-1.21
-1.78
-1.53
-1.03
-1.12
-2.64
-6.11
-11.67
-18.99
-27.34
-35.62
-42.46
-46.54
-46.90
-43.34
-36.63
-28.23
-19.83
-12.64
-7.01
-2.38
2.25
7.81
14.64
22.53
30.96
39.48
47.93
56.38
64.84
73.01
80.23
85.65
88.43
88.11
84.83
79.28
72.59
66.02
60.62
56.98
55.06
54.29
53.82
52.87
50.97
48.05
44.25
39.72
34.43
28.25
21.03
12.78
3.61
-6.17
-16.21
-26.07
-35.23
-43.06
-48.93
-52.46
-53.66
-53.11
-51.78
-50.67
-50.50
-51.37
-52.80
-53.98
-54.18
-53.06
-50.85
-48.15
-45.66
-43.78
-42.54
-41.60
-40.62
-39.45
-38.18
-37.02
-36.07
-35.15
-33.92
-32.06
-29.54
-26.72
-24.17
-22.43
-21.80
-22.24
-23.49
-25.23
-27.24
-29.40
-31.71
-34.12
-36.55
-38.84
-40.79
-42.25
-43.08
-43.23
-42.70
-41.50
-39.65
-37.17
-34.07
-30.38
-26.17
-21.65
-17.09
-12.85
-9.26
-6.52
-4.65
-3.43
-2.45
-1.19
0.83
3.90
8.00
12.74
17.48
21.56
24.53
26.39
27.50
28.43
29.69
31.48
33.72
36.09
38.31
40.20
41.71
42.76
43.18
42.67
40.97
38.05
34.20
30.13
26.62
24.37
23.68
24.40
26.01
27.86
29.44
30.62
31.55
32.55
33.82
35.29
36.67
37.60
37.88
37.62
37.13
36.75
36.66
36.77
36.86
36.68
36.16
35.37
34.53
33.81
33.30
32.92
32.51
31.84
30.66
28.73
25.87
21.91
16.80
10.56
3.42
-4.30
-12.18
-19.85
-26.98
-33.39
-38.87
-43.25
-46.28
-47.77
-47.60
-45.84
-42.79
-38.97
-34.94
-31.18
-27.94
-25.22
-22.79
-20.27
-17.28
-13.57
-8.98
-3.58
2.41
8.61
14.54
19.70
23.75
26.59
28.38
29.43
30.05
30.35
30.29
29.71
28.42
26.29
23.19
19.07
13.99
8.25
2.44
-2.79
-6.94
-9.94
-12.29
-14.85
-18.43
-23.42
-29.53
-35.90
-41.46
-45.35
-47.15
-46.93
-45.09
-42.06
-38.10
-33.27
-27.53
-21.00
-14.08
-7.40
-1.64
2.82
6.05
8.47
10.64
13.02
15.73
18.66
21.61
24.44
27.15
29.75
32.19
34.29
35.74
36.34
35.98
34.82
33.12
31.20
29.34
27.65
26.07
24.32
22.02
18.76
14.30
8.66
2.17
-4.62
-11.13
-16.92
-21.95
-26.46
-30.93
-35.70
-40.82
-45.86
-50.06
-52.62
-52.99
-51.12
-47.38
-42.35
-36.58
-30.43
-24.01
-17.33
-10.56
-3.98
1.96
6.84
10.46
12.90
14.45
15.45
16.23
16.96
17.68
18.33
18.83
19.06
18.95
18.44
17.46
15.93
13.71
10.63
6.57
1.49
-4.40
-10.66
-16.67
-21.75
-25.37
-27.21
-27.18
-25.40
-22.04
-17.40
-11.96
-6.39
-1.47
2.00
3.52
2.99
0.79
-2.40
-5.81
-8.83
-11.13
-12.57
-13.16
-12.87
-11.74
-9.89
-7.63
-5.51
-4.14
-3.97
-5.12
-7.27
-9.82
-12.06
-13.51
-13.98
-13.60
-12.61
-11.31
-9.90
-8.58
-7.64
-7.43
-8.28
-10.35
-13.47
-17.15
-20.76
-23.66
-25.46
-25.97
-25.22
-23.32
-20.47
-16.94
-13.08
-9.21
-5.54
-2.18
0.83
3.44
5.48
6.77
7.24
7.08
6.71
6.63
7.16
8.27
9.66
10.94
11.90
12.60
13.26
14.05
14.94
15.66
15.81
15.10
13.49
11.19
8.60
6.19
4.20
2.64
1.27
-0.31
-2.48
-5.42
-9.02
-12.89
-16.45
-19.08
-20.34
-20.07
-18.39
-15.65
-12.31
-8.79
-5.42
-2.37
0.24
2.36
3.98
5.14
5.98
6.66
7.33
8.07
8.89
9.73
10.52
11.23
11.82
12.32
12.71
13.02
13.29
13.50
13.60
13.44
12.84
11.63
9.75
7.30
4.44
1.38
-1.72
-4.73
-7.46
-9.73
-11.37
-12.35
-12.79
-12.89
-12.85
-12.68
-12.24
-11.27
-9.63
-7.36
-4.71
-2.02
0.40
2.35
3.79
4.77
5.31
5.42
5.17
4.64
4.00
3.44
3.14
3.18
3.51
4.00
4.43
4.64
4.59
4.36
4.13
4.07
4.21
4.44
4.57
4.43
3.98
3.31
2.51
1.61
0.48
-1.06
-3.19
-5.90
-9.05
-12.34
-15.39
-17.82
-19.31
-19.69
-18.90
-17.10
-14.51
-11.48
-8.26
-5.07
-2.06
0.64
2.95
4.75
6.05
6.93
7.52
7.97
8.33
8.56
8.60
8.42
8.10
7.77
7.59
7.65
7.88
8.06
7.94
7.31
6.06
4.28
2.11
-0.31
-2.83
-5.37
-7.83
-10.08
-12.04
-13.78
-15.47
-17.31
-19.36
-21.39
-22.93
-23.40
-22.41
-19.90
-16.25
-12.08
-8.02
-4.54
-1.83
0.17
1.61
2.70
3.59
4.35
4.96
5.38
5.58
5.63
5.57
5.43
5.18
4.70
3.91
2.82
1.55
0.25
-0.89
-1.80
-2.54
-3.20
-3.91
-4.74
-5.80
-7.18
-9.00
-11.33
-14.08
-16.95
-19.46
-21.12
-21.57
-20.72
-18.74
-16.00
-12.90
-9.78
-6.75
-3.77
-0.84
2.02
4.61
6.64
7.91
8.42
8.40
8.09
7.73
7.35
6.89
6.29
5.56
4.87
4.41
4.33
4.59
5.06
5.53
5.79
5.68
5.07
3.88
2.12
-0.10
-2.59
-5.16
-7.69
-10.13
-12.51
-14.76
-16.65
-17.79
-17.78
-16.37
-13.63
-9.98
-6.02
-2.29
0.84
3.31
5.27
6.88
8.29
9.55
10.61
11.41
11.89
12.02
11.83
11.45
11.03
10.82
10.95
11.36
11.79
11.85
11.21
9.77
7.72
5.44
3.26
1.29
-0.57
-2.55
-4.77
-7.22
-9.71
-11.92
-13.66
-14.76
-15.09
-14.57
-13.10
-10.66
-7.39
-3.53
0.56
4.52
7.99
10.72
12.53
13.41
13.53
13.19
12.74
12.46
12.39
12.48
12.55
12.50
12.37
12.26
12.27
12.39
12.47
12.33
11.80
10.88
9.67
8.39
7.24
6.32
5.53
4.65
3.36
1.44
-1.18
-4.30
-7.53
-10.39
-12.45
-13.43
-13.22
-11.91
-9.69
-6.86
-3.79
-0.77
1.93
4.17
5.91
7.21
8.15
8.85
9.41
9.96
10.57
11.30
12.05
12.70
13.10
13.12
12.80
12.28
11.75
11.33
10.99
10.57
9.79
8.47
6.59
4.36
2.07
0.01
-1.72
-3.23
-4.79
-6.62
-8.82
-11.24
-13.60
-15.55
-16.79
-17.14
-16.48
-14.79
-12.13
-8.68
-4.81
-0.99
2.33
4.87
6.59
7.67
8.40
8.98
9.42
9.61
9.39
8.75
7.88
7.11
6.77
7.04
7.80
8.74
9.41
9.52
8.98
7.90
6.52
5.10
3.80
2.70
1.83
1.17
0.65
0.10
-0.75
-2.15
-4.27
-7.01
-9.97
-12.63
-14.49
-15.19
-14.62
-12.88
-10.24
-7.01
-3.61
-0.39
2.31
4.28
5.43
5.86
5.78
5.60
5.63
6.09
7.02
8.13
9.05
9.44
9.16
8.33
7.23
6.10
5.09
4.20
3.39
2.59
1.77
0.96
0.15
-0.63
-1.38
-2.07
-2.74
-3.45
-4.38
-5.64
-7.29
-9.27
-11.34
-13.21
-14.63
-15.36
-15.27
-14.37
-12.77
-10.71
-8.46
-6.25
-4.19
-2.28
-0.53
1.05
2.32
3.12
3.39
3.19
2.76
2.34
2.09
2.05
2.17
2.34
2.49
2.60
2.70
2.82
2.93
3.02
3.01
2.79
2.29
1.46
0.35
-0.97
-2.44
-4.08
-5.87
-7.84
-9.85
-11.64
-12.86
-13.23
-12.65
-11.21
-9.16
-6.76
-4.19
-1.62
0.84
3.02
4.70
5.73
6.12
6.01
5.67
5.34
5.17
5.20
5.32
5.47
5.58
5.63
5.68
5.74
5.79
5.73
5.42
4.78
3.81
2.60
1.30
0.03
-1.21
-2.52
-4.08
-6.04
-8.45
-11.24
-14.18
-16.98
-19.31
-20.86
-21.39
-20.84
-19.28
-16.95
-14.14
-11.13
-8.14
-5.32
-2.79
-0.62
1.12
2.39
3.21
3.69
3.92
4.00
4.00
3.91
3.77
3.61
3.48
3.49
3.70
4.13
4.72
5.36
5.87
6.03
5.70
4.77
3.35
1.58
-0.27
-1.96
-3.34
-4.42
-5.36
-6.40
-7.77
-9.61
-11.95
-14.68
-17.58
-20.28
-22.37
-23.40
-23.00
-21.11
-17.98
-14.11
-10.16
-6.68
-3.95
-1.99
-0.66
0.24
0.88
1.42
2.03
2.79
3.74
4.82
5.84
6.60
7.02
7.15
7.19
7.36
7.81
8.61
9.68
10.84
11.80
12.20
11.69
10.03
7.29
3.80
0.16
-3.03
-5.35
-6.74
-7.49
-8.11
-9.12
-10.89
-13.53
-16.82
-20.39
-23.73
-26.35
-27.84
-27.93
-26.45
-23.45
-19.17
-14.12
-8.94
-4.26
-0.49
2.30
4.30
5.85
7.25
8.63
9.97
11.15
12.12
12.88
13.52
14.11
14.67
15.19
15.58
15.75
15.61
15.15
14.47
13.71
13.03
12.47
11.87
10.98
9.63
7.82
5.76
3.73
1.88
0.10
-1.87
-4.26
-7.16
-10.38
-13.64
-16.66
-19.27
-21.35
-22.79
-23.42
-22.99
-21.29
-18.22
-13.88
-8.57
-2.81
2.78
7.65
11.35
13.76
14.96
15.25
14.96
14.39
13.73
13.13
12.77
12.74
13.12
13.80
14.60
15.28
15.62
15.53
14.92
13.83
12.37
10.76
9.23
7.96
6.96
6.01
4.83
3.13
0.85
-1.90
-4.86
-7.80
-10.61
-13.30
-15.94
-18.49
-20.78
-22.49
-23.29
-22.91
-21.28
-18.55
-14.99
-10.96
-6.71
-2.37
1.97
6.15
9.86
12.67
14.23
14.48
13.69
12.40
11.20
10.49
10.45
10.98
11.86
12.84
13.68
14.16
14.12
13.42
12.11
10.34
8.33
6.27
4.35
2.68
1.32
0.26
-0.60
-1.52
-2.84
-4.92
-7.94
-11.90
-16.50
-21.19
-25.21
-27.81
-28.45
-26.93
-23.52
-18.86
-13.71
-8.79
-4.50
-0.96
1.93
4.26
6.10
7.44
8.29
8.72
8.89
8.97
9.02
9.04
8.94
8.68
8.30
8.01
8.11
8.85
10.27
12.11
13.80
14.73
14.50
13.04
10.71
8.13
5.84
4.16
2.97
1.89
0.42
-1.80
-4.88
-8.74
-13.12
-17.73
-22.19
-26.02
-28.70
-29.77
-28.93
-26.27
-22.17
-17.29
-12.20
-7.34
-2.87
1.20
4.87
8.07
10.66
12.53
13.67
14.24
14.46
14.56
14.68
14.84
14.97
14.95
14.72
14.20
13.42
12.46
11.43
10.44
9.52
8.59
7.49
6.02
4.06
1.65
-1.01
-3.66
-6.10
-8.22
-10.13
-11.99
-14.07
-16.64
-19.90
-23.85
-28.20
-32.36
-35.53
-37.04
-36.54
-34.16
-30.37
-25.67
-20.38
-14.54
-8.08
-1.14
5.84
12.13
17.10
20.46
22.39
23.36
23.87
24.16
24.28
24.14
23.72
23.16
22.64
22.34
22.22
22.15
21.93
21.36
20.30
18.68
16.53
13.98
11.30
8.75
6.55
4.70
3.04
1.36
-0.60
-3.00
-5.98
-9.69
-14.22
-19.47
-25.02
-30.08
-33.66
-34.91
-33.42
-29.38
-23.55
-16.93
-10.49
-4.85
-0.21
3.61
6.93
10.04
13.02
15.75
18.06
19.79
20.97
21.69
22.05
22.05
21.69
21.05
20.33
19.86
19.87
20.36
21.10
21.70
21.73
20.97
19.34
16.90
13.84
10.38
6.84
3.60
0.92
-1.15
-2.81
-4.49
-6.67
-9.58
-13.23
-17.35
-21.49
-25.08
-27.60
-28.63
-27.92
-25.44
-21.41
-16.25
-10.52
-4.76
0.57
5.16
8.87
11.69
13.66
14.91
15.58
15.88
16.05
16.33
16.89
17.72
18.61
19.24
19.37
19.04
18.49
18.09
17.99
18.08
17.96
17.23
15.68
13.49
10.99
8.54
6.32
4.37
2.57
0.78
-1.14
-3.40
-6.20
-9.62
-13.49
-17.28
-20.32
-21.97
-21.84
-19.91
-16.49
-12.03
-7.01
-1.93
2.86
7.04
10.41
12.89
14.45
15.11
15.02
14.48
13.88
13.61
13.82
14.41
15.01
15.28
15.07
14.50
13.80
13.13
12.44
11.48
10.02
8.00
5.56
2.93
0.32
-2.14
-4.45
-6.62
-8.82
-11.23
-14.12
-17.69
-21.95
-26.62
-31.09
-34.57
-36.25
-35.55
-32.27
-26.65
-19.42
-11.50
-3.85
2.82
8.23
12.42
15.68
18.28
20.36
21.93
22.87
23.16
22.90
22.31
21.69
21.31
21.27
21.52
21.84
22.00
21.88
21.52
21.06
20.56
19.91
18.82
16.99
14.30
10.96
7.42
4.19
1.59
-0.41
-2.14
-4.11
-6.79
-10.46
-15.13
-20.47
-25.85
-30.52
-33.65
-34.66
-33.31
-29.77
-24.62
-18.62
-12.46
-6.64
-1.42
3.16
7.13
10.51
13.30
15.46
16.99
18.00
18.63
19.05
19.40
19.72
19.96
20.03
19.87
19.46
18.92
18.38
17.94
17.61
17.27
16.69
15.69
14.15
12.10
9.64
6.95
4.23
1.69
-0.55
-2.44
-4.04
-5.52
-7.20
-9.41
-12.49
-16.62
-21.64
-27.00
-31.78
-34.92
-35.53
-33.28
-28.43
-21.84
-14.61
-7.70
-1.74
3.09
6.93
10.06
12.73
15.08
17.11
18.77
20.04
20.99
21.74
22.35
22.79
22.86
22.38
21.37
20.03
18.77
17.93
17.60
17.57
17.44
16.82
15.53
13.52
10.95
8.01
4.92
1.94
-0.69
-2.79
-4.40
-5.82
-7.56
-10.09
-13.70
-18.43
-23.94
-29.61
-34.56
-37.89
-38.78
-36.86
-32.31
-25.86
-18.47
-11.11
-4.37
1.41
6.13
9.71
12.09
13.35
13.80
13.91
14.17
14.83
15.85
16.94
17.74
18.02
17.68
16.83
15.63
14.26
12.93
11.72
10.60
9.43
7.97
6.04
3.71
1.13
-1.42
-3.76
-5.83
-7.78
-9.80
-12.09
-14.79
-17.89
-21.17
-24.16
-26.25
-26.87
-25.68
-22.74
-18.42
-13.31
-7.91
-2.55
2.52
7.12
11.02
13.97
15.86
16.68
16.63
15.99
15.07
14.12
13.35
12.86
12.63
12.55
12.49
12.30
11.93
11.31
10.34
8.87
6.85
4.31
1.52
-1.12
-3.28
-4.83
-5.88
-6.76
-7.84
-9.51
-12.05
-15.63
-20.17
-25.30
-30.28
-34.17
-36.08
-35.44
-32.24
-27.05
-20.75
-14.35
-8.60
-3.90
-0.21
2.74
5.26
7.59
9.78
11.80
13.63
15.33
16.96
18.43
19.49
19.80
19.09
17.41
15.20
13.07
11.66
11.23
11.59
12.20
12.39
11.60
9.58
6.48
2.77
-0.94
-4.11
-6.46
-8.01
-9.09
-10.16
-11.72
-14.10
-17.50
-21.72
-26.25
-30.20
-32.50
-32.28
-29.22
-23.74
-16.88
-9.90
-3.80
0.94
4.40
6.99
9.08
10.91
12.48
13.75
14.73
15.46
16.02
16.49
16.88
17.11
17.07
16.62
15.73
14.48
13.09
11.86
11.00
10.56
10.30
9.87
8.94
7.37
5.28
2.95
0.69
-1.33
-3.11
-4.80
-6.59
-8.65
-11.12
-14.05
-17.46
-21.24
-25.14
-28.73
-31.47
-32.76
-32.13
-29.43
-24.90
-19.16
-12.98
-7.06
-1.87
2.47
6.04
9.01
11.51
13.58
15.23
16.49
17.40
18.01
18.35
18.40
18.19
17.80
17.35
16.94
16.57
16.21
15.74
15.12
14.33
13.41
12.36
11.13
9.60
7.74
5.57
3.24
0.96
-1.15
-3.08
-5.00
-7.17
-9.89
-13.34
-17.44
-21.83
-25.89
-28.88
-30.15
-29.37
-26.60
-22.32
-17.20
-11.90
-6.86
-2.25
1.95
5.80
9.27
12.16
14.26
15.38
15.57
15.09
14.36
13.81
13.70
14.05
14.63
15.12
15.28
15.01
14.42
13.68
12.89
12.05
11.07
9.86
8.44
6.92
5.44
4.05
2.70
1.28
-0.38
-2.30
-4.49
-6.90
-9.60
-12.66
-16.12
-19.88
-23.63
-26.88
-29.06
-29.70
-28.52
-25.55
-21.11
-15.72
-9.98
-4.44
0.47
4.47
7.43
9.32
10.22
10.33
9.92
9.35
8.92
8.76
8.82
8.91
8.83
8.49
7.94
7.34
6.82
6.41
6.04
5.52
4.70
3.50
1.92
0.09
-1.81
-3.57
-5.05
-6.22
-7.26
-8.48
-10.25
-12.77
-15.91
-19.18
-21.89
-23.35
-23.13
-21.20
-17.83
-13.51
-8.72
-3.90
0.61
4.56
7.71
9.93
11.16
11.45
10.95
9.88
8.53
7.17
6.01
5.11
4.44
3.84
3.22
2.56
1.90
1.36
0.93
0.50
-0.07
-0.98
-2.26
-3.88
-5.66
-7.45
-9.09
-10.57
-11.97
-13.53
-15.55
-18.23
-21.53
-25.05
-28.09
-29.85
-29.71
-27.44
-23.30
-17.91
-12.10
-6.60
-1.95
1.61
4.06
5.54
6.32
6.68
6.91
7.23
7.72
8.36
9.03
9.57
9.85
9.81
9.52
9.10
8.67
8.29
7.90
7.42
6.75
5.79
4.56
3.08
1.33
-0.65
-2.85
-5.24
-7.68
-10.08
-12.46
-14.98
-17.87
-21.26
-24.94
-28.33
-30.60
-30.99
-29.15
-25.26
-19.99
-14.14
-8.45
-3.37
0.95
4.47
7.26
9.33
10.72
11.45
11.60
11.28
10.70
10.09
9.67
9.60
9.89
10.42
10.98
11.36
11.45
11.24
10.79
10.14
9.25
8.00
6.31
4.18
1.78
-0.59
-2.62
-4.13
-5.15
-5.92
-6.81
-8.17
-10.22
-13.02
-16.45
-20.24
-23.98
-27.17
-29.25
-29.71
-28.31
-25.09
-20.48
-15.11
-9.69
-4.78
-0.68
2.60
5.22
7.34
9.05
10.30
10.98
11.01
10.52
9.74
9.00
8.55
8.52
8.87
9.45
10.14
10.81
11.42
11.96
12.41
12.69
12.68
12.22
11.17
9.47
7.23
4.62
1.97
-0.51
-2.67
-4.60
-6.49
-8.63
-11.21
-14.28
-17.62
-20.82
-23.28
-24.47
-24.04
-21.92
-18.36
-13.75
-8.58
-3.26
1.84
6.37
10.01
12.50
13.76
13.96
13.46
12.71
12.10
11.78
11.74
11.88
12.09
12.32
12.61
12.93
13.27
13.54
13.64
13.50
13.04
12.20
10.93
9.22
7.13
4.79
2.34
-0.07
-2.33
-4.35
-6.11
-7.66
-9.18
-10.96
-13.29
-16.31
-19.80
-23.11
-25.36
-25.70
-23.74
-19.68
-14.29
-8.50
-3.13
1.39
4.98
7.76
9.85
11.26
12.02
12.19
12.01
11.79
11.74
11.89
12.08
12.01
11.49
10.54
9.42
8.47
7.97
7.94
8.12
8.06
7.33
5.78
3.58
1.18
-0.97
-2.60
-3.83
-5.05
-6.71
-9.07
-12.11
-15.48
-18.65
-21.08
-22.31
-22.09
-20.28
-16.99
-12.56
-7.45
-2.25
2.53
6.56
9.70
11.97
13.46
14.25
14.44
14.20
13.75
13.35
13.17
13.18
13.17
12.94
12.32
11.39
10.34
9.40
8.62
7.84
6.80
5.33
3.51
1.63
0.07
-0.95
-1.52
-1.97
-2.78
-4.36
-6.88
-10.31
-14.35
-18.53
-22.27
-24.91
-25.87
-24.78
-21.63
-16.82
-11.05
-5.15
0.20
4.55
7.77
9.97
11.42
12.41
13.13
13.63
13.86
13.72
13.22
12.50
11.81
11.39
11.34
11.54
11.82
11.96
11.86
11.45
10.70
9.55
7.96
5.94
3.66
1.39
-0.61
-2.20
-3.39
-4.41
-5.51
-7.03
-9.17
-12.04
-15.55
-19.36
-22.91
-25.59
-26.83
-26.37
-24.29
-20.97
-16.91
-12.61
-8.40
-4.47
-0.88
2.36
5.25
7.78
9.88
11.44
12.40
12.77
12.66
12.30
11.91
11.62
11.44
11.27
11.06
10.85
10.74
10.81
10.96
10.89
10.20
8.62
6.15
3.15
0.16
-2.32
-3.98
-4.90
-5.34
-5.72
-6.39
-7.54
-9.31
-11.74
-14.76
-18.14
-21.41
-23.88
-24.81
-23.74
-20.65
-16.08
-10.83
-5.77
-1.43
2.01
4.67
6.68
8.10
8.88
9.03
8.70
8.21
7.92
8.06
8.66
9.50
10.32
10.93
11.23
11.27
11.11
10.80
10.40
9.91
9.35
8.67
7.81
6.64
5.07
3.09
0.83
-1.47
-3.56
-5.27
-6.64
-7.88
-9.26
-11.07
-13.48
-16.43
-19.70
-22.90
-25.53
-27.07
-27.11
-25.42
-22.06
-17.40
-11.99
-6.49
-1.46
2.75
6.01
8.40
10.07
11.18
11.83
12.07
11.91
11.41
10.75
10.13
9.78
9.79
10.14
10.62
11.00
11.05
10.73
10.10
9.30
8.47
7.65
6.81
5.88
4.79
3.51
2.09
0.61
-0.87
-2.33
-3.87
-5.66
-7.92
-10.77
-14.18
-17.95
-21.70
-24.96
-27.29
-28.31
-27.78
-25.63
-21.95
-17.05
-11.39
-5.50
0.07
4.86
8.51
10.85
11.90
11.95
11.43
10.87
10.68
11.01
11.71
12.41
12.72
12.40
11.52
10.37
9.30
8.54
8.14
7.93
7.66
7.10
6.11
4.59
2.60
0.26
-2.22
-4.61
-6.72
-8.44
-9.89
-11.32
-13.08
-15.39
-18.21
-21.10
-23.37
-24.32
-23.48
-20.90
-16.99
-12.42
-7.78
-3.44
0.50
4.00
7.00
9.36
10.91
11.58
11.46
10.75
9.75
8.72
7.90
7.46
7.43
7.80
8.37
8.91
9.17
8.96
8.21
6.88
5.01
2.73
0.22
-2.21
-4.26
-5.79
-6.90
-7.93
-9.34
-11.48
-14.48
-18.19
-22.18
-25.84
-28.48
-29.42
-28.24
-24.90
-19.85
-13.87
-7.93
-2.77
1.22
4.05
6.01
7.42
8.55
9.55
10.50
11.47
12.51
13.58
14.51
15.09
15.13
14.64
13.83
13.02
12.47
12.18
11.92
11.28
9.89
7.67
4.78
1.61
-1.44
-4.14
-6.51
-8.80
-11.29
-14.17
-17.40
-20.69
-23.61
-25.69
-26.54
-25.95
-23.96
-20.80
-16.86
-12.57
-8.34
-4.40
-0.79
2.57
5.76
8.77
11.36
13.21
14.05
13.84
12.79
11.35
10.04
9.30
9.34
10.13
11.35
12.55
13.19
12.92
11.69
9.73
7.51
5.48
3.83
2.53
1.42
0.29
-0.93
-2.30
-3.93
-6.08
-9.06
-12.98
-17.54
-21.99
-25.31
-26.58
-25.31
-21.72
-16.50
-10.67
-5.14
-0.48
3.17
6.06
8.57
10.96
13.29
15.41
17.01
17.85
17.89
17.30
16.40
15.62
15.21
15.30
15.83
16.56
17.17
17.30
16.67
15.20
13.02
10.42
7.81
5.46
3.48
1.75
0.06
-1.84
-4.17
-7.14
-10.83
-15.19
-19.84
-24.12
-27.16
-28.18
-26.78
-23.12
-17.86
-11.91
-6.16
-1.16
2.84
5.90
8.16
9.80
10.94
11.64
11.95
11.94
11.68
11.33
11.05
10.93
11.08
11.49
12.15
12.98
13.81
14.39
14.40
13.62
11.96
9.60
6.98
4.58
2.78
1.66
1.01
0.38
-0.70
-2.58
-5.33
-8.78
-12.54
-16.05
-18.73
-20.05
-19.73
-17.76
-14.50
-10.45
-6.21
-2.18
1.39
4.49
7.20
9.59
11.67
13.43
14.80
15.78
16.38
16.66
16.68
16.52
16.29
16.12
16.11
16.27
16.49
16.54
16.14
15.12
13.48
11.35
9.00
6.71
4.63
2.83
1.25
-0.20
-1.64
-3.25
-5.28
-7.93
-11.30
-15.30
-19.54
-23.42
-26.26
-27.45
-26.63
-23.77
-19.27
-13.82
-8.27
-3.39
0.42
3.16
5.21
7.01
8.84
10.65
12.10
12.87
12.83
12.14
11.19
10.38
9.92
9.83
9.97
10.22
10.50
10.85
11.24
11.58
11.73
11.45
10.59
9.06
6.95
4.43
1.76
-0.81
-3.11
-5.11
-6.95
-8.88
-11.15
-13.90
-16.98
-19.99
-22.28
-23.17
-22.15
-19.07
-14.22
-8.28
-2.09
3.56
8.14
11.45
13.55
14.66
15.04
14.89
14.39
13.70
12.97
12.33
11.88
11.67
11.69
11.90
12.21
12.50
12.63
12.40
11.70
10.48
8.82
6.86
4.80
2.81
0.95
-0.81
-2.65
-4.83
-7.56
-10.82
-14.31
-17.47
-19.66
-20.42
-19.52
-17.14
-13.65
-9.58
-5.39
-1.45
1.99
4.82
6.95
8.40
9.27
9.73
9.95
10.11
10.33
10.68
11.13
11.58
11.97
12.20
12.26
12.17
11.92
11.48
10.76
9.66
8.11
6.11
3.75
1.15
-1.47
-3.89
-5.89
-7.35
-8.32
-9.04
-9.92
-11.33
-13.53
-16.40
-19.46
-22.00
-23.27
-22.74
-20.32
-16.36
-11.48
-6.36
-1.52
2.77
6.45
9.51
11.91
13.59
14.46
14.65
14.40
14.10
14.05
14.36
14.92
15.44
15.67
15.47
14.95
14.31
13.72
13.21
12.62
11.68
10.14
7.97
5.35
2.61
0.13
-1.81
-3.12
-3.88
-4.35
-4.89
-5.93
-7.84
-10.80
-14.63
-18.77
-22.34
-24.52
-24.73
-22.96
-19.61
-15.35
-10.84
-6.53
-2.64
0.78
3.79
6.43
8.73
10.66
12.13
13.07
13.45
13.39
13.08
12.76
12.63
12.74
13.02
13.36
13.64
13.80
13.72
13.22
12.16
10.48
8.21
5.62
2.99
0.58
-1.48
-3.12
-4.38
-5.32
-6.16
-7.15
-8.58
-10.59
-13.18
-16.12
-19.10
-21.80
-23.98
-25.36
-25.70
-24.79
-22.56
-19.22
-15.18
-10.95
-6.91
-3.23
0.15
3.36
6.43
9.17
11.28
12.42
12.43
11.45
9.91
8.40
7.42
7.25
7.82
8.84
9.91
10.68
11.01
10.95
10.62
10.12
9.49
8.70
7.71
6.48
4.95
3.18
1.25
-0.72
-2.58
-4.27
-5.90
-7.70
-9.92
-12.67
-15.78
-18.81
-21.20
-22.42
-22.22
-20.58
-17.78
-14.15
-10.11
-6.04
-2.27
0.96
3.51
5.35
6.57
7.28
7.62
7.67
7.48
7.13
6.71
6.34
6.11
6.05
6.10
6.18
6.20
6.15
6.05
5.89
5.63
5.10
4.14
2.66
0.74
-1.36
-3.31
-4.84
-5.93
-6.75
-7.67
-8.98
-10.86
-13.26
-15.93
-18.46
-20.38
-21.23
-20.72
-18.77
-15.61
-11.67
-7.51
-3.63
-0.36
2.15
3.90
4.95
5.41
5.41
5.10
4.66
4.27
4.04
3.99
4.03
4.00
3.72
3.12
2.23
1.23
0.29
-0.50
-1.22
-2.06
-3.22
-4.72
-6.37
-7.89
-9.02
-9.79
-10.52
-11.68
-13.62
-16.39
-19.57
-22.43
-24.18
-24.18
-22.20
-18.46
-13.57
-8.32
-3.49
0.39
3.15
4.88
5.91
6.58
7.12
7.58
7.92
8.06
7.97
7.70
7.30
6.84
6.29
5.63
4.89
4.14
3.48
2.95
2.47
1.86
0.94
-0.44
-2.28
-4.41
-6.62
-8.69
-10.57
-12.34
-14.21
-16.40
-19.01
-21.86
-24.51
-26.38
-26.86
-25.65
-22.87
-18.96
-14.48
-9.91
-5.53
-1.51
2.00
4.77
6.58
7.38
7.33
6.83
6.27
5.85
5.51
5.04
4.31
3.43
2.70
2.41
2.66
3.22
3.71
3.80
3.40
2.59
1.63
0.65
-0.34
-1.44
-2.83
-4.62
-6.87
-9.61
-12.86
-16.55
-20.40
-23.93
-26.50
-27.47
-26.46
-23.49
-18.99
-13.69
-8.37
-3.67
0.01
2.63
4.36
5.47
6.27
6.97
7.66
8.34
8.95
9.42
9.68
9.70
9.47
9.00
8.41
7.79
7.27
6.90
6.58
6.18
5.52
4.47
3.05
1.36
-0.43
-2.19
-3.90
-5.71
-7.87
-10.57
-13.77
-17.19
-20.29
-22.44
-23.11
-22.03
-19.24
-15.04
-9.89
-4.37
0.95
5.60
9.25
11.78
13.28
14.06
14.42
14.70
15.04
15.51
16.07
16.65
17.18
17.59
17.85
17.92
17.74
17.24
16.34
15.00
13.25
11.21
9.04
6.86
4.69
2.52
0.37
-1.73
-3.68
-5.50
-7.31
-9.39
-11.98
-15.08
-18.31
-20.96
-22.16
-21.25
-18.09
-13.09
-7.14
-1.26
3.75
7.54
10.20
12.10
13.65
15.08
16.38
17.40
17.95
18.00
17.69
17.27
17.00
16.95
17.05
17.12
17.00
16.60
16.00
15.28
14.52
13.67
12.56
11.07
9.15
6.94
4.63
2.38
0.15
-2.22
-4.98
-8.17
-11.54
-14.55
-16.52
-16.92
-15.54
-12.62
-8.66
-4.20
0.30
4.57
8.49
11.95
14.79
16.83
17.99
18.29
17.92
17.21
16.47
15.91
15.59
15.40
15.14
14.61
13.70
12.46
11.04
9.66
8.51
7.61
6.85
6.04
5.03
3.75
2.26
0.65
-1.00
-2.71
-4.52
-6.50
-8.65
-10.99
-13.44
-15.93
-18.32
-20.38
-21.76
-22.13
-21.25
-19.09
-15.85
-11.90
-7.66
-3.47
0.50
4.18
7.52
10.47
12.88
14.66
15.82
16.47
16.88
17.26
17.73
18.23
18.59
18.57
18.08
17.16
15.96
14.71
13.61
12.72
12.02
11.40
10.63
9.55
8.03
6.11
3.95
1.79
-0.12
-1.68
-2.90
-4.01
-5.25
-6.90
-9.10
-11.75
-14.52
-16.91
-18.41
-18.72
-17.77
-15.79
-13.17
-10.31
-7.53
-4.91
-2.45
-0.00
2.49
4.94
7.16
8.84
9.79
10.02
9.78
9.43
9.31
9.57
10.12
10.72
11.18
11.42
11.52
11.58
11.63
11.57
11.24
10.52
9.40
8.06
6.74
5.62
4.77
4.10
3.44
2.57
1.36
-0.29
-2.36
-4.85
-7.70
-10.85
-14.18
-17.44
-20.26
-22.17
-22.80
-21.96
-19.77
-16.65
-13.16
-9.80
-6.83
-4.25
-1.86
0.53
2.99
5.39
7.49
9.08
10.04
10.43
10.47
10.33
10.20
10.12
10.05
9.87
9.52
8.95
8.20
7.37
6.49
5.61
4.62
3.46
2.04
0.38
-1.35
-2.93
-4.19
-5.06
-5.69
-6.34
-7.28
-8.72
-10.65
-12.96
-15.42
-17.78
-19.75
-21.03
-21.36
-20.59
-18.72
-15.99
-12.80
-9.52
-6.49
-3.79
-1.41
0.76
2.75
4.54
6.09
7.33
8.28
9.04
9.68
10.24
10.68
10.90
10.85
10.51
9.92
9.14
8.18
7.08
5.84
4.51
3.23
2.09
1.10
0.16
-0.88
-2.15
-3.64
-5.27
-6.88
-8.38
-9.80
-11.23
-12.87
-14.87
-17.29
-20.04
-22.84
-25.25
-26.78
-26.99
-25.64
-22.83
-18.96
-14.59
-10.27
-6.37
-3.05
-0.29
1.95
3.67
4.84
5.41
5.46
5.15
4.75
4.57
4.88
5.77
7.11
8.62
9.92
10.71
10.86
10.44
9.67
8.75
7.82
6.89
5.89
4.80
3.61
2.38
1.15
-0.09
-1.40
-2.86
-4.56
-6.52
-8.77
-11.32
-14.13
-17.09
-20.04
-22.81
-25.18
-26.91
-27.69
-27.24
-25.37
-22.08
-17.72
-12.84
-8.10
-4.04
-0.98
1.08
2.46
3.55
4.68
5.97
7.32
8.49
9.25
9.55
9.51
9.36
9.30
9.39
9.49
9.45
9.18
8.79
8.46
8.35
8.42
8.42
8.01
6.91
5.10
2.83
0.51
-1.46
-2.95
-4.13
-5.38
-7.14
-9.68
-12.97
-16.79
-20.68
-24.19
-26.88
-28.44
-28.67
-27.50
-25.08
-21.64
-17.54
-13.16
-8.85
-4.91
-1.44
1.45
3.76
5.55
6.88
7.82
8.43
8.73
8.76
8.56
8.21
7.79
7.42
7.17
7.08
7.12
7.22
7.23
7.07
6.67
6.05
5.24
4.26
3.13
1.87
0.53
-0.88
-2.37
-4.07
-6.17
-8.79
-11.92
-15.30
-18.42
-20.77
-21.88
-21.51
-19.70
-16.70
-12.86
-8.60
-4.31
-0.31
3.14
5.90
7.92
9.29
10.21
10.96
11.77
12.68
13.54
14.08
14.03
13.32
12.12
10.76
9.61
8.94
8.83
9.19
9.74
10.10
9.92
8.94
7.09
4.54
1.61
-1.31
-3.92
-6.13
-8.03
-9.84
-11.86
-14.28
-17.17
-20.29
-23.16
-25.14
-25.68
-24.52
-21.82
-18.05
-13.71
-9.18
-4.63
-0.10
4.28
8.26
11.48
13.66
14.72
14.84
14.38
13.73
13.21
12.98
13.02
13.21
13.43
13.58
13.64
13.70
13.75
13.75
13.54
12.94
11.81
10.22
8.35
6.49
4.82
3.38
2.02
0.49
-1.41
-3.87
-6.99
-10.82
-15.20
-19.76
-23.88
-26.79
-27.81
-26.60
-23.29
-18.41
-12.69
-6.86
-1.46
3.21
7.02
10.01
12.27
13.95
15.18
16.08
16.73
17.19
17.45
17.56
17.56
17.52
17.48
17.48
17.53
17.54
17.42
17.02
16.18
14.83
12.97
10.69
8.13
5.51
3.03
0.92
-0.71
-1.95
-3.08
-4.63
-7.07
-10.61
-15.01
-19.62
-23.56
-26.02
-26.51
-24.96
-21.64
-17.03
-11.70
-6.14
-0.82
3.88
7.68
10.48
12.33
13.43
14.07
14.52
14.96
15.48
16.03
16.52
16.87
17.02
16.99
16.79
16.43
15.89
15.09
14.06
12.79
11.37
9.86
8.29
6.72
5.20
3.79
2.61
1.66
0.78
-0.34
-2.03
-4.51
-7.71
-11.28
-14.68
-17.34
-18.88
-19.06
-17.88
-15.43
-11.99
-7.93
-3.73
0.11
3.26
5.68
7.59
9.34
11.13
12.90
14.35
15.13
15.06
14.32
13.30
12.41
11.92
11.78
11.82
11.85
11.75
11.48
10.95
10.04
8.56
6.44
3.81
0.99
-1.62
-3.76
-5.41
-6.84
-8.38
-10.41
-13.02
-16.06
-19.07
-21.40
-22.44
-21.84
-19.59
-16.06
-11.83
-7.44
-3.28
0.50
3.84
6.68
8.91
10.44
11.31
11.65
11.76
11.88
12.12
12.43
12.68
12.74
12.59
12.30
11.96
11.70
11.51
11.29
10.86
10.07
8.82
7.11
5.04
2.74
0.38
-1.93
-4.09
-6.05
-7.79
-9.42
-11.14
-13.20
-15.73
-18.68
-21.66
-24.12
-25.43
-25.20
-23.37
-20.27
-16.44
-12.43
-8.56
-4.96
-1.56
1.71
4.81
7.61
9.96
11.76
13.10
14.19
15.25
16.36
17.46
18.29
18.59
18.21
17.23
15.90
14.47
13.15
11.96
10.80
9.53
8.01
6.19
4.11
1.85
-0.44
-2.63
-4.57
-6.24
-7.78
-9.41
-11.41
-13.91
-16.75
-19.52
-21.67
-22.72
-22.44
-20.86
-18.17
-14.67
-10.63
-6.34
-2.03
2.06
5.70
8.69
10.87
12.23
12.90
13.11
13.15
13.25
13.49
13.73
13.82
13.61
13.12
12.47
11.82
11.28
10.84
10.43
9.98
9.49
8.93
8.26
7.30
5.89
4.01
1.83
-0.34
-2.21
-3.67
-4.82
-5.94
-7.30
-9.11
-11.39
-14.03
-16.85
-19.52
-21.65
-22.83
-22.72
-21.19
-18.39
-14.72
-10.68
-6.70
-3.04
0.23
3.10
5.57
7.58
9.05
9.96
10.39
10.48
10.43
10.37
10.32
10.25
10.11
9.93
9.78
9.67
9.64
9.61
9.52
9.30
8.95
8.42
7.61
6.42
4.84
3.01
1.22
-0.28
-1.40
-2.33
-3.45
-5.14
-7.59
-10.71
-14.21
-17.70
-20.77
-23.01
-24.08
-23.75
-22.01
-19.12
-15.58
-11.94
-8.60
-5.73
-3.22
-0.94
1.28
3.38
5.20
6.56
7.28
7.39
7.02
6.39
5.72
5.18
4.84
4.67
4.59
4.53
4.42
4.20
3.84
3.30
2.59
1.71
0.68
-0.50
-1.86
-3.42
-5.17
-7.03
-8.92
-10.82
-12.85
-15.12
-17.68
-20.40
-22.86
-24.47
-24.67
-23.21
-20.19
-16.13
-11.69
-7.52
-3.99
-1.21
0.91
2.55
3.84
4.87
5.70
6.36
6.93
7.49
8.05
8.59
9.04
9.35
9.43
9.23
8.73
7.95
6.94
5.80
4.61
3.43
2.23
0.94
-0.46
-1.92
-3.23
-4.21
-4.82
-5.25
-5.88
-7.19
-9.43
-12.57
-16.26
-19.95
-23.07
-25.20
-26.14
-25.82
-24.31
-21.73
-18.31
-14.35
-10.21
-6.23
-2.65
0.42
3.03
5.26
7.17
8.78
9.99
10.72
10.98
10.88
10.60
10.34
10.19
10.13
10.12
10.12
10.14
10.18
10.24
10.19
9.88
9.11
7.85
6.10
4.02
1.82
-0.27
-2.11
-3.62
-4.92
-6.25
-7.90
-10.12
-13.01
-16.47
-20.22
-23.88
-26.98
-29.08
-29.77
-28.81
-26.21
-22.28
-17.56
-12.71
-8.24
-4.40
-1.18
1.58
4.04
6.27
8.24
9.90
11.18
12.12
12.74
13.10
13.28
13.43
13.66
14.04
14.57
15.06
15.31
15.17
14.54
13.51
12.20
10.75
9.14
7.26
4.98
2.30
-0.58
-3.34
-5.63
-7.32
-8.60
-9.90
-11.70
-14.36
-17.91
-22.00
-25.97
-29.07
-30.68
-30.40
-28.20
-24.40
-19.55
