1520871036.00
64.000000
-0.00
-0.00
-0.00
-0.00
-0.00
-0.00
-0.00
-0.00
-0.00
-0.00
0.00
0.01
0.01
-0.00
-0.03
-0.05
-0.05
0.00
0.13
0.36
0.66
1.01
1.37
1.72
2.06
2.40
2.79
3.24
3.80
4.42
5.06
5.66
6.20
6.68
7.15
7.68
8.31
9.14
10.09
11.04
11.88
12.56
13.14
13.76
14.65
15.96
17.91
20.32
22.90
25.38
27.58
29.57
31.68
34.32
37.81
42.54
48.15
54.10
59.83
64.97
69.58
74.14
79.34
85.71
93.76
103.00
112.62
121.73
129.77
136.75
143.30
150.75
157.77
166.64
177.95
191.79
206.97
220.57
228.25
225.36
208.53
176.87
132.76
80.05
23.07
-34.94
-92.44
-149.16
-205.23
-260.37
-313.74
-363.87
-409.83
-450.91
-486.50
-515.74
-537.23
-549.22
-549.96
-538.36
-514.19
-478.64
-433.83
-382.37
-326.91
-269.70
-212.45
-156.43
-102.67
-52.03
-5.50
36.04
71.95
101.94
126.16
145.11
159.49
170.03
177.33
181.80
183.71
183.31
180.86
176.71
171.27
164.95
158.09
150.94
143.65
136.28
128.88
121.49
114.17
107.00
100.05
93.37
87.00
80.95
75.23
69.85
64.83
60.16
55.87
51.95
48.41
45.23
42.42
39.96
37.84
36.06
34.62
33.51
32.75
32.32
32.21
32.40
32.85
33.51
34.27
35.01
35.59
35.83
35.57
34.64
32.91
30.32
26.84
22.54
17.49
11.91
6.01
0.06
-5.67
-10.93
-15.52
-19.27
-22.12
-24.02
-25.02
-25.18
-24.64
-23.52
-21.95
-20.08
-17.98
-15.75
-13.44
-11.05
-8.64
-6.22
-3.81
-1.39
1.05
3.52
6.05
8.65
11.37
14.16
17.02
19.93
22.89
25.93
29.05
32.30
35.73
39.41
43.28
47.27
51.39
55.63
60.01
64.56
69.33
74.37
79.79
85.42
91.18
97.00
102.86
108.73
114.61
120.51
126.45
132.49
138.33
143.74
148.50
152.36
155.05
156.17
155.19
151.36
146.11
139.99
133.29
126.25
119.02
111.73
104.50
97.44
90.70
84.44
78.51
72.81
67.31
62.01
56.91
52.02
47.38
43.05
39.12
35.42
31.84
28.35
24.92
21.56
18.30
15.21
12.37
9.90
7.71
5.77
4.04
2.49
1.13
-0.05
-1.02
-1.73
-2.17
-2.42
-2.57
-2.70
-2.90
-3.21
-3.65
-4.19
-4.77
-5.36
-5.98
-6.69
-7.58
-8.72
-10.13
-11.76
-13.47
-15.15
-16.68
-18.12
-19.62
-21.42
-23.74
-26.64
-30.03
-33.61
-37.06
-40.16
-42.98
-45.82
-49.18
-53.50
-59.00
-65.48
-72.44
-79.30
-85.68
-91.65
-97.73
-104.72
-113.37
-123.98
-136.25
-149.50
-162.85
-175.70
-187.91
-199.85
-212.27
-226.16
-242.65
-262.78
-286.94
-314.16
-341.66
-365.03
-379.41
-381.18
-369.39
-346.09
-315.57
-282.62
-250.91
-222.24
-196.80
-174.07
-153.66
-135.54
-119.81
-106.16
-93.74
-81.44
-68.43
-54.61
-40.63
-27.63
-16.72
-8.40
-2.41
2.09
6.12
10.36
14.88
19.14
22.38
24.02
23.96
22.57
20.55
18.59
17.10
16.14
15.43
14.56
13.07
10.64
7.13
2.60
-2.60
-7.83
-12.20
-14.72
-14.59
-11.39
-5.25
3.12
12.64
22.16
30.76
37.92
43.48
47.54
50.28
51.86
52.41
52.10
51.19
49.96
48.74
47.79
47.28
47.27
47.69
48.39
49.13
49.67
49.78
49.37
48.46
47.16
45.64
43.94
42.03
39.77
37.04
33.75
29.95
25.77
21.43
17.12
12.98
9.02
5.14
1.18
-3.06
-7.74
-12.94
-18.59
-24.38
-29.74
-33.86
-35.86
-35.03
-31.11
-24.47
-16.00
-6.92
1.67
9.04
14.95
19.62
23.40
26.65
29.53
31.95
33.69
34.53
34.42
33.53
32.22
30.91
29.89
29.34
29.26
29.58
30.24
31.09
31.89
32.32
32.02
30.79
28.60
25.77
22.69
19.77
17.20
14.98
12.92
10.78
8.32
5.45
2.25
-1.13
-4.44
-7.52
-10.36
-13.15
-16.25
-20.05
-24.82
-30.46
-36.49
-42.03
-45.96
-47.23
-45.19
-39.86
-31.97
-22.75
-13.55
-5.44
1.09
6.09
9.94
13.10
15.83
18.17
20.08
21.50
22.47
23.12
23.54
23.74
23.62
23.10
22.24
21.25
20.49
20.32
20.86
21.98
23.26
24.18
24.25
23.28
21.38
18.95
16.45
14.32
12.65
11.32
10.03
8.44
6.38
3.88
1.20
-1.39
-3.70
-5.76
-7.81
-10.22
-13.40
-17.56
-22.66
-28.24
-33.54
-37.59
-39.57
-38.95
-35.62
-29.97
-22.69
-14.67
-6.75
0.45
6.55
11.43
15.20
18.01
20.02
21.36
22.12
22.33
22.08
21.49
20.74
20.00
19.47
19.30
19.62
20.42
21.57
22.82
23.87
24.46
24.49
23.95
22.89
21.38
19.44
17.03
14.16
10.92
7.46
3.95
0.56
-2.70
-5.88
-9.08
-12.37
-15.78
-19.34
-23.12
-27.23
-31.61
-36.03
-39.92
-42.45
-42.81
-40.50
-35.54
-28.54
-20.43
-12.18
-4.44
2.48
8.57
13.89
18.39
21.92
24.31
25.56
25.93
25.86
25.83
26.17
26.94
27.98
29.03
29.83
30.22
30.14
29.61
28.71
27.49
25.99
24.22
22.26
20.17
18.11
16.30
14.86
13.73
12.63
11.15
8.98
6.06
2.62
-0.86
-3.98
-6.61
-8.94
-11.34
-14.25
-17.89
-22.27
-27.19
-32.31
-37.11
-40.94
-43.07
-42.82
-39.85
-34.27
-26.76
-18.33
-10.09
-2.86
2.99
7.55
11.13
14.05
16.42
18.20
19.26
19.59
19.29
18.65
17.98
17.55
17.48
17.77
18.27
18.89
19.51
20.17
20.89
21.63
22.26
22.48
22.01
20.63
18.46
15.84
13.23
11.00
9.16
7.42
5.31
2.50
-0.98
-4.74
-8.22
-10.94
-12.85
-14.30
-15.92
-18.36
-21.98
-26.73
-32.17
-37.59
-42.14
-45.01
-45.54
-43.40
-38.75
-32.20
-24.65
-17.05
-10.12
-4.19
0.73
4.77
8.04
10.59
12.48
13.80
14.74
15.49
16.18
16.81
17.34
17.77
18.20
18.81
19.69
20.79
21.86
22.61
22.79
22.32
21.32
19.97
18.44
16.75
14.88
12.79
10.60
8.45
6.50
4.74
3.02
1.06
-1.37
-4.28
-7.53
-10.86
-14.07
-17.23
-20.60
-24.50
-29.11
-34.23
-39.16
-42.94
-44.56
-43.37
-39.33
-33.04
-25.48
-17.75
-10.62
-4.49
0.61
4.87
8.43
11.29
13.40
14.70
15.29
15.39
15.33
15.36
15.64
16.12
16.68
17.17
17.59
17.96
18.36
18.78
19.09
19.07
18.49
17.27
15.51
13.41
11.22
9.04
6.87
4.60
2.18
-0.32
-2.74
-4.90
-6.79
-8.60
-10.70
-13.44
-16.98
-21.22
-25.83
-30.36
-34.33
-37.35
-38.97
-38.78
-36.45
-31.90
-25.43
-17.76
-9.79
-2.40
3.87
8.88
12.82
15.97
18.52
20.51
21.84
22.46
22.46
22.08
21.68
21.52
21.72
22.26
22.92
23.51
23.83
23.80
23.46
22.88
22.13
21.21
20.08
18.66
16.86
14.63
11.98
9.02
5.85
2.60
-0.66
-3.86
-6.97
-9.95
-12.81
-15.66
-18.66
-22.04
-25.92
-30.23
-34.55
-38.15
-40.19
-39.96
-37.18
-32.02
-25.17
-17.52
-9.97
-3.25
2.21
6.33
9.29
11.41
13.04
14.46
15.78
17.00
18.06
18.89
19.55
20.13
20.70
21.36
22.09
22.84
23.53
24.11
24.51
24.62
24.28
23.26
21.42
18.73
15.42
11.91
8.66
5.99
3.90
2.10
0.16
-2.22
-5.09
-8.15
-11.00
-13.34
-15.22
-17.02
-19.30
-22.56
-26.93
-32.14
-37.44
-41.84
-44.37
-44.33
-41.56
-36.40
-29.65
-22.27
-15.10
-8.68
-3.21
1.35
5.21
8.45
11.08
13.06
14.35
15.05
15.32
15.35
15.30
15.24
15.21
15.23
15.35
15.64
16.14
16.78
17.39
17.74
17.67
17.05
15.98
14.56
12.94
11.23
9.44
7.56
5.61
3.61
1.64
-0.20
-1.87
-3.40
-4.97
-6.79
-9.18
-12.33
-16.35
-21.15
-26.43
-31.65
-36.07
-38.85
-39.28
-37.03
-32.26
-25.61
-18.04
-10.46
-3.57
2.36
7.31
11.44
14.85
17.58
19.61
20.96
21.74
22.07
22.09
21.93
21.65
21.33
21.00
20.61
20.07
19.26
18.14
16.71
15.12
13.54
12.10
10.82
9.56
8.13
6.33
4.08
1.38
-1.58
-4.63
-7.54
-10.20
-12.63
-14.97
-17.45
-20.38
-23.95
-28.18
-32.84
-37.38
-41.03
-42.91
-42.27
-38.71
-32.42
-24.10
-14.82
-5.79
2.05
8.18
12.58
15.57
17.60
19.04
20.06
20.72
21.02
21.07
21.11
21.38
22.11
23.27
24.66
25.99
27.00
27.56
27.63
27.25
26.50
25.40
23.94
22.15
19.97
17.36
14.26
10.76
7.04
3.39
0.10
-2.72
-5.18
-7.55
-10.14
-13.11
-16.47
-20.13
-23.99
-27.90
-31.56
-34.44
-35.85
-35.12
-31.91
-26.38
-19.20
-11.29
-3.58
3.27
8.97
13.40
16.68
18.88
20.10
20.46
20.18
19.53
18.89
18.57
18.73
19.30
20.00
20.42
20.24
19.37
17.95
16.29
14.72
13.42
12.40
11.42
10.22
8.53
6.28
3.53
0.48
-2.63
-5.64
-8.47
-11.12
-13.61
-16.05
-18.55
-21.32
-24.58
-28.41
-32.55
-36.35
-38.84
-39.02
-36.26
-30.62
-22.90
-14.43
-6.60
-0.42
3.79
6.36
7.98
9.34
10.80
12.38
13.91
15.24
16.38
17.55
18.88
20.35
21.72
22.61
22.74
22.10
21.04
20.03
19.51
19.62
20.19
20.81
21.03
20.54
19.24
17.18
14.50
11.30
7.70
3.85
-0.08
-3.80
-7.11
-9.95
-12.52
-15.22
-18.58
-22.90
-28.09
-33.55
-38.27
-41.17
-41.45
-38.86
-33.80
-27.10
-19.68
-12.31
-5.45
0.64
5.91
10.28
13.73
16.24
17.80
18.54
18.70
18.59
18.53
18.78
19.39
20.19
20.84
21.01
20.53
19.47
18.13
16.89
16.01
15.50
15.10
14.40
13.07
10.92
8.06
4.73
1.19
-2.29
-5.59
-8.73
-11.78
-14.89
-18.25
-22.03
-26.21
-30.48
-34.20
-36.52
-36.66
-34.19
-29.24
-22.46
-14.72
-6.87
0.48
6.94
12.35
16.60
19.63
21.42
22.08
21.82
20.98
19.86
18.74
17.78
17.14
16.91
17.11
17.60
18.10
18.26
17.86
16.92
15.73
14.68
14.00
13.65
13.25
12.36
10.68
8.24
5.35
2.38
-0.44
-3.11
-5.77
-8.61
-11.72
-15.12
-18.77
-22.59
-26.43
-29.92
-32.51
-33.52
-32.47
-29.21
-24.10
-17.84
-11.28
-5.09
0.36
4.94
8.74
11.81
14.20
15.92
17.00
17.54
17.73
17.76
17.73
17.66
17.50
17.19
16.72
16.16
15.61
15.18
14.92
14.77
14.58
14.18
13.39
12.12
10.37
8.19
5.68
2.95
0.09
-2.83
-5.77
-8.69
-11.62
-14.64
-17.96
-21.74
-25.94
-30.25
-33.99
-36.33
-36.51
-34.23
-29.67
-23.54
-16.82
-10.37
-4.79
-0.24
3.42
6.43
9.00
11.19
12.96
14.29
15.25
16.01
16.71
17.46
18.23
18.90
19.37
19.59
19.58
19.40
19.01
18.26
16.97
14.91
12.01
8.40
4.40
0.44
-3.06
-5.85
-7.95
-9.62
-11.27
-13.33
-16.12
-19.79
-24.27
-29.23
-34.06
-37.92
-39.92
-39.42
-36.26
-30.82
-23.97
-16.71
-9.83
-3.75
1.45
5.84
9.51
12.38
14.32
15.26
15.30
14.72
13.93
13.34
13.17
13.43
13.85
14.07
13.86
13.20
12.37
11.75
11.55
11.68
11.75
11.26
9.89
7.62
4.79
1.87
-0.71
-2.76
-4.31
-5.61
-7.00
-8.83
-11.40
-14.80
-18.88
-23.19
-27.03
-29.66
-30.45
-29.14
-25.83
-21.02
-15.40
-9.64
-4.31
0.29
4.08
7.13
9.56
11.48
12.95
13.98
14.63
14.95
15.09
15.22
15.54
16.11
16.96
18.02
19.18
20.35
21.41
22.29
22.90
23.14
22.94
22.25
21.15
19.72
18.09
16.35
14.56
12.70
10.64
8.22
5.22
1.45
-3.18
-8.56
-14.33
-19.94
-24.66
-27.79
-28.79
-27.53
-24.26
-19.55
-14.14
-8.72
-3.74
0.60
4.30
7.46
10.14
12.33
13.98
15.07
15.65
15.89
15.96
16.06
16.28
16.63
17.01
17.35
17.56
17.56
17.33
16.79
15.84
14.39
12.41
10.00
7.35
4.73
2.33
0.20
-1.79
-3.83
-6.09
-8.64
-11.43
-14.28
-16.98
-19.21
-20.60
-20.70
-19.18
-15.94
-11.30
-5.85
-0.36
4.54
8.54
11.59
13.78
15.19
15.86
15.85
15.34
14.63
14.08
13.89
14.08
14.45
14.78
14.86
14.63
14.16
13.57
12.96
12.34
11.64
10.73
9.48
7.79
5.69
3.32
0.91
-1.32
-3.26
-5.01
-6.79
-8.93
-11.73
-15.34
-19.73
-24.58
-29.34
-33.20
-35.42
-35.45
-33.18
-28.98
-23.53
-17.61
-11.88
-6.74
-2.35
1.21
3.95
5.87
7.06
7.63
7.80
7.72
7.57
7.49
7.59
8.00
8.78
9.89
11.17
12.43
13.48
14.22
14.62
14.65
14.24
13.32
11.84
9.86
7.58
5.21
2.97
0.90
-1.07
-3.06
-5.23
-7.66
-10.39
-13.47
-16.87
-20.52
-24.15
-27.36
-29.60
-30.39
-29.42
-26.70
-22.60
-17.73
-12.75
-8.28
-4.65
-1.89
0.19
1.87
3.36
4.74
5.90
6.76
7.30
7.64
7.99
8.52
9.27
10.13
10.95
11.59
12.02
12.30
12.49
12.66
12.76
12.73
12.43
11.78
10.81
9.58
8.21
6.82
5.49
4.24
3.03
1.70
0.07
-2.02
-4.69
-7.95
-11.74
-15.94
-20.35
-24.64
-28.36
-30.91
-31.73
-30.47
-27.18
-22.34
-16.71
-11.10
-6.03
-1.79
1.65
4.34
6.30
7.52
8.03
7.95
7.48
6.89
6.43
6.28
6.54
7.24
8.32
9.64
11.05
12.39
13.55
14.51
15.28
15.81
16.03
15.86
15.20
14.02
12.36
10.30
8.02
5.73
3.66
1.97
0.70
-0.30
-1.30
-2.67
-4.70
-7.54
-11.23
-15.69
-20.62
-25.52
-29.66
-32.22
-32.58
-30.54
-26.46
-21.10
-15.38
-10.05
-5.46
-1.60
1.76
4.81
7.58
9.89
11.54
12.32
12.20
11.34
10.09
8.92
8.22
8.23
8.88
9.88
10.86
11.50
11.64
11.36
10.72
9.81
8.60
7.00
4.91
2.36
-0.51
-3.40
-6.02
-8.16
-9.75
-10.90
-11.82
-12.76
-13.93
-15.47
-17.46
-19.95
-22.85
-25.94
-28.79
-30.80
-31.35
-30.04
-26.80
-21.99
-16.23
-10.19
-4.46
0.67
5.07
8.75
11.68
13.83
15.09
15.41
14.95
14.01
13.04
12.49
12.62
13.47
14.79
16.18
17.24
17.69
17.52
16.93
16.15
15.35
14.55
13.64
12.49
11.05
9.40
7.64
5.90
4.24
2.63
1.03
-0.69
-2.67
-5.12
-8.25
-12.18
-16.74
-21.40
-25.39
-27.78
-27.96
-25.76
-21.59
-16.20
-10.50
-5.16
-0.49
3.53
7.08
10.27
13.05
15.19
16.48
16.92
16.72
16.27
15.94
15.92
16.19
16.54
16.73
16.69
16.52
16.40
16.48
16.73
16.95
16.92
16.48
15.61
14.36
12.81
11.01
8.96
6.69
4.29
1.86
-0.53
-2.92
-5.37
-7.94
-10.64
-13.39
-16.18
-19.13
-22.43
-26.17
-30.18
-33.92
-36.56
-37.31
-35.77
-32.04
-26.72
-20.61
-14.47
-8.82
-3.95
0.04
3.13
5.35
6.82
7.68
8.18
8.50
8.79
9.10
9.41
9.66
9.82
9.90
9.95
10.11
10.48
11.10
11.88
12.60
13.05
13.10
12.78
12.22
11.53
10.76
9.83
8.58
6.91
4.85
2.51
0.08
-2.31
-4.60
-6.78
-8.91
-11.01
-13.19
-15.61
-18.50
-21.98
-25.86
-29.67
-32.59
-33.80
-32.75
-29.39
-24.23
-18.08
-11.79
-6.02
-1.08
2.94
6.09
8.40
9.93
10.75
10.99
10.85
10.63
10.55
10.72
11.12
11.67
12.23
12.80
13.41
14.13
14.98
15.86
16.55
16.83
16.54
15.73
14.54
13.19
11.81
10.41
8.87
7.08
4.99
2.66
0.19
-2.30
-4.74
-7.08
-9.32
-11.47
-13.57
-15.71
-18.11
-21.04
-24.63
-28.72
-32.70
-35.72
-36.87
-35.61
-31.95
-26.46
-20.01
-13.46
-7.46
-2.31
1.93
5.35
8.03
10.10
11.68
12.93
13.94
14.74
15.31
15.64
15.79
15.91
16.17
16.59
17.05
17.30
17.10
16.35
15.12
13.69
12.31
11.16
10.20
9.27
8.18
6.79
5.14
3.32
1.50
-0.31
-2.15
-4.15
-6.39
-8.84
-11.45
-14.11
-16.84
-19.71
-22.75
-25.83
-28.48
-29.96
-29.46
-26.49
-21.11
-13.97
-6.16
1.23
7.39
12.03
15.25
17.38
18.66
19.27
19.28
18.86
18.27
17.84
17.85
18.34
19.19
20.12
20.89
21.37
21.53
21.46
21.19
20.75
20.09
19.21
18.13
16.90
15.55
14.09
12.50
10.69
8.64
6.30
3.67
0.80
-2.27
-5.43
-8.56
-11.50
-14.24
-16.91
-19.83
-23.40
-27.82
-32.92
-38.07
-42.31
-44.65
-44.47
-41.64
-36.60
-30.08
-22.85
-15.57
-8.68
-2.50
2.74
6.83
9.72
11.48
12.37
12.69
12.77
12.85
13.02
13.31
13.68
14.13
14.64
15.29
16.13
17.14
18.25
19.21
19.73
19.56
18.59
16.93
14.88
12.79
10.93
9.42
8.18
7.04
5.78
4.26
2.38
0.22
-2.08
-4.29
-6.26
-7.97
-9.51
-11.12
-13.06
-15.59
-18.93
-23.10
-27.95
-32.97
-37.42
-40.31
-40.79
-38.48
-33.60
-26.98
-19.77
-12.99
-7.20
-2.51
1.31
4.57
7.37
9.67
11.32
12.22
12.47
12.26
11.83
11.37
10.97
10.68
10.58
10.78
11.44
12.62
14.27
16.13
17.82
18.94
19.18
18.43
16.86
14.78
12.58
10.60
9.01
7.80
6.79
5.73
4.37
2.55
0.28
-2.28
-4.91
-7.38
-9.60
-11.66
-13.82
-16.40
-19.71
-23.85
-28.66
-33.66
-38.03
-40.86
-41.38
-39.17
-34.36
-27.57
-19.77
-11.96
-4.91
0.97
5.68
9.44
12.53
15.16
17.40
19.22
20.59
21.45
21.83
21.82
21.54
21.09
20.57
20.07
19.67
19.45
19.40
19.40
19.25
18.65
17.44
15.55
13.10
10.35
7.62
5.12
2.98
1.22
-0.29
-1.69
-3.14
-4.75
-6.52
-8.42
-10.35
-12.35
-14.56
-17.26
-20.66
-24.72
-28.99
-32.66
-34.74
-34.44
-31.46
-26.07
-19.01
-11.22
-3.60
3.21
8.86
13.22
16.39
18.51
19.76
20.34
20.47
20.36
20.20
20.13
20.24
20.59
21.16
21.93
22.82
23.69
24.36
24.58
24.18
23.03
21.20
18.91
16.50
14.28
12.43
10.94
9.61
8.10
6.11
3.49
0.31
-3.13
-6.48
-9.44
-11.91
-14.05
-16.21
-18.80
-22.10
-26.20
-30.91
-35.75
-40.04
-42.97
-43.76
-41.88
-37.21
-30.17
-21.64
-12.73
-4.47
2.45
7.83
11.80
14.71
16.87
18.49
19.70
20.58
21.22
21.72
22.13
22.43
22.55
22.42
22.02
21.47
20.93
20.59
20.49
20.61
20.75
20.67
20.17
19.17
17.75
16.16
14.64
13.29
12.05
10.64
8.72
6.09
2.78
-0.94
-4.69
-8.13
-11.20
-14.03
-16.98
-20.42
-24.60
-29.56
-35.00
-40.29
-44.63
-47.09
-46.95
-43.97
-38.43
-31.11
-23.06
-15.30
-8.48
-2.86
1.65
5.30
8.29
10.75
12.72
14.25
15.38
16.25
16.97
17.62
18.30
19.02
19.75
20.51
21.27
22.03
22.75
23.35
23.66
23.50
22.69
21.22
19.25
17.04
14.92
13.06
11.39
9.66
7.55
4.83
1.53
-2.04
-5.52
-8.52
-10.91
-12.87
-14.82
-17.28
-20.68
-25.20
-30.59
-36.28
-41.37
-44.85
-45.88
-43.93
-38.99
-31.60
-22.74
-13.64
-5.39
1.33
6.39
10.08
12.90
15.26
17.30
18.92
20.00
20.48
20.52
20.35
20.17
20.01
19.78
19.35
18.69
17.86
16.97
16.13
15.32
14.45
13.38
11.97
10.18
8.02
5.57
2.92
0.19
-2.52
-5.11
-7.56
-9.88
-12.08
-14.20
-16.29
-18.48
-20.95
-23.85
-27.19
-30.75
-34.01
-36.22
-36.68
-34.94
-30.93
-25.05
-17.99
-10.48
-3.23
3.24
8.61
12.73
15.63
17.38
18.11
17.97
17.16
15.99
14.91
14.36
14.62
15.69
17.21
18.69
19.63
19.82
19.33
18.43
17.41
16.37
15.23
13.78
11.81
9.26
6.24
2.99
-0.22
-3.15
-5.77
-8.22
-10.73
-13.60
-16.99
-20.97
-25.37
-29.86
-33.94
-36.99
-38.41
-37.74
-34.78
-29.71
-23.03
-15.44
-7.68
-0.35
6.14
11.67
16.24
19.91
22.74
24.70
25.76
25.91
25.28
24.17
23.04
22.35
22.39
23.19
24.50
25.90
26.99
27.57
27.60
27.12
26.19
24.80
22.87
20.36
17.32
13.88
10.24
6.50
2.72
-1.06
-4.82
-8.44
-11.78
-14.79
-17.54
-20.33
-23.54
-27.49
-32.23
-37.42
-42.27
-45.82
-47.13
-45.68
-41.48
-35.08
-27.40
-19.38
-11.81
-5.13
0.57
5.37
9.44
12.95
15.94
18.40
20.29
21.65
22.56
23.19
23.75
24.36
25.08
25.87
26.68
27.42
28.00
28.35
28.34
27.85
26.83
25.26
23.23
20.90
18.39
15.80
13.21
10.65
8.08
5.46
2.68
-0.33
-3.61
-7.19
-11.02
-14.99
-18.96
-22.85
-26.68
-30.59
-34.75
-39.19
-43.58
-47.17
-48.98
-48.11
-44.15
-37.40
-28.86
-19.81
-11.39
-4.27
1.49
6.16
10.11
13.49
16.22
18.13
19.08
19.20
18.77
18.18
17.72
17.53
17.58
17.81
18.16
18.59
19.06
19.49
19.76
19.75
19.44
18.83
17.97
16.87
15.54
13.97
12.22
10.36
8.41
6.28
3.88
1.12
-1.89
-4.91
-7.70
-10.12
-12.36
-14.78
-17.91
-22.07
-27.30
-33.26
-39.23
-44.32
-47.57
-48.24
-45.98
-40.95
-33.85
-25.66
-17.37
-9.68
-2.99
2.66
7.35
11.19
14.20
16.44
17.99
19.02
19.80
20.54
21.35
22.20
22.95
23.41
23.54
23.40
23.15
22.99
22.95
22.93
22.72
22.05
20.82
19.04
16.84
14.36
11.71
8.86
5.74
2.33
-1.30
-4.96
-8.40
-11.41
-13.94
-16.15
-18.41
-21.09
-24.49
-28.59
-32.97
-36.88
-39.42
-39.78
-37.53
-32.74
-25.98
-18.14
-10.14
-2.69
3.86
9.48
14.25
18.29
21.58
23.98
25.39
25.85
25.58
24.97
24.40
24.10
24.15
24.44
24.77
24.95
24.92
24.69
24.33
23.87
23.23
22.28
20.91
19.08
16.88
14.50
12.18
10.06
8.17
6.34
4.37
2.09
-0.58
-3.49
-6.37
-8.94
-11.03
-12.69
-14.24
-16.17
-19.00
-23.05
-28.25
-34.09
-39.65
-43.76
-45.37
-43.88
-39.36
-32.55
-24.57
-16.59
-9.35
-3.16
2.06
6.55
10.42
13.62
16.05
17.66
18.58
19.03
19.22
19.27
19.15
18.81
18.26
17.57
16.94
16.57
16.65
17.28
18.39
19.80
21.16
22.09
22.30
21.69
20.33
18.44
16.25
13.95
11.63
9.29
6.87
4.27
1.37
-1.87
-5.35
-8.86
-12.09
-14.82
-16.99
-18.77
-20.52
-22.65
-25.54
-29.39
-34.07
-39.17
-43.91
-47.24
-48.19
-46.12
-41.04
-33.66
-25.17
-16.79
-9.40
-3.35
1.50
5.44
8.65
11.16
12.85
13.67
13.80
13.60
13.50
13.77
14.48
15.44
16.41
17.19
17.73
18.11
18.45
18.84
19.20
19.31
18.90
17.79
15.94
13.53
10.86
8.24
5.88
3.78
1.78
-0.37
-2.88
-5.78
-8.96
-12.11
-14.95
-17.24
-19.00
-20.47
-22.07
-24.25
-27.28
-31.11
-35.30
-39.13
-41.68
-42.12
-39.96
-35.14
-28.14
-19.83
-11.24
-3.19
3.74
9.40
13.85
17.22
19.63
21.14
21.85
21.91
21.58
21.16
20.86
20.83
21.04
21.44
21.91
22.36
22.75
23.07
23.28
23.30
23.00
22.22
20.84
18.86
16.36
13.59
10.70
7.83
4.97
2.07
-0.97
-4.12
-7.26
-10.27
-13.03
-15.56
-18.00
-20.60
-23.61
-27.23
-31.47
-36.15
-40.77
-44.58
-46.72
-46.40
-43.20
-37.31
-29.43
-20.63
-12.01
-4.37
1.96
7.03
11.17
14.65
17.60
20.01
21.82
22.99
23.64
23.95
24.11
24.24
24.38
24.52
24.68
24.87
25.18
25.64
26.23
26.81
27.21
27.21
26.66
25.45
23.50
20.86
17.70
14.29
10.96
7.92
5.17
2.50
-0.34
-3.53
-6.98
-10.37
-13.35
-15.70
-17.54
-19.30
-21.52
-24.64
-28.81
-33.75
-38.77
-42.96
-45.33
-45.15
-42.18
-36.74
-29.62
-21.83
-14.30
-7.63
-2.03
2.55
6.25
9.20
11.43
12.94
13.79
14.15
14.28
14.44
14.80
15.42
16.20
17.02
17.77
18.40
18.94
19.50
20.11
20.72
21.18
21.23
20.60
19.13
16.81
13.81
10.47
7.14
4.18
1.72
-0.29
-2.15
-4.14
-6.49
-9.21
-12.11
-14.90
-17.37
-19.49
-21.38
-23.33
-25.57
-28.31
-31.65
-35.55
-39.80
-43.89
-47.01
-48.25
-46.85
-42.48
-35.53
-26.93
-17.91
-9.60
-2.65
2.72
6.76
9.82
12.23
14.11
15.43
16.13
16.21
15.84
15.32
14.99
15.10
15.71
16.68
17.77
18.77
19.55
20.09
20.38
20.41
20.09
19.35
18.25
16.88
15.45
14.06
12.67
11.11
9.09
6.48
3.27
-0.26
-3.80
-7.03
-9.84
-12.33
-14.76
-17.52
-20.85
-24.86
-29.30
-33.60
-36.90
-38.29
-37.11
-33.20
-26.95
-19.25
-11.16
-3.61
2.83
7.97
11.95
14.97
17.18
18.67
19.54
19.91
20.07
20.28
20.75
21.49
22.35
23.10
23.57
23.74
23.72
23.67
23.70
23.72
23.51
22.74
21.22
18.96
16.15
13.12
10.20
7.61
5.40
3.50
1.69
-0.21
-2.36
-4.77
-7.34
-9.87
-12.16
-14.11
-15.85
-17.75
-20.29
-23.87
-28.57
-33.99
-39.30
-43.40
-45.36
-44.60
-41.12
-35.37
-28.03
-19.82
-11.34
-3.05
4.63
11.31
16.66
20.48
22.85
24.07
24.58
24.74
24.77
24.69
24.43
23.94
23.27
22.57
22.04
21.81
21.87
22.12
22.31
22.26
21.84
20.94
19.56
17.71
15.44
12.84
10.09
7.34
4.73
2.29
-0.04
-2.45
-5.08
-8.02
-11.21
-14.47
-17.63
-20.60
-23.43
-26.41
-29.91
-34.24
-39.46
-45.13
-50.38
-54.06
-55.11
-52.88
-47.42
-39.47
-30.15
-20.65
-11.87
-4.27
2.05
7.23
11.40
14.63
16.93
18.37
19.05
19.18
18.98
18.61
18.18
17.77
17.47
17.38
17.54
17.85
18.13
18.12
17.61
16.54
15.00
13.16
11.19
9.21
7.25
5.31
3.36
1.44
-0.49
-2.48
-4.61
-6.95
-9.41
-11.90
-14.14
-16.05
-17.69
-19.41
-21.65
-24.80
-28.91
-33.57
-37.96
-41.03
-41.87
-39.94
-35.34
-28.68
-20.90
-13.00
-5.75
0.39
5.33
9.18
12.13
14.30
15.80
16.65
16.92
16.80
16.56
16.52
16.95
17.94
19.32
20.76
21.84
22.34
22.21
21.64
20.86
20.04
19.12
17.91
16.16
13.73
10.62
7.03
3.26
-0.39
-3.69
-6.54
-8.99
-11.22
-13.52
-16.19
-19.50
-23.48
-27.92
-32.31
-35.89
-37.89
-37.67
-34.96
-29.99
-23.40
-16.02
-8.64
-1.78
4.34
9.67
14.26
18.07
21.05
23.16
24.44
25.03
25.12
24.94
24.67
24.45
24.34
24.38
24.58
24.81
24.96
24.89
24.48
23.73
22.65
21.27
19.61
17.68
15.49
13.09
10.51
7.71
4.69
1.49
-1.74
-4.78
-7.38
-9.47
-11.15
-12.74
-14.67
-17.25
-20.67
-24.92
-29.70
-34.54
-38.76
-41.48
-41.89
-39.52
-34.37
-27.06
-18.64
-10.22
-2.66
3.67
8.83
13.09
16.64
19.52
21.60
22.74
23.00
22.61
21.88
21.07
20.36
19.82
19.53
19.62
20.20
21.27
22.56
23.68
24.21
23.91
22.78
21.05
18.96
16.73
14.46
12.18
9.99
8.00
6.23
4.53
2.62
0.22
-2.72
-5.93
-8.93
-11.27
-12.92
-14.27
-16.05
-19.02
-23.51
-29.32
-35.59
-41.14
-44.80
-45.72
-43.65
-38.87
-32.19
-24.61
-17.09
-10.30
-4.57
0.03
3.62
6.38
8.50
10.20
11.67
13.06
14.44
15.72
16.77
17.53
18.10
18.70
19.57
20.83
22.34
23.81
24.86
25.22
24.78
23.56
21.68
19.29
16.57
13.75
11.06
8.65
6.49
4.39
2.02
-0.82
-4.15
-7.73
-11.20
-14.25
-16.77
-18.88
-20.89
-23.22
-26.27
-30.21
-34.90
-39.77
-43.85
-46.05
-45.44
-41.67
-35.09
-26.70
-17.80
-9.59
-2.80
2.43
6.38
9.54
12.25
14.61
16.54
17.84
18.43
18.43
18.07
17.69
17.54
17.75
18.30
19.06
19.93
20.79
21.52
22.00
22.13
21.82
21.04
19.85
18.37
16.75
15.06
13.28
11.24
8.74
5.64
1.97
-2.04
-6.03
-9.61
-12.58
-14.99
-17.13
-19.38
-22.09
-25.42
-29.33
-33.48
-37.32
-40.08
-40.98
-39.39
-35.12
-28.50
-20.35
-11.69
-3.45
3.73
9.65
14.40
18.25
21.45
24.10
26.21
27.70
28.48
28.60
28.16
27.40
26.54
25.75
25.07
24.43
23.82
23.25
22.84
22.63
22.57
22.43
21.87
20.59
18.52
15.80
12.82
9.96
7.49
5.43
3.53
1.48
-0.95
-3.75
-6.68
-9.44
-11.77
-13.62
-15.18
-16.74
-18.72
-21.40
-24.99
-29.45
-34.46
-39.38
-43.28
-45.26
-44.66
-41.33
-35.71
-28.66
-21.22
-14.22
-8.14
-3.07
1.18
4.88
8.21
11.21
13.76
15.73
17.07
17.86
18.34
18.76
19.26
19.79
20.20
20.33
20.16
19.80
19.43
19.18
19.03
18.79
18.20
17.00
15.16
12.85
10.40
8.15
6.30
4.84
3.57
2.16
0.35
-1.99
-4.78
-7.87
-11.02
-14.03
-16.81
-19.30
-21.59
-23.90
-26.57
-29.93
-34.13
-38.94
-43.73
-47.55
-49.39
-48.54
-44.83
-38.66
-30.85
-22.42
-14.24
-6.94
-0.78
4.23
8.20
11.26
13.49
14.89
15.56
15.64
15.37
15.04
14.88
14.99
15.28
15.60
15.78
15.76
15.54
15.15
14.57
13.75
12.64
11.22
9.60
7.94
6.43
5.20
4.27
3.52
2.77
1.78
0.40
-1.42
-3.58
-5.83
-7.98
-9.94
-11.88
-14.16
-17.13
-20.90
-25.18
-29.26
-32.24
-33.27
-31.89
-28.11
-22.39
-15.47
-8.19
-1.32
4.56
9.18
12.50
14.74
16.23
17.24
17.92
18.29
18.37
18.22
18.07
18.21
18.89
20.20
21.99
23.98
25.80
27.14
27.80
27.74
27.00
25.71
23.96
21.87
19.52
17.00
14.45
11.99
9.70
7.51
5.22
2.59
-0.57
-4.25
-8.16
-11.90
-15.12
-17.71
-19.88
-22.09
-24.80
-28.28
-32.50
-37.04
-41.22
-44.24
-45.29
-43.80
-39.62
-33.04
-24.84
-16.09
-7.86
-0.88
4.56
8.59
11.58
13.87
15.70
17.14
18.19
18.94
19.50
20.00
20.49
20.90
21.10
20.99
20.66
20.34
20.30
20.69
21.43
22.17
22.43
21.83
20.26
17.94
15.28
12.71
10.50
8.63
6.94
5.16
3.07
0.51
-2.49
-5.84
-9.33
-12.73
-15.85
-18.63
-21.19
-23.84
-26.97
-30.90
-35.66
-40.86
-45.72
-49.21
-50.34
-48.52
-43.73
-36.58
-28.10
-19.47
-11.56
-4.88
0.52
4.80
8.19
10.78
12.58
13.54
13.71
13.34
12.76
12.32
12.22
12.51
13.08
13.86
14.81
15.99
17.40
18.91
20.19
20.85
20.56
19.23
17.00
14.24
11.37
8.73
6.44
4.43
2.48
0.32
-2.22
-5.10
-8.13
-10.97
-13.38
-15.28
-16.83
-18.41
-20.47
-23.28
-26.89
-30.96
-34.88
-37.85
-39.16
-38.33
-35.30
-30.33
-23.96
-16.82
-9.52
-2.56
3.69
8.98
13.21
16.32
18.40
19.60
20.12
20.21
20.15
20.19
20.46
21.02
21.76
22.56
23.22
23.62
23.63
23.20
22.32
21.05
19.53
17.94
16.42
15.02
13.71
12.39
10.95
9.29
7.32
4.97
2.19
-0.93
-4.24
-7.43
-10.19
-12.41
-14.26
-16.23
-18.93
-22.83
-27.95
-33.72
-39.06
-42.74
-43.74
-41.60
-36.58
-29.48
-21.37
-13.22
-5.69
0.90
6.52
11.18
14.89
17.66
19.54
20.68
21.31
21.72
22.12
22.61
23.17
23.73
24.15
24.35
24.26
23.95
23.52
23.09
22.78
22.50
22.05
21.15
19.65
17.60
15.30
13.11
11.26
9.72
8.20
6.35
3.90
0.90
-2.39
-5.65
-8.58
-11.14
-13.43
-15.70
-18.25
-21.38
-25.31
-30.12
-35.54
-40.95
-45.47
-48.15
-48.30
-45.68
-40.62
-33.85
-26.23
-18.63
-11.62
-5.54
-0.47
3.71
7.23
10.27
12.94
15.23
17.05
18.38
19.23
19.74
20.03
20.15
20.04
19.63
18.96
18.14
17.46
17.13
17.23
17.61
17.95
17.85
17.09
15.63
13.63
11.46
9.43
7.69
6.15
4.53
2.48
-0.22
-3.51
-7.09
-10.50
-13.42
-15.76
-17.75
-19.83
-22.42
-25.78
-29.90
-34.58
-39.29
-43.42
-46.22
-46.95
-45.10
-40.53
-33.66
-25.38
-16.79
-8.92
-2.37
2.75
6.71
9.92
12.65
14.99
16.82
17.99
18.48
18.41
18.08
17.79
17.75
18.01
18.47
19.01
19.55
20.09
20.62
21.05
21.23
20.94
20.03
18.55
16.77
15.01
13.61
12.62
11.83
10.87
9.33
6.95
3.75
0.04
-3.75
-7.17
-10.03
-12.41
-14.79
-17.80
-21.99
-27.43
-33.65
-39.59
-43.91
-45.50
-43.78
-38.96
-31.78
-23.30
-14.45
-5.91
1.95
8.92
14.81
19.51
22.93
25.16
26.48
27.24
27.79
28.36
29.02
29.67
30.20
30.51
30.58
30.49
30.34
30.24
30.23
30.23
30.09
29.62
28.74
27.36
25.54
23.28
20.63
17.65
14.46
11.20
8.06
5.12
2.33
-0.48
-3.50
-6.78
-10.15
-13.28
-15.84
-17.78
-19.35
-21.10
-23.63
-27.30
-32.10
-37.62
-43.16
-47.88
-50.97
-51.78
-49.92
-45.44
-38.80
-30.84
-22.50
-14.61
-7.67
-1.80
3.11
7.32
10.98
14.16
16.84
19.00
20.64
21.73
22.26
22.25
21.80
21.15
20.61
20.38
20.56
21.04
21.51
21.69
21.36
20.48
19.13
17.45
15.59
13.64
11.69
9.85
8.17
6.66
5.17
3.44
1.22
-1.62
-4.97
-8.52
-11.86
-14.60
-16.63
-18.06
-19.25
-20.62
-22.56
-25.33
-29.02
-33.51
-38.44
-43.19
-46.91
-48.77
-48.09
-44.64
-38.71
-31.04
-22.57
-14.22
-6.60
-0.03
5.47
9.98
13.56
16.24
18.02
18.96
19.19
19.00
18.71
18.61
18.92
19.67
20.76
22.00
23.18
24.09
24.61
24.69
24.27
23.35
21.99
20.30
18.40
16.42
14.42
12.35
10.09
7.41
4.21
0.54
-3.36
-7.10
-10.31
-12.76
-14.52
-15.90
-17.37
-19.43
-22.44
-26.45
-31.12
-35.80
-39.59
-41.58
-41.10
-37.90
-32.15
-24.49
-15.79
-6.97
1.13
7.92
13.12
16.75
19.10
20.58
21.62
22.50
23.36
24.18
24.92
25.55
26.14
26.74
27.39
28.04
28.56
28.85
28.84
28.56
28.01
27.18
25.95
24.16
21.74
18.77
15.51
12.34
9.62
7.41
5.50
3.46
0.85
-2.48
-6.34
-10.30
-13.88
-16.79
-19.08
-21.05
-23.12
-25.68
-28.97
-33.03
-37.67
-42.36
-46.30
-48.47
-47.99
-44.40
-37.98
-29.65
-20.62
-12.05
-4.63
1.45
6.39
10.53
14.06
17.02
19.31
20.88
21.76
22.13
22.25
22.40
22.73
23.25
23.80
24.20
24.34
24.23
24.07
24.05
24.24
24.47
24.41
23.71
22.21
20.03
17.51
15.09
13.07
11.46
10.01
8.34
6.12
3.25
-0.18
-3.85
-7.42
-10.65
-13.46
-15.97
-18.51
-21.47
-25.24
-30.03
-35.79
-42.12
-48.33
-53.46
-56.54
-56.79
-53.86
-48.02
-40.03
-30.95
-21.82
-13.39
-6.07
0.08
5.12
9.05
11.89
13.70
14.68
15.14
15.38
15.55
15.65
15.58
15.32
15.04
14.99
15.37
16.17
17.21
18.13
18.66
18.66
18.18
17.38
16.37
15.20
13.80
12.08
9.94
7.36
4.37
1.04
-2.52
-6.16
-9.69
-12.92
-15.71
-18.11
-20.38
-22.95
-26.20
-30.26
-34.78
-38.92
-41.59
-41.81
-39.08
-33.54
-25.91
-17.24
-8.54
-0.63
6.10
11.51
15.71
18.86
21.10
22.56
23.36
23.61
23.45
23.05
22.60
22.33
22.39
22.88
23.77
24.85
25.85
26.46
26.48
25.85
24.71
23.21
21.46
19.44
17.04
14.11
10.64
6.76
2.74
-1.21
-4.96
-8.60
-12.26
-16.04
-19.91
-23.74
-27.39
-30.84
-34.25
-37.76
-41.36
-44.63
-46.81
-46.96
-44.34
-38.76
-30.70
-21.16
-11.37
-2.34
5.33
11.50
16.30
19.98
22.70
24.56
25.65
26.09
26.10
25.94
25.81
25.83
25.96
26.10
26.19
26.24
26.32
26.49
26.65
26.58
26.04
24.85
23.04
20.78
18.30
15.73
13.10
10.34
7.43
4.37
1.24
-1.89
-5.00
-8.06
-11.04
-13.90
-16.63
-19.39
-22.45
-26.16
-30.69
-35.87
-41.07
-45.33
-47.60
-47.12
-43.67
-37.61
-29.75
-21.03
-12.27
-4.03
3.40
9.86
15.22
19.31
22.03
23.42
23.75
23.46
22.99
22.65
22.45
22.23
21.74
20.90
19.78
18.67
17.83
17.41
17.28
17.20
16.88
16.11
14.85
13.23
11.42
9.59
7.76
5.87
3.72
1.15
-1.86
-5.13
-8.36
-11.23
-13.59
-15.51
-17.31
-19.37
-22.05
-25.61
-30.08
-35.26
-40.64
-45.43
-48.66
-49.43
-47.22
-42.10
-34.77
-26.28
-17.77
-10.11
-3.72
1.40
5.47
8.79
11.51
13.66
15.18
16.03
16.29
16.18
16.02
16.06
16.41
17.00
17.67
18.25
18.67
18.95
19.15
19.22
19.06
18.52
17.53
16.09
14.27
12.11
9.66
6.90
3.90
0.78
-2.26
-5.08
-7.63
-10.00
-12.35
-14.82
-17.52
-20.51
-23.81
-27.36
-30.94
-34.08
-36.05
-36.12
-33.76
-28.95
-22.21
-14.44
-6.65
0.41
6.41
11.39
15.55
19.04
21.83
23.78
24.81
25.02
24.66
24.10
23.64
23.46
23.59
23.97
24.52
25.21
25.94
26.57
26.86
26.58
25.51
23.63
21.12
18.26
15.43
12.90
10.77
8.94
7.14
5.05
2.49
-0.51
-3.69
-6.70
-9.22
-11.22
-12.94
-14.90
-17.67
-21.63
-26.78
-32.73
-38.72
-43.80
-47.02
-47.63
-45.21
-39.86
-32.15
-23.09
-13.75
-5.05
2.51
8.76
13.82
17.80
20.69
22.44
23.08
22.89
22.35
21.99
22.14
22.80
23.78
24.76
25.58
26.21
26.70
27.04
27.08
26.61
25.49
23.76
21.63
19.37
17.21
15.24
13.41
11.63
9.75
7.64
5.19
2.32
-0.85
-4.11
-7.17
-9.80
-11.95
-13.85
-15.85
-18.39
-21.81
-26.23
-31.56
-37.33
-42.80
-46.97
-48.85
-47.76
-43.57
-36.85
-28.65
-20.19
-12.43
-5.83
-0.34
4.34
8.48
12.11
15.03
17.04
18.03
18.15
17.76
17.25
16.89
16.77
16.84
17.02
17.26
17.57
18.01
18.56
19.15
19.64
19.90
19.76
19.15
18.04
16.51
14.67
12.68
10.69
8.74
6.74
4.52
1.87
-1.26
-4.81
-8.48
-11.94
-14.93
-17.32
-19.17
-20.74
-22.33
-24.32
-27.00
-30.55
-34.91
-39.64
-43.94
-46.77
-47.12
-44.42
-38.78
-30.99
-22.26
-13.78
-6.37
-0.35
4.38
8.08
10.97
13.12
14.57
15.38
15.68
15.72
15.72
15.83
16.16
16.76
17.65
18.80
20.08
21.30
22.30
22.90
23.08
22.85
22.26
21.34
20.09
18.48
16.51
14.23
11.70
9.04
6.31
3.57
0.85
-1.83
-4.43
-6.90
-9.18
-11.35
-13.49
-15.84
-18.70
-22.25
-26.41
-30.71
-34.41
-36.59
-36.53
-33.90
-28.91
-22.23
-14.78
-7.40
-0.67
5.16
10.11
14.25
17.61
20.15
21.80
22.58
22.63
22.19
21.59
21.12
20.97
21.24
21.92
22.95
24.14
25.29
26.21
26.69
26.63
26.03
24.95
23.46
21.68
19.75
17.75
15.81
13.95
12.20
10.46
8.63
6.56
4.18
1.50
-1.38
-4.30
-7.12
-9.72
-12.11
-14.38
-16.69
-19.29
-22.42
-26.25
-30.77
-35.73
-40.56
-44.54
-46.92
-47.12
-44.97
-40.76
-35.10
-28.71
-22.27
-16.18
-10.65
-5.73
-1.37
2.49
5.92
8.98
11.71
14.04
15.86
17.06
17.59
17.56
17.18
16.68
16.23
15.89
15.60
15.32
15.02
14.71
14.38
13.95
13.31
12.35
11.06
9.52
7.83
6.10
4.32
2.41
0.22
-2.30
-5.10
-7.99
-10.72
-13.11
-15.10
-16.86
-18.67
-20.89
-23.73
-27.27
-31.34
-35.59
-39.51
-42.49
-43.89
-43.22
-40.19
-34.94
-28.01
-20.29
-12.68
-5.88
-0.21
4.36
8.05
11.03
13.35
14.94
15.76
15.91
15.62
15.19
14.88
14.83
15.08
15.61
16.43
17.55
18.91
20.28
21.32
21.69
21.16
19.77
17.75
15.46
13.21
11.15
9.29
7.45
5.45
3.13
0.46
-2.45
-5.36
-8.03
-10.28
-12.05
-13.53
-15.05
-17.06
-19.84
-23.41
-27.37
-30.95
-33.23
-33.45
-31.21
-26.63
-20.30
-13.07
-5.86
0.62
5.97
10.12
13.22
15.56
17.36
18.81
19.95
20.81
21.44
21.90
22.31
22.72
23.12
23.44
23.63
23.72
23.77
23.86
23.97
23.96
23.63
22.83
21.47
19.59
17.31
14.78
12.11
9.46
6.89
4.44
2.15
-0.07
-2.23
-4.37
-6.47
-8.53
-10.54
-12.50
-14.48
-16.53
-18.78
-21.41
-24.60
-28.41
-32.70
-36.96
-40.42
-42.26
-41.88
-39.12
-34.36
-28.33
-21.86
-15.64
-10.07
-5.29
-1.29
1.95
4.37
5.94
6.68
6.80
6.67
6.79
7.50
8.93
10.88
12.98
14.84
16.25
17.23
17.91
18.43
18.79
18.91
18.67
18.00
16.88
15.38
13.59
11.58
9.40
7.15
4.89
2.59
0.18
-2.45
-5.33
-8.37
-11.35
-14.04
-16.31
-18.21
-19.91
-21.74
-23.97
-26.78
-30.17
-33.99
-37.81
-40.94
-42.67
-42.31
-39.58
-34.69
-28.34
-21.46
-14.94
-9.27
-4.53
-0.50
3.11
6.41
9.31
11.60
13.21
14.25
15.06
15.95
17.08
18.45
19.86
21.16
22.34
23.48
24.63
25.74
26.48
26.52
25.66
23.97
21.83
19.70
17.92
16.50
15.20
13.68
11.71
9.30
6.68
4.17
2.02
0.25
-1.22
-2.52
-3.76
-4.98
-6.22
-7.66
-9.51
-11.88
-14.65
-17.30
-19.08
-19.23
-17.31
-13.44
-8.28
-2.77
2.20
6.10
8.89
10.83
12.35
13.73
15.07
16.27
17.21
17.85
18.22
18.41
18.54
18.64
18.69
18.66
18.54
18.39
18.29
18.34
18.58
18.94
19.27
19.32
18.85
17.70
15.84
13.42
10.73
8.11
5.84
4.05
2.70
1.56
0.38
-1.10
-2.95
-5.13
-7.43
-9.63
-11.55
-13.15
-14.55
-16.03
-17.96
-20.67
-24.31
-28.69
-33.25
-37.14
-39.43
-39.44
-36.94
-32.25
-26.12
-19.51
-13.24
-7.84
-3.49
-0.05
2.70
5.00
7.00
8.75
10.24
11.49
12.52
13.36
14.08
14.67
15.14
15.48
15.74
15.97
16.26
16.67
17.16
17.64
17.96
17.98
17.53
16.58
15.11
13.22
11.07
8.85
6.76
4.89
3.31
1.90
0.52
-1.01
-2.89
-5.24
-8.04
-11.14
-14.37
-17.52
-20.53
-23.41
-26.20
-29.03
-32.02
-35.26
-38.77
-42.35
-45.52
-47.57
-47.77
-45.63
-41.15
-34.81
-27.43
-19.88
-12.80
-6.48
-0.95
3.82
7.87
11.10
13.44
14.92
15.72
16.13
16.45
16.83
17.28
17.69
17.91
17.95
17.88
17.85
17.96
18.19
18.43
18.47
18.19
17.54
16.56
15.33
13.94
12.46
10.89
9.17
7.21
4.96
2.41
-0.25
-2.79
-4.97
-6.67
-8.02
-9.35
-11.10
-13.59
-16.88
-20.75
-24.75
-28.32
-30.89
-32.02
-31.34
-28.70
-24.23
-18.34
-11.71
-5.07
0.97
6.12
10.43
14.16
17.56
20.72
23.49
25.62
26.94
27.46
27.47
27.32
27.34
27.65
28.13
28.53
28.61
28.19
27.33
26.15
24.84
23.53
22.23
20.81
19.10
16.93
14.34
11.51
8.74
6.38
4.61
3.37
2.39
1.29
-0.29
-2.49
-5.20
-8.11
-10.84
-13.18
-15.13
-16.90
-18.81
-21.15
-24.06
-27.48
-31.18
-34.81
-37.91
-39.98
-40.56
-39.31
-36.16
-31.34
-25.37
-18.93
-12.67
-7.09
-2.43
1.35
4.47
7.21
9.77
12.15
14.19
15.68
16.56
16.98
17.32
17.97
19.11
20.65
22.21
23.37
23.84
23.59
22.86
21.95
21.06
20.22
19.26
18.00
16.29
14.16
11.79
9.43
7.32
5.56
4.07
2.64
1.00
-1.04
-3.59
-6.55
-9.76
-13.00
-16.11
-18.99
-21.64
-24.13
-26.51
-28.86
-31.32
-34.05
-37.15
-40.51
-43.69
-45.96
-46.54
-44.78
-40.59
-34.38
-26.99
-19.42
-12.45
-6.56
-1.81
1.91
4.82
7.08
8.78
10.00
10.81
11.29
11.52
11.58
11.56
11.58
11.76
12.21
12.99
14.09
15.38
16.73
17.87
18.59
18.69
18.05
16.70
14.80
12.61
10.44
8.54
6.95
5.55
4.02
2.09
-0.34
-3.07
-5.76
-8.02
-9.66
-10.80
-11.81
-13.17
-15.23
-18.06
-21.50
-25.19
-28.67
-31.44
-32.94
-32.66
-30.31
-25.96
-20.09
-13.52
-7.14
-1.62
2.78
6.13
8.67
10.61
12.02
12.90
13.34
13.56
13.85
14.46
15.46
16.73
18.08
19.34
20.52
21.67
22.87
24.07
25.08
25.64
25.53
24.63
22.98
20.71
18.04
15.23
12.52
10.03
7.75
5.52
3.12
0.40
-2.62
-5.69
-8.52
-10.88
-12.73
-14.22
-15.64
-17.35
-19.64
-22.67
-26.39
-30.57
-34.66
-37.97
-39.67
-39.14
-36.12
-30.86
-24.03
-16.54
-9.28
-2.89
2.35
6.48
9.68
12.23
14.29
15.97
17.34
18.44
19.34
20.08
20.65
21.02
21.17
21.17
21.18
21.40
21.99
23.00
24.29
25.51
26.22
26.04
24.75
22.42
19.33
15.94
12.71
9.90
7.55
5.46
3.36
1.02
-1.65
-4.65
-7.83
-11.05
-14.17
-17.08
-19.74
-22.16
-24.49
-27.02
-30.07
-33.83
-38.23
-42.76
-46.54
-48.54
-47.97
-44.54
-38.62
-31.15
-23.24
-15.88
-9.62
-4.58
-0.57
2.68
5.36
7.52
9.13
10.22
10.85
11.19
11.45
11.80
12.43
13.43
14.80
16.42
18.05
19.36
20.03
19.92
18.97
17.37
15.41
13.34
11.37
9.59
7.95
6.37
4.68
2.77
0.60
-1.78
-4.22
-6.57
-8.76
-10.83
-12.90
-15.22
-18.03
-21.43
-25.35
-29.40
-32.90
-35.04
-35.07
-32.58
-27.65
-20.89
-13.27
-5.81
0.69
5.88
9.83
12.86
15.28
17.28
18.86
19.98
20.63
21.05
21.49
22.22
23.28
24.48
25.51
26.12
26.24
25.97
25.45
24.70
23.66
22.16
20.16
17.72
15.15
12.70
10.55
8.69
6.95
5.17
3.20
1.00
-1.36
-3.79
-6.17
-8.36
-10.26
-11.93
-13.55
-15.51
-18.26
-22.09
-26.92
-32.15
-36.87
-39.99
-40.70
-38.68
-34.17
-27.87
-20.66
-13.40
-6.66
-0.79
4.20
8.43
12.11
15.37
18.21
20.52
22.17
23.07
23.26
22.99
22.55
22.25
22.30
22.77
23.56
24.54
25.56
26.43
27.01
27.17
26.80
25.87
24.36
22.33
19.94
17.35
14.79
12.44
10.32
8.34
6.28
3.96
1.32
-1.54
-4.37
-6.90
-8.91
-10.44
-11.69
-13.03
-14.86
-17.54
-21.23
-25.82
-30.88
-35.65
-39.29
-40.97
-40.22
-36.98
-31.64
-24.87
-17.49
-10.26
-3.77
1.68
6.09
9.63
12.48
14.83
16.71
18.04
18.79
18.99
18.84
18.63
18.61
18.82
19.13
19.31
19.16
18.67
18.03
17.48
17.18
17.12
17.07
16.71
15.75
14.06
11.76
9.12
6.52
4.30
2.64
1.51
0.74
0.00
-0.99
-2.38
-4.15
-6.11
-8.05
-9.89
-11.73
-13.81
-16.43
-19.78
-23.86
-28.45
-33.21
-37.72
-41.51
-44.09
-45.00
-43.87
-40.57
-35.32
-28.66
-21.35
-14.14
-7.60
-2.01
2.66
6.52
9.70
12.21
13.99
15.03
15.40
15.34
15.12
15.03
15.23
15.76
16.55
17.45
18.35
19.21
20.01
20.74
21.32
21.54
21.22
20.24
18.70
16.87
15.10
13.60
12.34
10.98
9.09
6.44
3.08
-0.57
-3.99
-6.73
-8.71
-10.13
-11.38
-12.91
-15.05
-17.95
-21.59
-25.69
-29.75
-33.02
-34.73
-34.22
-31.28
-26.18
-19.65
-12.58
-5.81
0.14
5.10
9.12
12.36
14.95
17.02
18.62
19.87
20.81
21.51
22.01
22.30
22.41
22.37
22.26
22.18
22.17
22.24
22.33
22.34
22.19
21.78
21.10
20.07
18.67
16.88
14.78
12.49
10.23
8.24
6.63
5.34
4.13
2.65
0.64
-1.92
-4.81
-7.63
-10.02
-11.80
-13.04
-13.99
-15.00
-16.41
-18.44
-21.21
-24.72
-28.74
-32.80
-36.24
-38.27
-38.23
-35.80
-31.21
-25.07
-18.33
-11.85
-6.18
-1.44
2.61
6.28
9.78
13.03
15.77
17.73
18.76
19.02
18.88
18.77
19.03
19.76
20.83
22.01
23.04
23.79
24.26
24.52
24.63
24.59
24.31
23.71
22.79
21.59
20.22
18.73
17.11
15.26
13.12
10.70
8.12
5.56
3.15
0.89
-1.36
-3.78
-6.52
-9.51
-12.60
-15.56
-18.23
-20.67
-23.06
-25.66
-28.68
-32.12
-35.82
-39.50
-42.77
-45.17
-46.23
-45.52
-42.82
-38.20
-32.09
-25.19
-18.30
-12.08
-6.87
-2.73
0.49
3.10
5.31
7.25
8.95
10.34
11.41
12.14
12.60
12.83
12.90
12.83
12.72
12.71
12.95
13.58
14.55
15.64
16.48
16.76
16.33
15.29
13.93
12.56
11.33
10.27
9.27
8.21
7.00
5.59
3.96
2.05
-0.17
-2.71
-5.49
-8.34
-11.00
-13.30
-15.20
-16.90
-18.75
-21.16
-24.35
-28.19
-32.24
-35.75
-37.93
-38.21
-36.35
-32.53
-27.23
-21.05
-14.60
-8.36
-2.67
2.31
6.54
10.05
12.89
15.06
16.57
17.44
17.77
17.75
17.63
17.64
17.92
18.47
19.17
19.88
20.51
21.06
21.53
21.88
22.00
21.71
20.89
19.50
17.72
15.81
14.05
12.63
11.49
10.43
9.19
7.52
5.33
2.68
-0.24
-3.20
-5.99
-8.49
-10.67
-12.60
-14.45
-16.43
-18.71
-21.39
-24.51
-27.98
-31.53
-34.67
-36.73
-37.01
-35.02
-30.77
-24.71
-17.74
-10.75
-4.45
0.85
5.14
8.56
11.24
13.22
14.51
15.19
15.42
15.48
15.62
16.03
16.83
17.99
19.43
21.01
22.58
24.03
25.26
26.21
26.84
27.06
26.77
25.93
24.55
22.74
20.73
18.71
16.84
15.07
13.23
11.09
8.47
5.36
1.88
-1.73
-5.20
-8.29
-10.83
-12.76
-14.14
-15.26
-16.49
-18.25
-20.81
-24.20
-28.08
-31.91
-35.02
-36.81
-36.88
-35.08
-31.51
-26.55
-20.73
-14.65
-8.83
-3.64
0.75
4.25
6.93
8.85
10.09
10.76
11.01
10.96
10.71
10.35
9.97
9.76
9.85
10.37
11.28
12.44
13.66
14.71
15.47
15.81
15.69
15.06
13.91
12.32
10.37
8.19
5.92
3.67
1.52
-0.51
-2.46
-4.45
-6.61
-9.01
-11.58
-14.08
-16.25
-17.91
-19.08
-20.07
-21.27
-23.14
-25.96
-29.74
-34.19
-38.66
-42.35
-44.39
-44.15
-41.40
-36.40
-29.83
-22.55
-15.39
-8.94
-3.48
0.92
4.42
7.24
9.62
11.75
13.69
15.37
16.63
17.27
17.28
16.80
16.17
15.70
15.63
16.00
16.68
17.47
18.14
18.55
18.55
18.08
17.09
15.56
13.58
11.32
8.95
6.67
4.59
2.67
0.79
-1.24
-3.51
-6.02
-8.63
-11.16
-13.55
-15.85
-18.28
-21.03
-24.10
-27.22
-29.84
-31.24
-30.85
-28.42
-24.14
-18.56
-12.43
-6.42
-1.00
3.65
7.55
10.80
13.45
15.53
16.97
17.78
18.05
17.95
17.77
17.71
17.90
18.38
19.08
19.91
20.76
21.58
22.30
22.84
23.08
22.89
22.14
20.77
18.81
16.44
13.91
11.50
9.40
7.64
6.08
4.41
2.38
-0.16
-3.13
-6.25
-9.21
-11.78
-13.93
-15.83
-17.80
-20.19
-23.21
-26.88
-30.96
-34.89
-37.90
-39.22
-38.27
-34.85
-29.33
-22.44
-15.14
-8.26
-2.33
2.50
6.28
9.18
11.30
12.67
13.39
13.66
13.80
14.15
14.94
16.15
17.54
18.75
19.49
19.66
19.33
18.73
18.05
17.44
16.94
16.47
15.90
15.06
13.85
12.26
10.43
8.55
6.74
4.98
3.07
0.76
-2.08
-5.37
-8.81
-12.02
-14.72
-16.88
-18.70
-20.54
-22.76
-25.63
-29.27
-33.61
-38.29
-42.71
-46.08
-47.59
-46.67
-43.24
-37.70
-30.89
-23.77
-17.08
-11.22
-6.28
-2.13
1.32
4.12
6.24
7.73
8.71
9.37
9.95
10.65
11.55
12.72
14.12
15.67
17.24
18.63
19.64
20.14
20.08
19.54
18.63
17.51
16.28
15.02
13.76
12.44
11.01
9.38
7.53
5.49
3.34
1.18
-0.93
-3.00
-5.18
-7.64
-10.58
-14.12
-18.29
-22.93
-27.70
-31.97
-35.01
-36.08
-34.70
-30.89
-25.13
-18.22
-11.06
-4.33
1.65
6.84
11.32
15.15
18.25
20.45
21.69
22.05
21.82
21.39
21.09
21.15
21.63
22.44
23.46
24.58
25.71
26.80
27.77
28.51
28.84
28.59
27.61
25.90
23.54
20.78
17.86
14.97
12.18
9.45
6.72
3.93
1.08
-1.78
-4.62
-7.41
-10.12
-12.69
-15.11
-17.50
-20.10
-23.22
-27.09
-31.57
-36.11
-39.81
-41.71
-41.11
-37.75
-31.92
-24.38
-16.03
-7.81
-0.45
5.58
10.20
13.55
15.91
17.58
18.75
19.49
19.86
20.02
20.19
20.59
21.37
22.44
23.55
24.40
24.83
24.85
24.65
24.44
24.36
24.31
24.03
23.24
21.72
19.48
16.76
13.90
11.26
8.97
7.03
5.22
3.32
1.14
-1.31
-3.94
-6.58
-9.16
-11.72
-14.37
-17.33
-20.75
-24.75
-29.37
-34.55
-40.01
-45.24
-49.48
-51.83
-51.54
-48.27
-42.31
-34.47
-25.82
-17.32
-9.62
-3.00
2.57
7.14
10.75
13.37
15.02
15.87
16.20
16.32
16.47
16.79
17.24
17.74
18.20
18.56
18.85
19.10
19.29
19.34
19.12
18.42
17.11
15.13
12.57
9.69
6.87
4.48
2.74
1.58
0.68
-0.37
-1.93
-4.10
-6.73
-9.44
-11.88
-13.84
-15.41
-16.86
-18.54
-20.75
-23.68
-27.34
-31.53
-35.82
-39.51
-41.73
-41.66
-38.76
-33.05
-25.17
-16.20
-7.31
0.59
7.08
12.15
16.02
18.96
21.09
22.50
23.25
23.51
23.55
23.69
24.18
25.14
26.47
27.90
29.08
29.72
29.71
29.16
28.39
27.60
26.85
25.95
24.61
22.64
20.10
17.26
14.50
12.02
9.82
7.72
5.51
3.09
0.48
-2.14
-4.61
-6.82
-8.80
-10.67
-12.66
-15.02
-18.00
-21.77
-26.33
-31.47
-36.70
-41.24
-44.22
-44.84
-42.66
-37.80
-30.90
-22.98
-15.07
-7.91
-1.76
3.48
8.08
12.26
16.01
19.20
21.69
23.44
24.60
25.38
25.99
26.50
26.91
27.13
27.14
26.98
26.76
26.62
26.57
26.53
26.28
25.56
24.21
22.22
19.76
17.11
14.59
12.36
10.44
8.67
6.87
4.87
2.59
0.04
-2.70
-5.50
-8.27
-10.91
-13.39
-15.78
-18.21
-20.92
-24.15
-28.08
-32.61
-37.36
-41.59
-44.37
-44.86
-42.63
-37.82
-31.19
-23.85
-16.87
-11.00
-6.46
-3.11
-0.55
1.52
3.32
4.86
6.16
7.23
8.14
9.01
9.95
10.98
12.04
13.00
13.70
14.08
14.17
14.09
14.07
14.27
14.71
15.24
15.59
15.46
14.70
13.36
11.65
9.85
8.16
6.57
4.98
3.21
1.15
-1.17
-3.54
-5.70
-7.44
-8.72
-9.67
-10.58
-11.84
-13.80
-16.72
-20.69
-25.50
-30.59
-35.14
-38.16
-38.84
-36.78
-32.17
-25.79
-18.70
-11.91
-6.10
-1.43
2.27
5.29
7.82
9.84
11.23
11.91
12.00
11.86
11.92
12.54
13.83
15.57
17.39
18.99
20.18
21.09
21.89
22.72
23.52
24.04
23.92
22.95
21.15
18.82
16.42
14.31
12.67
11.39
10.14
8.58
6.49
3.80
0.58
-2.96
-6.68
-10.41
-14.03
-17.46
-20.72
-23.92
-27.30
-31.12
-35.44
-40.02
-44.26
-47.32
-48.36
-46.86
-42.73
-36.40
-28.59
-20.18
-11.96
-4.53
1.71
6.57
10.04
12.25
13.43
13.91
13.96
13.78
13.45
13.02
12.54
12.14
11.97
12.13
12.64
13.39
14.22
14.97
15.55
15.91
16.03
15.82
15.12
13.78
11.72
9.05
6.02
2.99
0.25
-2.04
-3.88
-5.44
-6.97
-8.72
-10.96
-13.84
-17.41
-21.53
-25.82
-29.70
-32.37
-33.13
-31.50
-27.41
-21.28
-13.86
-6.07
1.28
7.61
12.65
16.37
18.92
20.46
21.15
21.20
20.81
20.24
19.68
19.32
19.26
19.54
20.12
20.84
21.51
21.85
21.65
20.82
19.42
17.66
15.80
14.04
12.46
10.97
9.35
7.34
4.84
1.90
-1.22
-4.19
-6.76
-8.88
-10.74
-12.74
-15.21
-18.39
-22.31
-26.83
-31.62
-36.21
-39.95
-42.10
-41.95
-39.13
-33.76
-26.57
-18.64
-11.08
-4.66
0.37
4.22
7.40
10.31
13.19
15.94
18.39
20.31
21.60
22.29
22.50
22.39
22.13
21.87
21.78
21.97
22.49
23.29
24.16
24.83
25.02
24.55
23.36
21.52
19.20
16.57
13.80
10.97
8.15
5.32
2.42
-0.59
-3.71
-6.91
-10.15
-13.38
-16.62
-19.97
-23.62
-27.76
-32.49
-37.57
-42.42
-46.13
-47.71
-46.44
-42.17
-35.43
-27.26
-18.86
-11.23
-4.86
0.18
4.18
7.44
10.16
12.38
14.07
15.18
15.77
15.96
15.94
15.88
15.93
16.21
16.76
17.59
18.61
19.68
20.58
21.12
21.18
20.75
19.88
18.60
17.01
15.09
12.86
10.32
7.50
4.45
1.24
-2.00
-5.14
-8.01
-10.50
-12.60
-14.52
-16.61
-19.29
-22.88
-27.40
-32.48
-37.38
-41.17
-42.91
-42.06
-38.57
-32.97
-26.14
-19.04
-12.36
-6.43
-1.21
3.47
7.77
11.69
15.10
17.83
19.75
20.81
21.08
20.68
19.88
19.00
18.37
18.29
18.82
19.82
20.96
21.88
22.28
22.05
21.21
19.91
18.28
16.42
14.32
11.96
9.30
6.35
3.18
-0.08
-3.24
-6.16
-8.74
-10.95
-12.96
-15.03
-17.56
-20.88
-25.09
-29.91
-34.66
-38.31
-39.90
-38.73
-34.73
-28.39
-20.66
-12.58
-4.94
1.80
7.58
12.52
16.71
20.12
22.63
24.19
24.83
24.79
24.44
24.10
23.97
24.06
24.25
24.44
24.59
24.76
25.07
25.61
26.33
27.09
27.63
27.65
26.97
25.51
23.40
20.87
18.20
15.55
12.98
10.43
7.70
4.59
1.03
-2.92
-7.00
-10.85
-14.16
-16.84
-18.97
-20.92
-23.18
-26.20
-30.24
-35.17
-40.43
-45.10
-48.13
-48.66
-46.25
-41.11
-33.97
-25.88
-17.85
-10.59
-4.40
0.71
4.91
8.35
11.18
13.50
15.43
17.16
18.81
20.45
22.08
23.56
24.79
25.68
26.25
26.54
26.66
26.69
26.63
26.46
26.08
25.35
24.16
22.47
20.28
17.74
15.02
12.31
9.73
7.36
5.20
3.19
1.23
-0.79
-2.95
-5.28
-7.72
-10.22
-12.64
-14.91
-16.92
-18.68
-20.32
-22.10
-24.41
-27.60
-31.87
-37.00
-42.39
-47.06
-49.91
-50.08
-47.15
-41.37
-33.49
-24.58
-15.71
-7.66
-0.84
4.68
9.04
12.45
15.10
17.17
18.75
19.91
20.65
20.93
20.70
19.95
18.83
17.54
16.39
15.57
15.19
15.18
15.36
15.48
15.33
14.80
13.85
12.54
10.99
9.29
7.51
5.69
3.86
2.01
0.15
-1.74
-3.69
-5.65
-7.58
-9.38
-11.05
-12.65
-14.40
-16.60
-19.54
-23.28
-27.51
-31.56
-34.50
-35.43
-33.79
-29.53
-23.19
-15.70
-8.04
-0.98
5.08
10.10
14.22
17.61
20.34
22.40
23.78
24.49
24.69
24.58
24.45
24.60
25.19
26.22
27.49
28.66
29.42
29.56
29.10
28.21
27.16
26.07
24.98
23.75
22.24
20.42
18.35
16.16
13.98
11.85
9.73
7.62
5.54
3.55
1.72
0.07
-1.46
-3.04
-4.85
-7.05
-9.72
-12.80
-16.12
-19.51
-22.90
-26.40
-30.28
-34.80
-39.97
-45.33
-49.94
-52.61
-52.31
-48.59
-41.78
-32.86
-23.17
-13.92
-5.92
0.51
5.49
9.30
12.21
14.42
16.06
17.22
18.01
18.59
19.07
19.55
20.04
20.49
20.91
21.35
21.91
22.63
23.50
24.34
24.92
25.06
24.71
23.96
22.97
21.83
20.48
18.84
16.83
14.55
12.24
10.19
8.52
7.16
5.83
4.14
1.84
-1.12
-4.54
-8.12
-11.56
-14.71
-17.58
-20.33
-23.17
-26.31
-29.95
-34.21
-39.08
-44.32
-49.37
-53.39
-55.45
-54.81
-51.21
-44.96
-36.96
-28.39
-20.31
-13.36
-7.61
-2.63
2.25
7.59
13.56
19.84
25.80
30.68
33.92
35.29
34.97
33.35
30.92
28.08
25.11
22.20
19.48
17.04
15.02
13.49
12.51
11.93
11.49
10.85
9.72
8.01
5.85
3.57
1.46
-0.28
-1.67
-2.84
-3.98
-5.22
-6.59
-8.09
-9.70
-11.40
-13.15
-14.91
-16.65
-18.38
-20.21
-22.27
-24.71
-27.58
-30.86
-34.32
-37.60
-40.21
-41.62
-41.34
-39.06
-34.76
-28.76
-21.68
-14.25
-7.20
-1.04
3.97
7.85
10.80
13.01
14.64
15.69
16.16
16.13
15.83
15.59
15.76
16.49
17.72
19.15
20.40
21.21
21.49
21.37
21.04
20.60
20.07
19.35
18.33
16.96
15.32
13.58
11.90
10.34
8.85
7.24
5.41
3.31
1.03
-1.27
-3.45
-5.48
-7.42
-9.45
-11.66
-14.07
-16.62
-19.19
-21.75
-24.42
-27.33
-30.51
-33.73
-36.44
-37.86
-37.28
-34.31
-29.14
-22.41
-15.05
-7.98
-1.82
3.25
7.40
10.95
14.23
17.32
20.07
22.22
23.54
23.97
23.66
22.92
22.07
21.43
21.16
21.32
21.88
22.73
23.69
24.53
25.02
24.96
24.32
23.17
21.66
19.99
18.29
16.62
14.94
13.15
11.16
8.95
6.61
4.28
2.10
0.07
-1.90
-3.93
-6.07
-8.30
-10.49
-12.56
-14.52
-16.47
-18.66
-21.31
-24.63
-28.71
-33.45
-38.48
-43.10
-46.38
-47.44
-45.78
-41.46
-35.16
-27.86
-20.50
-13.68
-7.61
-2.24
2.50
6.60
9.93
12.38
13.99
14.95
15.60
16.19
16.89
17.67
18.45
19.10
19.61
20.02
20.42
20.83
21.20
21.35
21.11
20.33
18.99
17.19
15.12
13.05
11.16
9.58
8.29
7.18
6.05
4.79
3.33
1.70
-0.06
-1.97
-4.09
-6.46
-9.07
-11.77
-14.40
-16.82
-19.04
-21.23
-23.69
-26.71
-30.47
-34.93
-39.74
-44.37
-48.01
-49.86
-49.33
-46.20
-40.82
-33.98
-26.69
-19.77
-13.72
-8.59
-4.21
-0.31
3.18
6.18
8.54
10.22
11.33
12.12
12.87
13.75
14.79
15.93
17.11
18.37
19.78
21.36
22.98
24.33
25.05
24.86
23.70
21.80
19.51
17.22
15.10
13.13
11.17
9.08
6.81
4.43
2.06
-0.22
-2.36
-4.39
-6.31
-8.11
-9.82
-11.57
-13.56
-16.09
-19.41
-23.59
-28.35
-33.07
-36.83
-38.71
-38.01
-34.47
-28.42
-20.68
-12.35
-4.45
2.33
7.76
11.98
15.29
17.94
20.02
21.51
22.38
22.68
22.56
22.16
21.66
21.20
20.88
20.79
20.97
21.38
21.89
22.35
22.67
22.81
22.75
22.44
21.74
20.53
18.72
16.42
13.92
11.55
9.61
8.19
7.17
6.26
5.15
3.54
1.27
-1.60
-4.83
-8.09
-11.08
-13.65
-15.88
-18.01
-20.38
-23.22
-26.68
-30.79
-35.39
-40.13
-44.41
-47.41
-48.28
-46.39
-41.60
-34.37
-25.66
-16.62
-8.27
-1.18
4.52
9.03
12.64
15.56
17.90
19.65
20.84
21.63
22.18
22.61
22.93
23.12
23.16
23.13
23.20
23.53
24.21
25.17
26.26
27.26
28.01
28.36
28.19
27.41
25.98
24.03
21.79
19.51
17.40
15.45
13.49
11.32
8.81
5.99
3.02
0.05
-2.83
-5.65
-8.53
-11.45
-14.39
-17.22
-19.88
-22.44
-25.16
-28.37
-32.31
-36.93
-41.81
-46.20
-49.22
-50.09
-48.42
-44.29
-38.26
-31.06
-23.51
-16.25
-9.63
-3.85
1.07
5.17
8.47
11.03
12.92
14.25
15.21
15.94
16.63
17.35
18.10
18.86
19.54
20.10
20.48
20.71
20.80
20.75
20.56
20.20
19.64
18.85
17.75
16.27
14.36
12.13
9.72
7.41
5.37
3.62
2.00
0.26
-1.84
-4.35
-7.14
-9.91
-12.39
-14.45
-16.14
-17.73
-19.47
-21.61
-24.33
-27.64
-31.42
-35.28
-38.62
-40.64
-40.58
-38.06
-33.13
-26.46
-19.00
-11.71
-5.28
0.03
4.27
7.66
10.44
12.76
14.65
16.14
17.25
18.08
18.76
19.43
20.18
20.97
21.71
22.30
22.71
23.01
23.29
23.64
24.03
24.34
24.40
24.13
23.45
22.39
20.99
19.31
17.43
15.38
13.22
11.00
8.68
6.20
3.45
0.40
-2.92
-6.32
-9.58
-12.48
-14.87
-16.80
-18.54
-20.47
-23.04
-26.49
-30.73
-35.28
-39.36
-42.06
-42.63
-40.71
-36.37
-30.13
-22.81
-15.29
-8.36
-2.54
1.97
5.29
7.76
9.79
11.63
13.37
14.84
15.83
16.19
16.01
15.62
15.45
15.82
16.72
17.92
19.03
19.76
20.04
20.03
19.96
19.96
19.98
19.76
19.04
17.71
15.81
13.61
11.40
9.35
7.50
5.75
3.95
1.93
-0.34
-2.81
-5.35
-7.75
-9.85
-11.58
-13.07
-14.52
-16.27
-18.66
-21.95
-26.23
-31.29
-36.61
-41.40
-44.75
-45.84
-44.24
-40.05
-33.87
-26.65
-19.34
-12.62
-6.80
-1.92
2.11
5.32
7.76
9.48
10.63
11.41
12.04
12.58
13.04
13.37
13.62
13.98
14.68
15.83
17.33
18.88
20.16
20.98
21.34
21.34
21.05
20.38
19.18
17.37
15.08
12.62
10.38
8.65
7.39
6.36
5.19
3.65
1.71
-0.43
-2.50
-4.30
-5.82
-7.28
-8.99
-11.28
-14.33
-18.15
-22.59
-27.30
-31.81
-35.51
-37.76
-37.95
-35.73
-31.13
-24.62
-17.00
-9.17
-1.92
4.30
9.30
13.11
15.83
17.52
18.24
18.11
17.32
16.15
14.86
13.65
12.66
11.97
11.63
11.63
11.94
12.41
12.84
13.01
12.75
12.10
11.17
10.16
9.20
8.25
7.14
5.60
3.46
0.75
-2.31
-5.33
-8.03
-10.24
-12.10
-13.91
-16.10
-18.99
-22.75
-27.23
-31.95
-36.11
-38.75
-39.01
-36.48
-31.33
-24.29
-16.37
-8.50
-1.33
4.89
10.12
14.36
17.56
19.64
20.61
20.62
20.05
19.30
18.71
18.46
18.59
19.04
19.74
20.55
21.34
21.94
22.24
22.20
21.85
21.29
20.59
19.72
18.53
16.88
14.63
11.79
8.48
4.92
1.37
-1.95
-4.89
-7.50
-9.97
-12.65
-15.91
-19.95
-24.71
-29.89
-34.91
-39.09
-41.76
-42.35
-40.54
-36.39
-30.36
-23.30
-16.15
-9.69
-4.34
-0.06
3.48
6.66
9.66
12.43
14.77
16.53
17.73
18.52
19.12
19.73
20.43
21.24
22.13
23.06
23.94
24.59
24.78
24.30
23.04
21.12
18.83
16.56
14.58
12.98
11.68
10.44
9.02
7.21
4.93
2.16
-1.00
-4.41
-7.89
-11.30
-14.63
-17.92
-21.37
-25.19
-29.45
-33.99
-38.32
-41.73
-43.39
-42.68
-39.33
-33.64
-26.37
-18.55
-11.12
-4.67
0.73
5.34
9.45
13.19
16.35
18.61
19.76
19.90
19.45
18.98
18.91
19.34
20.05
20.69
21.07
21.20
21.28
21.55
22.07
22.75
23.33
23.60
23.39
22.67
21.52
20.06
18.45
16.81
15.17
13.45
11.45
9.01
6.08
2.80
-0.53
-3.61
-6.29
-8.66
-10.96
-13.47
-16.34
-19.60
-23.21
-27.13
-31.34
-35.64
-39.66
-42.71
-44.01
-42.96
-39.38
-33.61
-26.41
-18.75
-11.43
-5.00
0.39
4.81
8.45
11.46
13.86
15.58
16.55
16.77
16.46
15.93
15.60
15.74
16.37
17.34
18.36
19.21
19.80
20.19
20.49
20.74
20.89
20.79
20.28
19.26
17.75
15.84
13.71
11.54
9.50
7.68
6.02
4.35
2.45
0.14
-2.54
-5.36
-7.95
-10.06
-11.66
-13.04
-14.59
-16.69
-19.51
-23.05
-27.16
-31.55
-35.87
-39.55
-41.90
-42.17
-39.86
-34.95
-28.01
-20.05
-12.12
-5.00
0.96
5.82
9.79
12.98
15.36
16.83
17.41
17.34
17.03
16.84
17.04
17.59
18.31
18.95
19.40
19.70
19.99
20.43
21.03
21.76
22.39
22.68
22.44
21.61
20.26
18.62
16.92
15.30
13.80
12.27
10.54
8.44
5.93
3.09
0.09
-2.85
-5.58
-8.08
-10.41
-12.73
-15.10
-17.56
-20.15
-22.91
-25.98
-29.40
-33.05
-36.41
-38.68
-39.04
-37.00
-32.69
-26.79
-20.27
-13.97
-8.34
-3.44
0.97
4.98
8.57
11.54
13.74
15.21
16.23
17.15
18.20
19.37
20.42
21.07
21.11
20.62
19.83
19.13
18.78
18.85
19.22
19.65
19.97
20.04
19.86
19.48
18.94
18.26
17.41
16.33
14.99
13.42
11.72
9.97
8.25
6.53
4.73
2.69
0.31
-2.42
-5.39
-8.40
-11.25
-13.87
-16.34
-18.93
-21.90
-25.45
-29.60
-34.17
-38.72
-42.64
-45.21
-45.79
-43.96
-39.76
-33.64
-26.43
-19.03
-12.19
-6.36
-1.63
2.13
5.13
7.48
9.25
10.43
11.08
11.34
11.38
11.43
11.62
12.01
12.53
13.13
13.76
14.44
15.21
16.07
16.93
17.61
17.98
17.98
17.59
16.84
15.70
14.17
12.22
9.99
7.64
5.40
3.41
1.67
0.05
-1.62
-3.49
-5.59
-7.86
-10.21
-12.53
-14.76
-16.85
-18.80
-20.65
-22.51
-24.58
-27.08
-30.19
-33.90
-37.91
-41.60
-44.20
-44.94
-43.40
-39.60
-34.00
-27.38
-20.53
-14.10
-8.47
-3.76
0.07
3.19
5.77
7.97
9.89
11.53
12.88
13.91
14.65
15.22
15.78
16.45
17.24
18.05
18.72
19.17
19.38
19.43
19.44
19.42
19.21
18.56
17.27
15.30
12.88
10.39
8.22
6.53
5.21
3.91
2.24
0.04
-2.55
-5.15
-7.37
-9.05
-10.36
-11.71
-13.54
-16.13
-19.50
-23.40
-27.41
-30.99
-33.56
-34.58
-33.66
-30.64
-25.66
-19.23
-12.07
-4.90
1.73
7.51
12.33
16.21
19.19
21.34
22.73
23.49
23.81
23.91
23.95
24.07
24.32
24.69
25.14
25.61
26.07
26.49
26.88
27.26
27.62
27.88
27.87
27.34
26.12
24.18
21.70
18.97
16.28
13.77
11.36
8.92
6.31
3.52
0.68
-2.11
-4.84
-7.56
-10.33
-13.18
-16.05
-18.86
-21.68
-24.70
-28.15
-32.17
-36.58
-40.87
-44.30
-46.13
-45.85
-43.38
-38.99
-33.27
-26.91
-20.49
-14.42
-8.92
-4.07
0.11
3.61
6.42
8.56
10.10
11.19
12.02
12.74
13.50
14.37
15.33
16.32
17.21
17.87
18.25
18.35
18.25
18.09
17.88
17.50
16.69
15.19
12.88
9.92
6.68
3.60
1.00
-1.12
-3.01
-4.98
-7.26
-9.84
-12.54
-15.15
-17.62
-19.98
-22.37
-24.80
-27.18
-29.42
-31.53
-33.69
-36.08
-38.73
-41.28
-43.08
-43.33
-41.54
-37.66
-32.18
-25.90
-19.60
-13.79
-8.64
-4.09
-0.02
3.58
6.61
8.97
10.63
11.70
12.36
12.84
13.26
13.70
14.19
14.76
15.44
16.25
17.14
17.96
18.56
18.79
18.60
18.01
17.10
16.02
14.83
13.56
12.15
10.51
8.56
6.36
4.00
1.63
-0.64
-2.82
-5.01
-7.35
-9.98
-13.03
-16.57
-20.52
-24.62
-28.37
-31.04
-31.88
-30.36
-26.38
-20.40
-13.28
-6.02
0.53
5.93
10.16
13.47
16.18
18.46
20.29
21.55
22.17
22.23
21.96
21.61
21.46
21.59
22.04
22.69
23.41
24.05
24.47
24.61
24.42
23.87
22.89
21.45
19.61
17.58
15.61
13.93
12.54
11.13
9.32
6.74
3.42
-0.32
-3.96
-7.10
-9.64
-11.80
-13.95
-16.44
-19.50
-23.22
-27.56
-32.28
-36.83
-40.40
-42.04
-41.06
-37.25
-31.08
-23.55
-15.76
-8.60
-2.46
2.74
7.26
11.38
15.16
18.44
20.96
22.51
23.04
22.67
21.75
20.68
19.81
19.34
19.30
19.57
19.98
20.44
20.89
21.32
21.66
21.76
21.40
20.38
18.63
16.35
13.91
11.69
9.99
8.77
7.76
6.52
4.67
2.06
-1.19
-4.80
-8.42
-11.84
-15.00
-18.01
-21.07
-24.49
-28.52
-33.23
-38.35
-43.23
-46.87
-48.32
-47.00
-42.90
-36.60
-29.08
-21.36
-14.24
-8.12
-3.06
1.04
4.38
7.10
9.29
11.00
12.29
13.23
13.92
14.43
14.85
15.33
16.01
17.05
18.49
20.16
21.71
22.67
22.69
21.66
19.77
17.42
14.92
12.47
10.02
7.43
4.58
1.49
-1.69
-4.70
-7.30
-9.35
-10.82
-11.82
-12.62
-13.53
-14.87
-16.92
-19.84
-23.57
-27.83
-31.99
-35.20
-36.49
-35.15
-30.94
-24.34
-16.40
-8.38
-1.34
4.21
8.31
11.35
13.77
15.82
17.57
18.97
20.00
20.75
21.34
21.82
22.19
22.43
22.57
22.76
23.15
23.82
24.70
25.60
26.31
26.64
26.51
25.87
24.68
22.96
20.80
18.41
16.07
13.94
12.05
10.16
7.94
5.09
1.54
-2.49
-6.59
-10.35
-13.48
-15.96
-17.99
-19.96
-22.26
-25.22
-28.93
-33.19
-37.52
-41.14
-43.18
-42.86
-39.79
-34.14
-26.62
-18.28
-10.16
-2.99
2.94
7.69
11.51
14.66
17.26
19.34
20.87
21.86
22.37
22.52
22.48
22.41
22.43
22.53
22.66
22.73
22.69
22.53
22.36
22.25
22.23
22.26
22.20
21.87
21.09
19.73
17.78
15.36
12.77
10.37
8.42
6.96
5.82
4.64
3.14
1.16
-1.24
-3.90
-6.69
-9.54
-12.49
-15.61
-18.99
-22.79
-27.14
-32.11
-37.55
-43.05
-47.85
-51.08
-52.01
-50.34
-46.25
-40.40
-33.64
-26.75
-20.23
-14.32
-8.98
-4.19
0.07
3.72
6.72
9.09
10.97
12.58
14.04
15.39
16.56
17.44
18.05
18.52
19.01
19.65
20.45
21.33
22.18
22.86
23.25
23.22
22.62
21.34
19.36
16.85
14.10
11.47
9.18
7.26
5.54
3.75
1.66
-0.81
-3.52
-6.25
-8.74
-10.88
-12.75
-14.60
-16.73
-19.44
-22.85
-26.93
-31.42
-35.78
-39.32
-41.26
-40.97
-38.18
-33.11
-26.41
-18.98
-11.67
-5.05
0.67
5.52
9.63
13.10
15.93
18.11
19.64
20.56
21.01
21.18
21.31
21.65
22.37
23.51
24.92
26.29
27.29
27.76
27.69
27.25
26.60
25.77
24.62
22.94
20.64
17.81
14.81
11.99
9.61
7.67
5.98
4.29
2.42
0.30
-2.00
-4.36
-6.69
-8.95
-11.09
-13.11
-15.02
-16.93
-19.07
-21.71
-25.10
-29.29
-34.01
-38.72
-42.62
-44.80
-44.59
-41.67
-36.22
-28.91
-20.70
-12.53
-5.13
1.14
6.22
10.27
13.53
16.17
18.30
20.01
21.38
22.46
23.30
23.92
24.34
24.58
24.63
24.51
24.26
23.91
23.50
23.11
22.79
22.55
22.35
22.04
21.44
20.40
18.82
16.74
14.34
11.86
9.50
7.33
5.30
3.21
0.82
-1.99
-5.20
-8.59
-11.88
-14.81
-17.27
-19.38
-21.40
-23.67
-26.46
-29.88
-33.88
-38.14
-42.17
-45.27
-46.73
-45.94
-42.64
-37.03
-29.73
-21.62
-13.61
-6.37
-0.25
4.75
8.75
11.92
14.36
16.07
17.09
17.56
17.71
17.82
18.09
18.58
19.17
19.65
19.86
19.78
19.52
19.27
19.15
19.11
18.94
18.35
17.10
15.06
12.38
9.41
6.55
4.16
2.32
0.83
-0.61
-2.29
-4.29
-6.43
-8.45
-10.17
-11.60
-13.01
-14.73
-17.06
-20.13
-23.91
-28.14
-32.41
-36.17
-38.73
-39.45
-37.88
-33.91
-27.89
-20.53
-12.70
-5.19
1.48
7.10
11.69
15.39
18.32
20.54
22.08
23.03
23.56
23.91
24.28
24.83
25.51
26.13
26.47
26.40
25.94
25.26
24.55
23.94
23.35
22.54
21.29
19.43
17.07
14.47
11.93
9.68
7.72
5.87
3.83
1.38
-1.47
-4.52
-7.44
-10.01
-12.21
-14.32
-16.77
-19.93
-23.95
-28.69
-33.78
-38.73
-42.98
-45.99
-47.24
-46.29
-43.02
-37.61
-30.74
-23.27
-16.13
-9.94
-4.91
-0.92
2.30
4.96
7.09
8.57
9.36
9.55
9.48
9.51
9.91
10.74
11.82
12.86
13.68
14.26
14.70
15.13
15.60
15.96
15.95
15.34
14.04
12.15
9.97
7.87
6.09
4.66
3.40
2.00
0.26
-1.86
-4.21
-6.53
-8.65
-10.51
-12.23
-14.04
-16.13
-18.75
-22.03
-26.05
-30.70
-35.56
-39.90
-42.78
-43.29
-40.91
-35.70
-28.36
-19.94
-11.57
-4.05
2.23
7.31
11.45
14.93
17.94
20.54
22.67
24.20
25.05
25.17
24.64
23.62
22.38
21.15
20.12
19.38
18.89
18.59
18.37
18.10
17.64
16.87
15.68
14.06
12.07
9.84
7.45
4.98
2.45
-0.10
-2.60
-5.00
-7.26
-9.41
-11.58
-13.99
-16.91
-20.53
-24.88
-29.70
-34.42
-38.16
-40.04
-39.41
-36.07
-30.40
-23.16
-15.33
-7.76
-1.01
4.67
9.29
12.91
15.58
17.36
18.28
18.50
18.26
17.88
17.66
17.81
18.33
19.10
19.93
20.59
20.96
21.01
20.78
20.30
19.60
18.65
17.39
15.68
13.42
10.56
7.17
3.49
-0.14
-3.42
-6.19
-8.52
-10.67
-13.05
-16.01
-19.75
-24.26
-29.21
-33.98
-37.72
-39.50
-38.64
-34.92
-28.68
-20.82
-12.45
-4.54
2.32
7.96
12.52
16.23
19.21
21.44
22.83
23.38
23.21
22.66
22.07
21.76
21.82
22.19
22.68
23.07
23.27
23.21
22.87
22.25
21.32
20.08
18.56
16.87
15.12
13.34
11.46
9.25
6.51
3.18
-0.59
-4.48
-8.11
-11.29
-14.10
-16.80
-19.73
-23.16
-27.15
-31.52
-35.88
-39.57
-41.84
-41.94
-39.42
-34.32
-27.24
-19.23
-11.40
-4.62
0.74
4.80
7.87
10.27
12.15
13.52
14.39
14.90
15.25
15.66
16.21
16.86
17.44
17.89
18.24
18.65
19.26
20.07
20.86
21.27
20.95
19.72
17.70
15.21
12.62
10.29
8.35
6.76
5.34
3.88
2.25
0.42
-1.55
-3.56
-5.60
-7.73
-10.07
-12.81
-16.17
-20.19
-24.76
-29.47
-33.59
-36.28
-36.78
-34.73
-30.31
-24.22
-17.44
-10.84
-4.99
-0.01
4.26
8.07
11.54
14.57
16.95
18.47
19.03
18.72
17.82
16.72
15.79
15.30
15.32
15.71
16.24
16.61
16.58
16.07
15.15
14.03
12.90
11.93
11.08
10.22
9.11
7.60
5.68
3.48
1.18
-1.02
-3.06
-5.01
-7.08
-9.53
-12.59
-16.41
-20.98
-26.05
-31.19
-35.77
-39.07
-40.44
-39.47
-36.05
-30.47
-23.33
-15.43
-7.60
-0.51
5.40
10.00
13.44
15.91
17.66
18.81
19.42
19.59
19.46
19.30
19.35
19.80
20.63
21.67
22.63
23.23
23.32
22.89
22.04
20.90
19.60
18.22
16.76
15.13
13.24
10.99
8.34
5.37
2.21
-0.91
-3.82
-6.41
-8.68
-10.75
-12.84
-15.18
-18.02
-21.52
-25.65
-30.10
-34.22
-37.13
-37.97
-36.22
-31.90
-25.67
-18.58
-11.72
-5.81
-1.00
3.03
6.73
10.37
13.83
16.67
18.51
19.25
19.23
19.11
19.48
20.56
22.19
23.86
25.11
25.70
25.75
25.54
25.26
24.96
24.39
23.27
21.41
18.86
15.96
13.15
10.83
9.19
8.16
7.46
6.70
5.60
4.02
2.05
-0.13
-2.32
-4.33
-6.12
-7.78
-9.52
-11.62
-14.34
-17.85
-22.09
-26.75
-31.28
-34.97
-37.13
-37.23
-35.12
-31.06
-25.66
-19.78
-14.20
-9.41
-5.55
-2.41
0.30
2.82
5.12
7.05
8.43
9.26
9.72
10.05
10.44
10.87
11.13
11.05
10.59
9.98
9.62
9.81
10.61
11.76
12.82
13.33
13.08
12.13
10.70
9.14
7.72
6.63
5.95
5.60
5.33
4.84
3.82
2.18
0.06
-2.22
-4.31
-6.11
-7.77
-9.68
-12.20
-15.51
-19.57
-24.08
-28.59
-32.57
-35.37
-36.43
-35.36
-32.11
-27.09
-21.02
-14.70
-8.74
-3.48
1.01
4.78
7.86
10.21
11.79
12.62
12.83
12.62
12.20
11.72
11.26
10.90
10.73
10.83
11.27
12.02
12.93
13.83
14.48
14.68
14.26
13.20
11.57
9.55
7.36
5.19
3.14
1.20
-0.76
-2.82
-5.00
-7.19
-9.26
-11.15
-12.93
-14.74
-16.89
-19.60
-23.00
-26.98
-31.13
-34.73
-36.93
-36.97
-34.39
-29.30
-22.33
-14.34
-6.30
1.13
7.55
12.82
16.90
19.78
21.42
21.88
21.34
20.15
18.70
17.41
16.54
16.24
16.48
17.12
18.01
18.98
19.94
20.84
21.64
22.28
22.68
22.70
22.23
21.18
19.61
17.67
15.59
13.58
11.73
10.00
8.19
6.07
3.52
0.49
-2.88
-6.36
-9.70
-12.73
-15.37
-17.70
-19.89
-22.16
-24.77
-27.92
-31.69
-35.91
-40.10
-43.49
-45.20
-44.52
-41.18
-35.45
-28.14
-20.30
-12.90
-6.64
-1.72
1.97
4.75
6.96
8.84
10.51
12.01
13.33
14.46
15.43
16.26
16.94
17.48
17.85
18.03
18.04
17.88
17.57
17.14
16.59
15.98
15.34
14.71
14.10
13.50
12.90
12.33
11.77
11.19
10.50
9.60
8.36
6.71
4.65
2.20
-0.56
-3.55
-6.66
-9.64
-12.29
-14.49
-16.42
-18.53
-21.40
-25.42
-30.57
-36.17
-41.15
-44.34
-44.89
-42.51
-37.62
-31.07
-23.87
-16.91
-10.76
-5.57
-1.31
2.16
4.90
6.87
8.05
8.48
8.45
8.42
8.83
9.90
11.49
13.12
14.29
14.72
14.49
14.02
13.79
14.10
14.88
15.83
16.52
16.72
16.38
15.56
14.38
12.90
11.13
9.15
7.03
4.84
2.63
0.37
-2.00
-4.52
-7.18
-9.96
-12.76
-15.48
-18.02
-20.39
-22.64
-25.02
-27.79
-31.21
-35.29
-39.66
-43.62
-46.30
-46.93
-45.13
-40.99
-35.02
-28.00
-20.67
-13.66
-7.36
-1.96
2.51
6.08
8.82
10.82
12.21
13.16
13.87
14.56
15.35
16.28
17.30
18.32
19.18
19.79
20.14
20.29
20.40
20.57
20.82
21.03
20.98
20.42
19.16
17.21
14.79
12.22
9.83
7.80
6.09
4.50
2.79
0.81
-1.44
-3.80
-6.09
-8.19
-10.09
-11.95
-14.04
-16.68
-20.12
-24.42
-29.35
-34.33
-38.56
-41.17
-41.48
-39.18
-34.42
-27.73
-19.92
-11.82
-4.20
2.43
7.79
11.84
14.74
16.70
18.03
19.00
19.83
20.69
21.62
22.60
23.54
24.40
25.14
25.73
26.13
26.31
26.23
25.94
25.55
25.17
24.77
24.24
23.38
22.02
20.21
18.18
16.24
14.64
13.37
12.20
10.74
8.62
5.69
2.01
-2.11
-6.30
-10.18
-13.51
-16.20
-18.30
-20.05
-21.82
-24.09
-27.29
-31.57
-36.67
-41.80
-45.85
-47.66
-46.55
-42.42
-35.86
-27.84
-19.40
-11.34
-4.15
1.93
6.81
10.42
12.72
13.80
13.84
13.18
12.20
11.23
10.45
9.93
9.63
9.51
9.60
9.94
10.63
11.69
13.04
14.50
15.85
16.87
17.48
17.66
17.41
16.78
15.72
14.20
12.24
9.94
7.48
5.08
2.87
0.84
-1.15
-3.30
-5.71
-8.34
-11.04
-13.65
-16.10
-18.47
-21.02
-24.03
-27.68
-31.98
-36.63
-41.12
-44.77
-46.81
-46.64
-43.97
-38.93
-32.12
-24.41
-16.69
-9.68
-3.70
1.19
5.14
8.35
10.94
13.01
14.63
15.85
16.72
17.28
17.63
17.93
18.40
19.28
20.64
22.33
23.99
25.25
25.84
25.78
25.25
24.47
23.59
22.58
21.29
19.63
17.57
15.17
12.52
9.69
6.74
3.66
0.52
-2.60
-5.62
-8.51
-11.39
-14.50
-18.14
-22.53
-27.63
-33.07
-38.06
-41.68
-43.05
-41.65
-37.46
-31.02
-23.12
-14.69
-6.48
1.01
7.57
13.11
17.66
21.26
23.96
25.85
27.05
27.68
27.87
27.73
27.36
26.86
26.33
25.84
25.48
25.24
25.12
25.08
25.06
25.00
24.74
24.09
22.88
21.06
18.74
16.18
13.67
11.35
9.20
7.03
4.60
1.78
-1.39
-4.73
-8.03
-11.17
-14.16
-17.08
-20.08
-23.30
-26.87
-30.84
-35.22
-39.76
-43.99
-47.12
-48.34
-47.04
-43.10
-36.92
-29.31
-21.18
-13.35
-6.35
-0.51
4.04
7.27
9.27
10.25
10.54
10.50
10.45
10.54
10.76
11.02
11.18
11.23
11.20
11.26
11.60
12.32
13.40
14.64
15.74
16.39
16.36
15.64
14.38
12.84
11.32
10.00
8.93
8.00
6.93
5.47
3.39
0.67
-2.55
-5.98
-9.31
-12.31
-14.91
-17.24
-19.60
-22.37
-25.86
-30.20
-35.14
-40.02
-43.88
-45.73
-44.85
-41.09
-34.89
-27.12
-18.83
-10.94
-3.99
1.78
6.43
10.10
12.89
14.86
16.00
16.41
16.25
15.83
15.49
15.48
15.92
16.66
17.42
17.88
17.89
17.48
16.85
16.13
15.36
14.41
13.03
11.06
8.44
5.36
2.12
-0.96
-3.65
-5.82
-7.48
-8.71
-9.68
-10.68
-12.06
-14.22
-17.43
-21.67
-26.56
-31.33
-35.01
-36.68
-35.76
-32.21
-26.46
-19.32
-11.64
-4.14
2.80
9.03
14.57
19.39
23.43
26.58
28.77
30.06
30.60
30.60
30.24
29.65
28.91
28.09
27.27
26.51
25.81
25.14
24.44
23.65
22.73
21.58
20.09
18.13
15.61
12.61
9.34
6.12
3.18
0.63
-1.64
-3.86
-6.31
-9.18
-12.58
-16.51
-20.96
-25.85
-31.05
-36.19
-40.60
-43.44
-43.91
-41.57
-36.54
-29.49
-21.37
-13.11
-5.36
1.61
7.70
12.87
17.08
20.29
22.54
24.05
25.12
25.98
26.72
27.27
27.51
27.41
27.09
26.81
26.81
27.23
27.94
28.65
28.96
28.55
27.27
25.17
22.50
19.58
16.66
13.89
11.24
8.61
5.89
3.05
0.12
-2.78
-5.63
-8.37
-11.05
-13.70
-16.43
-19.40
-22.85
-27.03
-31.96
-37.27
-42.10
-45.28
-45.77
-43.04
-37.36
-29.65
-21.23
-13.16
-6.03
0.15
5.67
10.80
15.59
19.78
23.03
25.11
26.11
26.41
26.47
26.65
27.02
27.43
27.55
27.21
26.49
25.72
25.26
25.32
25.78
26.23
26.17
25.27
23.48
21.05
18.30
15.46
12.62
9.74
6.72
3.54
0.23
-3.14
-6.49
-9.81
-13.08
-16.29
-19.42
-22.53
-25.77
-29.36
-33.48
-38.18
-43.23
-48.10
-52.00
-54.12
-53.85
-50.96
-45.67
-38.59
-30.51
-22.16
-14.14
-6.84
-0.44
5.00
9.49
13.04
15.71
17.58
18.76
19.41
19.69
19.74
19.73
19.75
19.91
20.29
20.94
21.82
22.80
23.66
24.18
24.22
23.74
22.82
21.56
20.05
18.33
16.39
14.21
11.75
8.98
5.90
2.54
-0.99
-4.53
-7.97
-11.23
-14.33
-17.43
-20.72
-24.39
-28.42
-32.52
-36.13
-38.41
-38.63
-36.26
-31.28
-24.19
-15.83
-7.18
0.92
7.89
13.48
17.68
20.68
22.73
24.11
25.04
25.64
25.97
26.06
25.97
25.80
25.66
25.56
25.46
25.30
25.01
24.61
24.13
23.59
22.91
22.00
20.79
19.22
17.29
15.00
12.34
9.30
5.94
2.37
-1.19
-4.50
-7.44
-9.98
-12.19
-14.23
-16.30
-18.60
-21.34
-24.69
-28.67
-33.08
-37.41
-40.92
-42.79
-42.33
-39.16
-33.40
-25.63
-16.76
-7.79
0.43
