1520873086.00
64.000000
-0.00
-0.00
-0.00
-0.00
-0.00
-0.00
-0.00
-0.00
-0.00
-0.00
0.00
0.01
0.01
-0.00
-0.03
-0.05
-0.05
0.00
0.13
0.36
0.66
1.01
1.37
1.72
2.06
2.40
2.79
3.24
3.80
4.42
5.06
5.66
6.20
6.68
7.15
7.68
8.31
9.14
10.09
11.04
11.88
12.56
13.14
13.76
14.65
15.96
17.91
20.32
22.90
25.38
27.58
29.57
31.68
34.32
37.81
42.54
48.15
54.10
59.83
64.97
69.58
74.14
79.34
85.71
93.76
103.00
112.62
121.73
129.77
136.75
143.30
150.75
157.77
166.64
177.95
191.79
206.97
220.57
228.25
225.36
208.53
176.87
132.76
80.05
23.07
-34.94
-92.44
-149.16
-205.23
-260.37
-313.74
-363.87
-409.83
-450.91
-486.50
-515.74
-537.23
-549.22
-549.96
-538.37
-514.21
-478.67
-433.88
-382.45
-327.02
-269.84
-212.63
-156.66
-102.95
-52.37
-5.90
35.58
71.43
101.35
125.50
144.38
158.69
169.15
176.37
180.75
182.57
182.07
179.51
175.23
169.65
163.18
156.15
148.81
141.30
133.69
126.02
118.33
110.69
103.16
95.80
88.68
81.83
75.25
68.95
62.95
57.25
51.86
46.78
42.03
37.59
33.45
29.61
26.07
22.81
19.83
17.11
14.67
12.48
10.54
8.83
7.35
6.07
4.97
4.05
3.27
2.62
2.09
1.65
1.30
1.01
0.79
0.62
0.48
0.38
0.31
0.26
0.23
0.22
0.22
0.23
0.26
0.29
0.32
0.36
0.40
0.44
0.49
0.54
0.58
0.64
0.69
0.75
0.81
0.88
0.96
1.04
1.13
1.23
1.34
1.47
1.61
1.77
1.95
2.15
2.37
2.62
2.89
3.19
3.52
3.88
4.28
4.71
5.18
5.68
6.22
6.80
7.43
8.09
8.80
9.56
10.36
11.21
12.10
13.04
14.02
15.08
16.19
17.37
18.60
19.88
21.16
22.41
23.52
24.42
24.98
25.08
24.60
23.46
21.61
19.01
15.76
11.89
7.59
3.04
-1.55
-5.97
-10.01
-13.49
-16.28
-18.31
-19.55
-20.05
-19.91
-19.26
-18.22
-16.89
-15.35
-13.65
-11.82
-9.92
-7.96
-6.04
-4.22
-2.54
-0.96
0.54
2.05
3.63
5.33
7.17
9.04
10.84
12.56
14.28
16.11
18.19
20.66
23.55
26.85
30.18
33.25
35.95
38.37
40.74
43.39
46.55
50.30
54.57
58.64
62.01
64.45
66.14
67.51
69.11
71.33
74.19
77.43
79.86
80.51
78.84
74.80
68.59
60.34
49.62
34.86
18.36
0.12
-20.24
-43.20
-69.16
-98.09
-129.03
-159.68
-186.47
-205.25
-213.40
-210.16
-197.31
-178.52
-157.95
-138.72
-122.11
-107.75
-94.50
-81.95
-70.07
-59.14
-49.29
-40.32
-31.94
-24.16
-17.56
-13.04
-11.78
-14.16
-19.47
-26.06
-31.74
-34.46
-32.87
-26.75
-17.05
-5.80
4.66
12.50
16.86
18.09
17.47
16.48
16.16
16.75
17.68
18.18
17.83
16.88
16.22
16.83
19.21
23.01
27.12
30.10
30.87
29.08
25.23
20.35
15.45
11.21
7.90
5.44
3.73
2.64
1.99
1.45
0.45
-1.60
-4.96
-9.30
-13.72
-17.04
-18.41
-17.73
-15.77
-13.80
-13.06
-14.12
-16.64
-19.57
-21.52
-21.45
-18.87
-14.04
-7.64
-0.59
6.24
12.11
16.44
18.82
19.13
17.61
14.98
12.31
10.76
11.20
13.85
18.21
23.22
27.69
30.74
32.07
31.92
30.88
29.53
28.29
27.25
26.34
25.50
24.77
24.30
24.13
24.14
23.91
22.92
20.78
17.46
13.30
8.87
4.81
1.52
-0.88
-2.51
-3.69
-4.82
-6.36
-8.81
-12.50
-17.45
-23.15
-28.60
-32.52
-33.79
-31.81
-26.74
-19.36
-10.80
-2.02
6.36
14.14
21.25
27.50
32.46
35.63
36.75
36.16
34.84
34.04
34.73
37.13
40.58
43.85
45.84
46.14
45.25
44.20
44.07
45.45
48.35
52.45
57.29
62.36
66.84
69.38
68.36
62.59
52.13
38.74
25.27
14.37
7.11
2.41
-2.19
-9.11
-19.26
-31.60
-43.82
-53.66
-60.02
-63.25
-64.47
-64.71
-64.33
-63.04
-60.51
-56.96
-53.27
-50.64
-50.02
-51.63
-54.78
-58.06
-59.77
-58.36
-52.84
-43.06
-29.89
-15.12
-1.14
9.83
16.46
18.73
17.85
15.56
13.31
11.80
11.05
10.90
11.51
13.38
16.94
21.98
27.43
31.67
33.26
31.68
27.67
22.75
18.51
15.87
14.75
14.26
13.27
10.91
6.88
1.47
-4.63
-10.65
-15.88
-19.75
-21.75
-21.45
-18.61
-13.30
-6.05
2.30
10.80
18.75
25.68
31.24
34.88
35.68
32.65
25.21
13.84
0.24
-13.20
-24.14
-31.21
-34.24
-34.08
-31.89
-28.59
-24.66
-20.29
-15.76
-11.56
-8.31
-6.40
-5.80
-6.00
-6.35
-6.33
-5.78
-4.97
-4.37
-4.43
-5.35
-7.05
-9.15
-11.18
-12.80
-13.90
-14.69
-15.58
-17.08
-19.53
-22.90
-26.63
-29.74
-31.03
-29.53
-24.88
-17.46
-8.38
0.92
9.13
15.43
19.63
22.02
23.08
23.17
22.50
21.09
19.06
16.68
14.41
12.73
11.98
12.18
13.03
14.08
14.91
15.31
15.30
15.02
14.60
14.06
13.28
12.14
10.60
8.69
6.53
4.20
1.76
-0.64
-2.73
-4.03
-4.02
-2.34
0.91
5.16
9.47
12.83
14.57
14.61
13.59
12.68
13.25
16.35
22.39
30.92
40.84
50.69
59.10
65.12
68.33
68.78
66.80
62.81
57.24
50.51
43.10
35.51
28.23
21.65
15.95
11.15
7.13
3.76
0.99
-1.11
-2.46
-3.01
-2.86
-2.31
-1.70
-1.32
-1.35
-1.80
-2.54
-3.35
-4.07
-4.58
-4.88
-5.08
-5.37
-5.91
-6.79
-8.05
-9.71
-11.94
-14.99
-19.15
-24.53
-30.92
-37.72
-43.94
-48.55
-50.72
-50.07
-46.76
-41.45
-35.09
-28.69
-23.14
-19.07
-16.84
-16.59
-18.20
-21.32
-25.40
-29.73
-33.61
-36.47
-38.05
-38.38
-37.73
-36.41
-34.63
-32.46
-29.96
-27.20
-24.38
-21.79
-19.73
-18.39
-17.82
-17.94
-18.62
-19.74
-21.18
-22.83
-24.58
-26.26
-27.75
-28.97
-29.99
-31.02
-32.38
-34.45
-37.48
-41.54
-46.30
-51.14
-55.10
-57.21
-56.67
-53.03
-46.33
-37.07
-26.10
-14.47
-3.27
6.59
14.48
20.12
23.52
24.90
24.59
23.03
20.76
18.37
16.52
15.70
16.13
17.68
19.91
22.24
24.18
25.46
26.02
26.03
25.66
25.03
24.11
22.77
20.84
18.28
15.17
11.77
8.41
5.36
2.77
0.62
-1.30
-3.30
-5.74
-8.91
-12.95
-17.66
-22.38
-26.16
-27.89
-26.75
-22.55
-15.82
-7.65
0.66
8.10
14.12
18.65
21.78
23.58
24.00
22.92
20.46
17.05
13.43
10.38
8.49
7.93
8.48
9.70
11.14
12.49
13.69
14.79
15.85
16.83
17.53
17.67
16.91
15.06
12.12
8.35
4.16
0.09
-3.50
-6.40
-8.67
-10.57
-12.44
-14.63
-17.37
-20.79
-24.85
-29.22
-33.32
-36.22
-36.93
-34.66
-29.13
-20.78
-10.70
-0.29
9.12
16.65
22.00
25.29
26.86
27.01
25.98
23.98
21.33
18.50
16.03
14.39
13.79
14.16
15.19
16.48
17.72
18.74
19.50
19.98
20.14
19.86
18.96
17.33
14.95
11.96
8.57
5.05
1.60
-1.65
-4.67
-7.45
-10.00
-12.28
-14.28
-16.02
-17.65
-19.47
-21.88
-25.29
-29.85
-35.27
-40.71
-44.90
-46.48
-44.46
-38.57
-29.42
-18.31
-6.83
3.59
12.00
18.02
21.71
23.42
23.55
22.56
20.82
18.73
16.62
14.81
13.51
12.89
13.02
13.88
15.39
17.32
19.39
21.29
22.75
23.61
23.80
23.31
22.12
20.23
17.64
14.47
10.85
6.97
2.92
-1.23
-5.43
-9.53
-13.26
-16.31
-18.51
-19.94
-21.03
-22.35
-24.47
-27.67
-31.73
-35.91
-39.10
-40.11
-38.04
-32.59
-24.17
-13.82
-2.92
7.27
15.84
22.39
26.92
29.59
30.63
30.21
28.52
25.90
22.87
20.07
18.04
17.17
17.46
18.70
20.51
22.50
24.37
25.93
27.00
27.35
26.78
25.18
22.62
19.40
15.95
12.62
9.58
6.76
3.95
1.03
-2.00
-4.94
-7.62
-9.93
-11.96
-13.98
-16.30
-19.16
-22.70
-26.86
-31.35
-35.57
-38.63
-39.50
-37.31
-31.73
-23.19
-12.84
-2.24
7.10
14.17
18.64
20.75
21.02
20.01
18.09
15.61
12.83
10.13
7.93
6.67
6.61
7.76
9.87
12.44
14.91
16.81
17.90
18.18
17.86
17.13
16.11
14.72
12.80
10.22
7.01
3.39
-0.26
-3.56
-6.25
-8.25
-9.65
-10.67
-11.60
-12.72
-14.31
-16.61
-19.70
-23.36
-27.04
-29.76
-30.45
-28.20
-22.77
-14.69
-5.16
4.34
12.57
18.84
23.02
25.33
26.01
25.17
22.83
19.16
14.60
9.94
6.05
3.69
3.16
4.32
6.59
9.20
11.46
12.95
13.54
13.38
12.66
11.54
10.05
8.17
5.88
3.31
0.68
-1.74
-3.71
-5.16
-6.12
-6.75
-7.23
-7.77
-8.56
-9.74
-11.47
-13.84
-16.85
-20.24
-23.45
-25.62
-25.84
-23.40
-18.16
-10.67
-1.98
6.66
14.20
20.05
24.04
26.23
26.75
25.70
23.25
19.71
15.65
11.79
8.84
7.30
7.34
8.74
10.95
13.35
15.34
16.60
17.12
17.03
16.55
15.68
14.29
12.12
9.07
5.27
1.10
-2.92
-6.36
-9.06
-11.06
-12.58
-13.82
-15.00
-16.30
-17.92
-20.02
-22.57
-25.32
-27.73
-29.09
-28.71
-26.21
-21.62
-15.42
-8.45
-1.63
4.24
8.66
11.40
12.44
11.87
9.89
6.77
2.95
-0.97
-4.37
-6.77
-8.01
-8.25
-7.85
-7.15
-6.28
-5.21
-3.84
-2.17
-0.42
1.08
1.98
2.07
1.36
0.05
-1.62
-3.39
-5.07
-6.56
-7.83
-8.91
-9.86
-10.81
-11.94
-13.34
-14.95
-16.47
-17.37
-17.03
-15.00
-11.14
-5.75
0.52
6.89
12.60
17.12
20.10
21.35
20.74
18.28
14.16
8.85
3.16
-2.04
-5.92
-8.05
-8.45
-7.62
-6.27
-5.03
-4.27
-4.01
-4.07
-4.19
-4.26
-4.30
-4.49
-5.00
-5.99
-7.51
-9.53
-11.92
-14.47
-16.95
-19.17
-21.07
-22.83
-24.82
-27.47
-31.05
-35.41
-39.92
-43.53
-45.05
-43.56
-38.77
-31.18
-21.95
-12.53
-4.28
1.93
5.76
7.35
7.03
5.21
2.32
-1.17
-4.75
-7.92
-10.33
-11.80
-12.37
-12.14
-11.25
-9.85
-8.11
-6.29
-4.67
-3.47
-2.80
-2.64
-3.00
-3.97
-5.72
-8.37
-11.87
-15.90
-19.96
-23.57
-26.53
-28.94
-31.23
-33.86
-37.20
-41.26
-45.62
-49.58
-52.28
-52.98
-51.23
-46.97
-40.52
-32.43
-23.40
-14.20
-5.54
1.95
7.78
11.71
13.75
14.16
13.40
11.99
10.48
9.40
9.14
9.97
11.92
14.81
18.29
21.95
25.46
28.61
31.30
33.46
34.94
35.54
35.15
33.80
31.73
29.31
26.91
24.71
22.59
20.17
16.95
12.57
7.04
0.93
-4.57
-7.85
-7.31
-1.94
8.23
21.87
36.71
50.15
60.05
65.29
65.95
63.00
57.80
51.71
45.76
40.73
37.18
35.51
35.83
37.88
40.93
43.95
45.87
45.84
43.53
39.18
33.56
27.63
22.29
17.99
14.63
11.57
8.01
3.33
-2.61
-9.38
-16.18
-22.24
-27.05
-30.54
-32.95
-34.65
-35.95
-36.93
-37.42
-37.02
-35.14
-31.16
-24.67
-15.69
-4.78
7.03
18.51
28.45
36.14
41.37
44.43
45.87
46.22
45.81
44.75
43.08
40.84
38.22
35.52
33.01
30.82
28.83
26.79
24.39
21.50
18.26
15.02
12.20
10.02
8.40
6.91
5.07
2.49
-0.82
-4.57
-8.28
-11.49
-13.91
-15.42
-16.04
-15.86
-15.10
-14.18
-13.70
-14.32
-16.59
-20.66
-26.11
-32.06
-37.35
-40.86
-41.90
-40.33
-36.62
-31.62
-26.29
-21.44
-17.53
-14.73
-12.93
-11.90
-11.41
-11.27
-11.31
-11.33
-11.07
-10.27
-8.67
-6.16
-2.86
0.94
4.77
8.17
10.76
12.39
13.09
12.99
12.20
10.70
8.38
5.06
0.70
-4.48
-9.95
-14.98
-18.90
-21.35
-22.40
-22.54
-22.51
-22.99
-24.50
-27.29
-31.36
-36.41
-41.75
-46.31
-48.75
-47.84
-42.85
-33.87
-21.86
-8.32
5.25
17.72
28.53
37.59
45.02
50.83
54.93
57.21
57.73
56.92
55.47
54.23
53.80
54.35
55.47
56.27
55.65
52.71
47.08
39.06
29.45
19.29
9.49
0.59
-7.26
-14.14
-20.18
-25.35
-29.47
-32.33
-33.84
-34.16
-33.58
-32.44
-30.94
-29.04
-26.62
-23.63
-20.31
-17.22
-15.19
-15.00
-17.08
-21.35
-27.26
-33.90
-40.22
-45.25
-48.14
-48.34
-45.65
-40.28
-32.85
-24.34
-15.91
-8.68
-3.57
-1.16
-1.77
-5.43
-11.91
-20.73
-31.06
-41.77
-51.48
-58.81
-62.58
-62.13
-57.41
-48.96
-37.72
-24.81
-11.33
1.76
13.60
23.46
30.82
35.44
37.47
37.45
36.17
34.46
32.92
31.80
31.03
30.26
29.15
27.44
24.95
21.56
17.13
11.52
4.70
-3.18
-11.81
-20.86
-30.23
-40.09
-50.80
-62.65
-75.38
-87.98
-98.66
-105.28
-105.84
-99.19
-85.36
-65.71
-42.61
-18.87
2.83
20.54
33.37
41.60
46.58
50.30
54.81
61.52
70.62
80.87
89.94
95.15
94.52
87.44
74.99
59.61
44.13
30.98
21.43
15.54
12.44
10.94
10.08
9.36
8.78
8.69
9.54
11.69
15.32
20.24
25.85
31.20
35.23
37.31
37.62
37.26
37.88
40.83
46.59
54.45
62.92
70.46
76.13
79.96
82.63
85.00
87.59
90.46
93.49
96.68
100.22
104.27
108.53
111.89
112.64
109.07
100.10
85.77
67.23
46.16
24.07
1.87
-20.26
-42.47
-64.80
-86.76
-107.30
-125.02
-138.61
-147.25
-150.75
-149.38
-143.51
-133.41
-119.36
-102.16
-83.57
-66.33
-53.38
-46.71
-46.51
-51.19
-58.54
-67.12
-77.13
-89.95
-106.61
-126.22
-145.45
-159.54
-164.35
-158.33
-143.28
-123.49
-103.83
-87.99
-77.45
-71.70
-69.28
-68.76
-69.34
-70.89
-73.39
-76.50
-79.31
-80.47
-78.73
-73.24
-63.97
-51.58
-37.22
-22.09
-7.14
7.04
20.11
31.68
41.10
47.61
50.60
50.08
46.84
42.29
37.98
35.12
34.21
35.12
37.34
40.21
43.14
45.59
47.02
46.97
45.26
42.13
38.25
34.51
31.65
30.01
29.47
29.60
29.93
30.06
29.71
28.56
26.12
21.76
14.97
5.64
-5.60
-17.36
-27.79
-35.12
-38.20
-36.76
-31.35
-23.12
-13.37
-3.26
6.28
14.60
21.22
25.86
28.41
28.96
27.82
25.44
22.42
19.37
16.83
15.17
14.55
14.94
16.15
17.96
20.18
22.70
25.41
28.15
30.67
32.59
33.52
33.18
31.47
28.52
24.67
20.24
15.48
10.39
4.88
-1.08
-7.36
-13.64
-19.66
-25.33
-30.81
-36.39
-42.27
-48.38
-54.30
-59.45
-63.21
-65.08
-64.63
-61.57
-55.65
-46.81
-35.30
-21.72
-7.12
7.26
19.99
29.72
35.32
36.25
32.83
26.31
18.71
12.37
9.25
10.46
15.97
24.84
35.58
46.70
56.99
65.62
72.08
76.03
77.28
75.86
72.10
66.64
60.32
53.89
47.83
42.15
36.61
30.92
25.01
19.19
13.97
9.88
7.14
5.59
4.65
3.52
1.49
-1.85
-6.40
-11.44
-15.80
-18.11
-17.25
-12.77
-5.01
4.90
15.46
25.22
33.09
38.48
41.19
41.30
38.99
34.63
28.76
22.17
15.75
10.37
6.60
4.70
4.62
6.07
8.76
12.36
16.56
21.00
25.29
29.06
32.07
34.24
35.63
36.31
36.30
35.58
34.14
32.09
29.60
26.85
23.94
20.79
17.30
13.41
9.24
5.02
0.96
-2.91
-6.78
-10.96
-15.77
-21.39
-27.88
-35.09
-42.71
-50.13
-56.46
-60.56
-61.39
-58.29
-51.32
-41.33
-29.70
-17.92
-7.21
1.70
8.61
13.62
16.90
18.66
19.11
18.55
17.45
16.36
15.86
16.31
17.84
20.29
23.39
26.79
30.25
33.51
36.40
38.70
40.24
40.90
40.59
39.39
37.43
34.93
32.14
29.31
26.64
24.22
22.05
20.02
17.96
15.69
13.04
9.95
6.47
2.74
-1.05
-4.72
-8.17
-11.45
-14.73
-18.31
-22.58
-27.89
-34.36
-41.75
-49.32
-55.84
-59.95
-60.49
-56.97
-49.72
-39.79
-28.58
-17.42
-7.24
1.47
8.55
13.97
17.75
19.93
20.69
20.37
19.52
18.78
18.75
19.85
22.18
25.53
29.47
33.47
37.14
40.25
42.78
44.77
46.26
47.17
47.35
46.67
45.09
42.71
39.73
36.42
33.01
29.69
26.51
23.47
20.49
17.47
14.30
10.92
7.29
3.43
-0.57
-4.53
-8.28
-11.74
-15.03
-18.48
-22.57
-27.72
-34.06
-41.29
-48.69
-55.20
-59.66
-61.07
-58.82
-52.92
-43.95
-33.02
-21.50
-10.62
-1.27
6.17
11.74
15.64
18.15
19.42
19.67
19.19
18.45
17.99
18.27
19.55
21.84
24.90
28.45
32.24
36.06
39.75
43.13
45.97
48.05
49.15
49.08
47.73
45.11
41.33
36.76
31.86
27.15
23.05
19.73
17.13
14.98
13.00
10.96
8.75
6.35
3.78
1.04
-1.84
-4.88
-8.10
-11.62
-15.63
-20.40
-26.08
-32.57
-39.34
-45.49
-49.84
-51.28
-49.16
-43.45
-34.83
-24.48
-13.74
-3.78
4.64
11.17
15.83
18.81
20.37
20.75
20.23
19.16
18.03
17.40
17.73
19.24
21.81
25.01
28.25
31.07
33.20
34.67
35.66
36.35
36.78
36.86
36.39
35.21
33.28
30.74
27.85
24.86
21.99
19.27
16.57
13.68
10.38
6.62
2.53
-1.56
-5.28
-8.34
-10.68
-12.49
-14.20
-16.30
-19.28
-23.39
-28.62
-34.58
-40.58
-45.71
-49.05
-49.85
-47.70
-42.67
-35.27
-26.33
-16.88
-7.92
-0.26
5.60
9.48
11.51
12.02
11.47
10.38
9.22
8.41
8.28
9.01
10.61
12.95
15.74
18.70
21.52
24.01
26.04
27.52
28.38
28.55
27.94
26.48
24.17
21.11
17.53
13.69
9.85
6.16
2.61
-0.86
-4.33
-7.80
-11.21
-14.51
-17.67
-20.79
-24.04
-27.61
-31.68
-36.29
-41.32
-46.41
-50.93
-54.10
-55.15
-53.54
-49.18
-42.48
-34.18
-25.20
-16.38
-8.36
-1.55
3.82
7.59
9.72
10.28
9.48
7.74
5.59
3.62
2.34
2.06
2.89
4.67
7.13
9.87
12.53
14.78
16.39
17.22
17.26
16.56
15.29
13.56
11.46
8.98
6.05
2.63
-1.27
-5.50
-9.85
-14.04
-17.91
-21.35
-24.40
-27.22
-30.07
-33.36
-37.43
-42.51
-48.41
-54.46
-59.54
-62.38
-61.96
-57.81
-50.26
-40.22
-29.00
-17.84
-7.81
0.41
6.53
10.50
12.51
12.92
12.23
11.06
10.09
9.96
11.09
13.59
17.22
21.45
25.66
29.38
32.32
34.42
35.64
35.91
35.07
33.01
29.83
25.92
21.94
18.62
16.55
15.98
16.80
18.59
20.81
22.92
24.46
25.14
24.77
23.29
20.71
17.11
12.59
7.19
0.94
-6.11
-13.66
-21.05
-27.20
-30.79
-30.65
-26.19
-17.63
-6.04
7.02
19.91
31.40
40.79
47.90
52.81
55.66
56.63
55.91
53.93
51.25
48.61
46.68
45.93
46.61
48.74
52.31
57.22
63.35
70.44
78.03
85.44
91.81
96.23
97.91
96.32
91.22
82.75
71.34
57.70
42.67
27.06
11.56
-3.43
-17.81
-31.77
-45.58
-59.51
-73.60
-87.70
-101.49
-114.66
-127.02
-138.60
-149.64
-160.44
-171.20
-181.69
-191.04
-197.73
-199.84
-195.74
-184.68
-167.30
-145.42
-121.59
-98.19
-76.90
-58.38
-42.58
-29.01
-17.13
-6.48
3.12
11.64
18.73
23.82
26.54
27.07
26.47
26.59
29.48
36.57
47.93
61.94
75.66
85.67
89.18
84.96
73.78
58.03
40.91
25.28
12.85
4.01
-1.71
-4.95
-5.99
-4.72
-1.03
4.64
11.15
16.91
20.46
21.15
19.23
15.68
11.69
8.19
5.61
3.97
3.11
2.84
3.18
4.31
6.62
10.42
15.66
21.67
26.97
29.57
27.44
19.26
4.90
-14.43
-36.54
-58.92
-79.43
-96.67
-109.90
-118.68
-122.52
-120.69
-112.30
-96.72
-74.05
-45.38
-12.87
20.58
51.92
78.62
98.96
112.18
118.26
117.65
111.20
100.15
86.08
70.83
56.04
42.76
31.06
20.10
8.58
-4.65
-20.02
-37.04
-54.47
-70.66
-83.86
-92.55
-95.64
-92.72
-84.27
-71.67
-56.88
-41.90
-28.08
-15.81
-4.62
6.30
17.45
28.68
39.23
48.09
54.57
58.58
60.60
61.45
61.91
62.39
62.83
62.70
61.34
58.27
53.50
47.56
41.29
35.49
30.50
26.15
21.97
17.43
12.33
6.78
1.02
-4.78
-10.79
-17.35
-24.82
-33.30
-42.54
-52.01
-61.06
-69.11
-75.82
-81.15
-85.39
-88.92
-92.00
-94.51
-95.81
-94.91
-90.82
-83.04
-71.86
-58.41
-44.42
-31.77
-22.11
-16.57
-15.70
-19.38
-26.69
-35.95
-44.79
-50.70
-51.66
-46.75
-36.38
-22.03
-5.64
10.98
26.54
40.26
51.58
60.04
65.30
67.36
66.73
64.38
61.43
58.72
56.57
54.78
52.86
50.41
47.25
43.54
39.60
35.78
32.38
29.67
27.91
27.32
27.99
29.83
32.47
35.23
37.33
38.10
37.25
35.05
32.38
30.48
30.61
33.62
39.73
48.43
58.76
69.48
79.42
87.64
93.34
95.90
94.79
89.59
80.21
66.95
50.66
32.64
14.41
-2.56
-17.16
-28.88
-37.80
-44.52
-49.95
-55.14
-60.98
-68.14
-76.89
-87.10
-98.30
-109.70
-120.45
-129.76
-137.12
-142.41
-145.86
-147.92
-149.03
-149.48
-149.23
-148.00
-145.30
-140.72
-134.06
-125.46
-115.41
-104.68
-94.14
-84.46
-75.95
-68.30
-60.70
-52.03
-41.26
-27.83
-11.89
5.70
23.65
40.65
55.63
68.07
77.93
85.44
90.87
94.37
95.99
95.78
94.00
91.18
88.08
85.47
83.96
83.83
85.01
87.16
89.77
92.22
93.82
93.95
92.08
87.95
81.54
73.08
62.92
51.52
39.45
27.44
16.36
6.95
-0.33
-5.60
-9.44
-12.72
-16.08
-19.79
-23.71
-27.55
-31.18
-34.83
-39.00
-44.17
-50.46
-57.41
-63.98
-68.80
-70.51
-68.26
-61.93
-52.20
-40.34
-27.83
-15.96
-5.63
2.72
8.96
13.05
15.01
14.89
12.92
9.61
5.76
2.38
0.42
0.55
2.98
7.45
13.33
19.75
25.87
31.02
34.72
36.71
36.94
35.54
32.84
29.37
25.76
22.61
20.34
19.04
18.44
18.01
17.17
15.49
12.82
9.35
5.49
1.72
-1.53
-4.08
-5.99
-7.61
-9.52
-12.35
-16.60
-22.40
-29.37
-36.57
-42.68
-46.35
-46.48
-42.55
-34.74
-23.88
-11.29
1.49
13.08
22.42
29.04
33.01
34.87
35.37
35.28
35.20
35.54
36.49
38.03
39.91
41.64
42.69
42.69
41.70
40.24
39.01
38.40
38.08
37.03
33.94
27.98
19.32
9.18
-0.69
-8.88
-14.87
-19.20
-22.99
-27.30
-32.67
-38.96
-45.64
-52.06
-57.69
-62.15
-65.13
-66.38
-65.79
-63.49
-60.00
-56.17
-52.89
-50.75
-49.73
-49.18
-47.97
-44.97
-39.45
-31.43
-21.65
-11.30
-1.62
6.45
12.47
16.41
18.45
18.91
18.02
16.09
13.41
10.44
7.65
5.54
4.43
4.47
5.55
7.42
9.79
12.46
15.37
18.58
22.16
26.06
30.04
33.68
36.46
37.97
37.97
36.52
33.82
30.16
25.74
20.66
14.98
8.78
2.21
-4.51
-11.21
-17.82
-24.39
-31.05
-37.96
-45.23
-52.81
-60.36
-67.23
-72.49
-75.10
-74.22
-69.44
-60.93
-49.32
-35.51
-20.44
-5.06
9.70
22.86
33.41
40.51
43.71
43.22
39.85
34.91
29.92
26.26
24.92
26.29
30.17
35.75
41.96
47.64
51.90
54.29
54.77
53.58
51.02
47.25
42.23
35.84
28.07
19.16
9.58
-0.08
-9.31
-17.76
-25.31
-31.89
-37.43
-41.81
-44.92
-46.80
-47.69
-48.06
-48.48
-49.48
-51.26
-53.52
-55.43
-55.66
-52.77
-45.56
-33.55
-17.19
2.07
22.13
40.75
56.14
67.32
74.25
77.54
78.14
76.93
74.59
71.57
68.23
65.00
62.35
60.65
60.06
60.40
61.20
62.02
62.51
62.58
62.29
61.67
60.60
58.94
56.68
54.06
51.61
49.81
48.83
48.36
47.73
46.23
43.43
39.36
34.34
28.71
22.61
15.96
8.57
0.41
-8.34
-17.27
-25.93
-33.86
-40.65
-45.90
-49.27
-50.54
-49.80
-47.39
-43.96
-40.16
-36.53
-33.37
-30.75
-28.67
-27.30
-26.98
-28.21
-31.27
-35.98
-41.50
-46.48
-49.41
-49.18
-45.43
-38.68
-30.28
-22.00
-15.64
-12.57
-13.40
-17.72
-24.21
-30.89
-35.72
-37.25
-35.02
-29.67
-22.70
-15.83
-10.50
-7.54
-7.12
-8.95
-12.44
-16.94
-21.78
-26.42
-30.51
-34.11
-37.61
-41.64
-46.71
-52.83
-59.32
-64.86
-67.88
-67.05
-61.79
-52.42
-40.14
-26.71
-13.99
-3.53
3.73
7.57
8.35
6.87
4.01
0.64
-2.51
-4.86
-5.94
-5.44
-3.19
0.70
5.88
11.76
17.66
22.91
26.96
29.48
30.33
29.52
27.15
23.44
18.65
13.07
7.10
1.12
-4.51
-9.52
-13.79
-17.29
-20.00
-21.79
-22.48
-21.87
-20.01
-17.37
-14.81
-13.30
-13.49
-15.22
-17.52
-18.86
-17.81
-13.64
-6.67
1.92
10.58
17.98
23.39
26.74
28.39
28.78
28.19
26.74
24.55
21.83
19.06
16.81
15.55
15.42
16.22
17.50
18.82
20.01
21.15
22.47
24.19
26.26
28.42
30.26
31.39
31.58
30.82
29.36
27.65
26.22
25.47
25.63
26.51
27.63
28.29
27.74
25.41
21.00
14.51
6.26
-3.10
-12.69
-21.54
-28.77
-33.84
-36.63
-37.49
-37.05
-36.12
-35.42
-35.48
-36.61
-38.89
-42.23
-46.39
-50.98
-55.45
-59.04
-60.97
-60.49
-57.17
-50.98
-42.35
-31.98
-20.68
-9.12
2.18
12.91
22.89
32.04
40.33
47.73
54.16
59.44
63.41
66.04
67.57
68.47
69.29
70.35
71.52
72.20
71.42
68.17
61.73
52.01
39.58
25.65
11.87
-0.04
-8.74
-13.50
-14.37
-12.06
-7.66
-2.34
2.90
7.22
10.08
11.12
10.29
7.86
4.40
0.63
-2.69
-5.00
-5.97
-5.58
-4.05
-1.80
0.61
2.59
3.65
3.48
2.11
-0.18
-2.92
-5.70
-8.33
-10.93
-13.77
-17.04
-20.64
-24.08
-26.65
-27.78
-27.32
-25.83
-24.47
-24.76
-28.13
-35.52
-47.02
-61.73
-77.75
-92.47
-103.03
-106.91
-102.54
-89.81
-70.21
-46.51
-22.07
0.06
17.86
30.71
39.09
44.01
46.36
46.60
44.86
41.32
36.53
31.54
27.50
25.21
24.65
25.01
24.99
23.40
19.53
13.43
5.75
-2.46
-10.11
-16.20
-20.03
-21.38
-20.70
-19.14
-18.42
-20.30
-26.08
-36.06
-49.38
-64.29
-78.68
-90.70
-99.11
-103.19
-102.48
-96.52
-84.79
-67.07
-43.84
-16.58
12.31
40.02
63.96
82.34
94.49
100.73
101.97
99.20
93.16
84.23
72.52
58.25
42.12
25.45
10.04
-2.44
-11.09
-16.32
-19.74
-23.49
-29.26
-37.41
-46.84
-55.45
-61.18
-62.85
-60.60
-55.86
-51.04
-49.13
-52.98
-64.33
-82.63
-104.33
-123.13
-131.86
-125.06
-101.38
-64.46
-21.55
19.25
51.98
74.39
87.64
94.58
97.81
98.55
96.67
91.57
83.06
71.83
59.28
46.89
35.56
25.31
15.45
5.13
-5.98
-17.23
-27.04
-33.52
-35.36
-32.52
-26.36
-19.10
-12.85
-8.87
-7.29
-7.37
-8.24
-9.45
-11.35
-14.98
-21.61
-32.20
-46.86
-64.61
-83.54
-101.29
-115.81
-126.05
-132.39
-136.34
-139.92
-144.78
-151.73
-160.50
-170.02
-178.71
-184.63
-185.70
-179.90
-165.72
-142.61
-111.23
-73.12
-30.00
16.99
67.48
121.29
177.27
232.29
281.13
317.67
336.93
337.09
320.33
292.22
259.69
228.68
202.37
180.88
162.17
143.76
124.12
103.28
82.37
62.79
45.29
29.76
15.49
1.87
-11.11
-22.76
-32.06
-38.13
-40.66
-40.04
-37.27
-33.60
-30.19
-27.72
-26.10
-24.19
-19.96
-10.83
5.50
30.17
62.31
98.56
133.53
160.95
175.58
174.79
159.55
133.91
103.47
73.47
47.28
25.99
9.11
-4.39
-15.22
-23.60
-29.62
-33.61
-36.22
-38.11
-39.68
-40.93
-41.79
-42.36
-43.11
-44.58
-47.03
-50.09
-52.91
-54.47
-54.13
-51.92
-48.56
-45.10
-42.59
-41.85
-43.34
-47.05
-52.30
-57.54
-60.38
-58.22
-49.38
-34.20
-15.35
2.89
16.46
23.40
24.78
24.06
25.21
30.55
39.55
49.26
56.04
57.54
53.80
46.96
39.79
34.18
30.25
26.74
22.09
15.59
7.84
0.38
-5.32
-8.78
-10.90
-13.49
-18.47
-26.91
-38.62
-52.27
-65.96
-77.87
-86.78
-92.17
-94.10
-92.94
-89.10
-82.96
-75.02
-66.07
-57.33
-50.17
-45.65
-43.94
-44.02
-43.86
-41.31
-35.09
-25.58
-14.97
-6.51
-3.36
-7.40
-18.59
-35.02
-53.51
-70.51
-82.90
-88.51
-86.42
-77.01
-61.77
-43.07
-23.71
-6.37
6.96
15.36
19.02
19.17
17.49
15.67
14.94
15.80
18.24
21.92
26.50
31.76
37.62
43.92
50.29
56.21
61.08
64.43
65.98
65.69
63.61
59.86
54.58
48.02
40.64
33.02
25.85
19.68
14.80
11.15
8.37
5.97
3.47
0.56
-2.88
-6.82
-11.26
-16.26
-22.03
-28.81
-36.64
-45.09
-53.09
-59.09
-61.36
-58.65
-50.68
-38.34
-23.43
-8.12
5.77
17.13
25.64
31.49
35.00
36.41
35.94
33.92
30.97
27.93
25.60
24.53
24.82
26.16
28.07
30.06
31.83
33.26
34.26
34.78
34.67
33.81
32.10
29.62
26.57
23.21
19.79
16.40
12.96
9.31
5.27
0.81
-3.94
-8.68
-13.09
-16.91
-20.10
-22.91
-25.75
-29.23
-33.83
-39.75
-46.65
-53.58
-59.09
-61.56
-59.72
-53.06
-42.10
-28.26
-13.44
0.50
12.23
21.15
27.29
31.07
32.93
33.21
32.16
30.06
27.41
24.88
23.17
22.77
23.73
25.63
27.80
29.53
30.46
30.56
30.15
29.60
29.09
28.47
27.36
25.27
21.95
17.46
12.24
6.91
2.04
-2.04
-5.32
-8.09
-10.82
-14.01
-18.07
-23.23
-29.38
-35.96
-41.96
-46.05
-46.95
-43.78
-36.39
-25.46
-12.31
1.49
14.53
25.76
34.66
41.10
45.19
47.20
47.50
46.56
44.98
43.38
42.38
42.49
43.96
46.80
50.70
55.16
59.59
63.43
66.36
68.22
69.00
68.69
67.23
64.49
60.32
54.76
48.05
40.64
33.05
25.71
18.81
12.35
6.11
-0.23
-6.96
-14.25
-22.08
-30.06
-37.49
-43.39
-46.69
-46.57
-42.68
-35.37
-25.57
-14.57
-3.68
6.01
13.75
19.17
22.08
22.53
20.73
17.09
12.29
7.14
2.47
-1.08
-3.19
-3.93
-3.63
-2.76
-1.77
-0.99
-0.64
-0.77
-1.44
-2.61
-4.28
-6.40
-8.98
-12.03
-15.55
-19.50
-23.68
-27.77
-31.42
-34.41
-36.81
-38.99
-41.52
-44.93
-49.45
-54.94
-60.78
-66.03
-69.56
-70.33
-67.64
-61.38
-52.18
-41.31
-30.25
-20.36
-12.49
-6.82
-3.10
-0.89
0.19
0.37
-0.31
-1.79
-3.98
-6.67
-9.52
-12.07
-13.77
-14.21
-13.20
-10.99
-8.22
-5.72
-4.31
-4.50
-6.39
-9.72
-14.03
-18.78
-23.51
-27.80
-31.31
-33.80
-35.14
-35.46
-35.16
-34.84
-35.18
-36.79
-39.98
-44.73
-50.67
-57.21
-63.55
-68.75
-71.83
-71.88
-68.26
-60.81
-50.00
-36.92
-23.05
-9.87
1.51
10.52
17.14
21.73
24.73
26.54
27.38
27.47
27.03
26.42
26.08
26.41
27.61
29.63
32.10
34.55
36.52
37.70
38.06
37.73
36.95
35.87
34.54
32.83
30.51
27.40
23.44
18.73
13.46
7.92
2.37
-2.98
-7.94
-12.40
-16.35
-19.96
-23.64
-27.96
-33.51
-40.52
-48.63
-56.68
-62.91
-65.45
-62.87
-54.81
-42.07
-26.53
-10.52
3.76
14.81
22.09
25.89
27.09
26.77
25.93
25.33
25.41
26.27
27.68
29.20
30.26
30.48
29.73
28.32
26.85
25.97
26.14
27.42
29.45
31.50
32.78
32.57
30.46
26.36
20.52
13.43
5.68
-2.10
-9.36
-15.64
-20.69
-24.56
-27.66
-30.61
-34.22
-39.10
-45.55
-53.39
-61.91
-70.00
-76.36
-79.66
-78.93
-73.74
-64.38
-51.86
-37.60
-23.08
-9.53
2.30
12.11
19.82
25.42
28.85
30.13
29.51
27.53
25.01
22.80
21.57
21.55
22.62
24.38
26.41
28.44
30.38
32.15
33.60
34.41
34.19
32.66
29.87
26.23
22.37
18.98
16.51
15.08
14.45
14.14
13.57
12.26
9.93
6.54
2.25
-2.68
-7.96
-13.48
-19.34
-25.86
-33.45
-42.32
-52.23
-62.29
-71.05
-76.72
-77.75
-73.25
-63.33
-49.10
-32.40
-15.25
0.55
13.77
23.88
30.89
35.15
37.16
37.44
36.51
35.00
33.55
32.81
33.22
34.90
37.57
40.63
43.44
45.46
46.46
46.51
45.86
44.78
43.42
41.75
39.53
36.52
32.52
27.48
21.52
14.90
7.89
0.72
-6.45
-13.50
-20.33
-26.78
-32.64
-37.63
-41.59
-44.48
-46.49
-48.01
-49.47
-51.28
-53.72
-56.94
-60.90
-65.36
-69.74
-73.08
-74.22
-72.03
-65.79
-55.50
-41.91
-26.37
-10.41
4.51
17.29
27.20
33.92
37.48
38.29
37.17
35.23
33.73
33.77
35.98
40.35
46.29
52.79
58.77
63.33
65.92
66.42
65.03
62.14
58.26
53.90
49.47
45.17
40.99
36.70
32.00
26.65
20.60
13.93
6.91
-0.18
-7.03
-13.37
-19.04
-24.00
-28.34
-32.23
-35.89
-39.54
-43.40
-47.63
-52.27
-57.19
-61.95
-65.84
-67.99
-67.63
-64.35
-58.28
-50.00
-40.40
-30.28
-20.20
-10.39
-0.88
8.21
16.56
23.68
29.10
32.64
34.62
35.77
37.05
39.20
42.53
46.89
51.76
56.61
60.98
64.55
67.05
68.17
67.63
65.32
61.42
56.43
51.02
45.74
40.87
36.33
31.85
27.14
22.12
16.94
11.87
7.12
2.79
-1.22
-5.17
-9.35
-14.00
-19.24
-24.93
-30.63
-35.58
-38.84
-39.56
-37.20
-31.83
-24.08
-15.01
-5.77
2.62
9.51
14.57
17.74
19.10
18.85
17.31
14.89
12.11
9.58
7.89
7.53
8.72
11.34
14.96
18.90
22.49
25.28
27.18
28.35
29.13
29.66
29.87
29.47
28.06
25.35
21.28
15.98
9.75
2.98
-3.89
-10.42
-16.21
-21.02
-24.79
-27.69
-30.09
-32.46
-35.18
-38.45
-42.03
-45.36
-47.59
-47.86
-45.57
-40.64
-33.58
-25.33
-16.93
-9.23
-2.62
2.99
8.02
12.94
18.04
23.28
28.35
32.81
36.40
39.08
41.06
42.55
43.63
44.13
43.77
42.40
40.07
37.08
33.87
30.81
28.19
26.21
25.11
25.10
26.31
28.58
31.43
34.12
35.95
36.47
35.64
33.80
31.46
29.06
26.89
24.93
23.02
20.88
18.26
15.05
11.38
7.64
4.47
2.62
2.76
5.23
9.95
16.43
23.89
31.48
38.39
44.02
47.97
49.97
49.91
47.83
43.93
38.64
32.57
26.46
20.98
16.58
13.34
11.01
9.13
7.20
4.89
2.11
-1.01
-4.10
-6.72
-8.39
-8.69
-7.46
-4.86
-1.46
1.87
4.19
4.80
3.44
0.28
-4.20
-9.47
-15.11
-20.83
-26.50
-32.02
-37.35
-42.47
-47.30
-51.61
-54.91
-56.47
-55.56
-51.71
-45.06
-36.33
-26.66
-17.23
-8.90
-2.15
2.90
6.30
8.10
8.45
7.62
6.13
4.72
4.08
4.66
6.49
9.15
12.02
14.47
16.12
16.85
16.77
16.08
14.97
13.57
11.95
10.17
8.19
5.98
3.47
0.66
-2.33
-5.32
-8.09
-10.51
-12.56
-14.37
-16.17
-18.25
-20.84
-24.07
-27.85
-31.84
-35.34
-37.49
-37.42
-34.59
-28.92
-20.88
-11.35
-1.32
8.27
16.73
23.60
28.57
31.47
32.25
31.07
28.36
24.83
21.34
18.64
17.23
17.18
18.20
19.74
21.27
22.37
22.87
22.79
22.26
21.45
20.47
19.30
17.81
15.76
12.89
9.09
4.45
-0.71
-5.96
-10.88
-15.26
-19.10
-22.64
-26.23
-30.24
-34.85
-39.91
-44.88
-48.85
-50.78
-49.82
-45.65
-38.65
-29.76
-20.27
-11.39
-4.02
1.38
4.76
6.29
6.24
4.95
2.77
0.12
-2.51
-4.62
-5.79
-5.78
-4.66
-2.76
-0.58
1.35
2.67
3.25
3.13
2.44
1.26
-0.40
-2.55
-5.14
-8.04
-11.05
-13.94
-16.60
-19.01
-21.29
-23.67
-26.32
-29.36
-32.85
-36.77
-41.10
-45.70
-50.32
-54.41
-57.12
-57.46
-54.71
-48.67
-39.90
-29.57
-19.03
-9.45
-1.49
4.67
9.10
11.94
13.30
13.35
12.41
10.97
9.59
8.69
8.46
8.89
9.82
11.08
12.50
13.88
15.02
15.69
15.73
15.11
13.86
12.08
9.88
7.35
4.58
1.66
-1.32
-4.34
-7.39
-10.50
-13.64
-16.70
-19.56
-22.10
-24.33
-26.47
-28.89
-32.00
-36.03
-40.86
-45.86
-50.02
-52.15
-51.27
-46.92
-39.35
-29.40
-18.33
-7.40
2.34
10.24
16.01
19.70
21.58
22.00
21.35
20.02
18.40
16.86
15.73
15.30
15.70
16.85
18.47
20.14
21.50
22.37
22.75
22.77
22.55
22.08
21.26
19.93
17.99
15.55
12.83
10.09
7.55
5.26
3.13
1.07
-1.07
-3.36
-5.84
-8.54
-11.43
-14.44
-17.41
-20.19
-22.63
-24.84
-27.20
-30.31
-34.73
-40.63
-47.55
-54.30
-59.33
-61.14
-58.81
-52.27
-42.34
-30.42
-18.08
-6.66
3.00
10.51
15.90
19.35
21.09
21.38
20.52
18.95
17.20
15.88
15.44
16.06
17.60
19.68
21.86
23.78
25.30
26.42
27.20
27.65
27.71
27.29
26.32
24.78
22.74
20.32
17.63
14.77
11.84
8.94
6.15
3.56
1.23
-0.90
-2.98
-5.16
-7.62
-10.35
-13.24
-16.06
-18.64
-20.92
-23.01
-25.21
-27.86
-31.26
-35.62
-40.83
-46.45
-51.59
-55.05
-55.60
-52.40
-45.27
-34.93
-22.70
-10.20
1.14
10.37
17.11
21.36
23.37
23.46
22.06
19.69
16.97
14.58
13.09
12.81
13.81
15.81
18.39
21.05
23.39
25.13
26.09
26.18
25.38
23.69
21.20
18.14
14.80
11.45
8.29
5.36
2.61
-0.02
-2.52
-4.83
-6.86
-8.63
-10.25
-11.92
-13.73
-15.67
-17.51
-19.02
-20.08
-20.74
-21.25
-21.97
-23.29
-25.52
-28.82
-33.13
-38.02
-42.68
-45.99
-46.78
-44.13
-37.80
-28.28
-16.76
-4.75
6.30
15.31
21.76
25.63
27.22
27.03
25.58
23.34
20.79
18.38
16.60
15.85
16.38
18.15
20.86
23.99
26.98
29.35
30.83
31.33
30.86
29.44
27.08
23.80
19.77
15.35
11.02
7.27
4.39
2.36
0.85
-0.61
-2.47
-4.96
-8.03
-11.43
-14.79
-17.78
-20.24
-22.16
-23.69
-25.10
-26.70
-28.82
-31.77
-35.72
-40.53
-45.67
-50.17
-52.82
-52.47
-48.46
-40.87
-30.59
-19.00
-7.60
2.44
10.42
16.15
19.70
21.26
21.03
19.29
16.43
13.07
9.89
7.58
6.64
7.25
9.28
12.33
15.89
19.43
22.45
24.61
25.67
25.55
24.35
22.29
19.66
16.78
13.85
10.97
8.11
5.15
1.97
-1.44
-5.01
-8.53
-11.80
-14.70
-17.31
-19.84
-22.64
-25.97
-29.93
-34.25
-38.36
-41.42
-42.52
-40.88
-36.13
-28.44
-18.57
-7.68
2.94
12.21
19.43
24.35
27.00
27.51
26.14
23.25
19.40
15.38
12.09
10.29
10.31
11.98
14.70
17.71
20.41
22.48
23.89
24.70
24.93
24.47
23.16
20.94
17.83
14.03
9.78
5.32
0.83
-3.52
-7.56
-11.18
-14.37
-17.25
-20.14
-23.42
-27.44
-32.28
-37.63
-42.73
-46.48
-47.71
-45.53
-39.72
-30.84
-20.06
-8.80
1.73
10.76
18.01
23.49
27.25
29.29
29.63
28.45
26.19
23.53
21.21
19.78
19.51
20.30
21.81
23.60
25.26
26.45
26.96
26.66
25.52
23.61
21.09
18.17
15.07
11.90
8.70
5.45
2.24
-0.77
-3.34
-5.25
-6.53
-7.51
-8.77
-10.99
-14.63
-19.69
-25.53
-30.97
-34.47
-34.58
-30.29
-21.42
-8.70
6.25
21.41
34.86
45.37
52.79
57.96
62.25
66.90
72.41
78.20
82.81
84.36
81.26
72.83
59.58
43.10
25.55
9.09
-4.69
-14.94
-21.55
-24.96
-26.01
-25.78
-25.44
-26.07
-28.39
-32.52
-37.92
-43.58
-48.41
-51.61
-52.94
-52.55
-50.83
-48.21
-45.14
-42.07
-39.62
-38.43
-39.06
-41.84
-46.74
-53.23
-60.34
-66.69
-70.76
-71.23
-67.34
-59.13
-47.46
-33.77
-19.68
-6.63
4.48
13.29
19.84
24.34
27.04
28.13
27.89
26.73
25.25
24.11
23.87
24.78
26.74
29.32
31.95
34.14
35.62
36.36
36.53
36.29
35.71
34.70
33.07
30.68
27.51
23.76
19.78
15.97
12.57
9.59
6.85
4.05
1.00
-2.39
-5.99
-9.65
-13.19
-16.51
-19.58
-22.43
-25.17
-28.02
-31.32
-35.47
-40.81
-47.36
-54.60
-61.46
-66.47
-68.21
-65.68
-58.74
-48.07
-35.06
-21.35
-8.42
2.65
11.38
17.76
22.08
24.76
26.23
26.87
27.06
27.17
27.56
28.52
30.22
32.60
35.39
38.23
40.77
42.80
44.27
45.23
45.75
45.77
45.17
43.82
41.67
38.81
35.48
31.95
28.47
25.19
22.13
19.19
16.23
13.19
10.07
7.01
4.23
1.90
0.02
-1.60
-3.37
-5.67
-8.78
-12.70
-17.18
-21.87
-26.38
-30.50
-34.21
-37.67
-41.17
-45.06
-49.60
-54.83
-60.39
-65.53
-69.13
-69.99
-67.16
-60.28
-49.76
-36.68
-22.56
-8.88
3.18
12.93
20.19
25.10
28.02
29.36
29.52
28.93
28.02
27.21
26.86
27.29
28.63
30.77
33.47
36.35
39.01
41.23
42.87
43.90
44.25
43.76
42.34
39.96
36.85
33.44
30.22
27.48
25.25
23.26
21.12
18.53
15.44
12.03
8.64
5.59
3.05
0.94
-0.93
-2.86
-5.11
-7.82
-10.99
-14.50
-18.13
-21.68
-25.03
-28.17
-31.29
-34.71
-38.78
-43.64
-49.04
-54.25
-58.08
-59.26
-56.78
-50.35
-40.48
-28.37
-15.57
-3.50
6.85
15.02
20.92
24.72
26.59
26.74
25.49
23.33
20.88
18.83
17.68
17.67
18.70
20.41
22.41
24.36
26.08
27.50
28.63
29.40
29.65
29.18
27.86
25.70
22.85
19.60
16.23
12.96
9.87
7.00
4.39
2.07
0.06
-1.75
-3.60
-5.77
-8.43
-11.60
-15.02
-18.35
-21.33
-23.92
-26.35
-29.01
-32.34
-36.65
-41.99
-48.04
-54.09
-59.08
-61.79
-61.16
-56.58
-48.22
-36.97
-24.23
-11.52
-0.14
9.12
15.95
20.42
22.82
23.49
22.87
21.44
19.71
18.21
17.39
17.52
18.66
20.66
23.22
25.99
28.68
31.04
32.94
34.22
34.76
34.45
33.20
31.06
28.21
24.90
21.43
18.05
14.88
11.93
9.13
6.35
3.55
0.73
-2.05
-4.70
-7.20
-9.65
-12.20
-15.01
-18.10
-21.39
-24.65
-27.72
-30.62
-33.56
-36.91
-41.05
-46.17
-52.20
-58.63
-64.63
-69.02
-70.60
-68.43
-62.11
-52.02
-39.22
-25.24
-11.69
0.18
9.62
16.42
20.77
23.08
23.85
23.62
22.93
22.31
22.19
22.86
24.38
26.58
29.16
31.72
33.96
35.72
37.01
37.95
38.61
38.98
38.89
38.11
36.47
33.98
30.90
27.59
24.41
21.56
19.00
16.52
13.93
11.14
8.22
5.39
2.80
0.50
-1.66
-3.90
-6.47
-9.50
-12.94
-16.61
-20.22
-23.58
-26.60
-29.40
-32.31
-35.83
-40.39
-46.19
-52.95
-59.89
-65.71
-69.05
-68.75
-64.26
-55.75
-44.10
-30.65
-16.86
-4.06
6.77
15.08
20.75
24.02
25.38
25.41
24.72
23.85
23.30
23.41
24.46
26.48
29.30
32.54
35.70
38.36
40.26
41.38
41.88
41.93
41.61
40.87
39.54
37.53
34.87
31.73
28.41
25.19
22.18
19.38
16.64
13.88
11.09
8.38
5.91
3.78
1.95
0.22
-1.67
-3.93
-6.63
-9.70
-12.96
-16.20
-19.25
-22.03
-24.55
-26.93
-29.43
-32.42
-36.33
-41.46
-47.79
-54.78
-61.36
-66.16
-67.83
-65.48
-58.95
-48.85
-36.37
-22.92
-9.88
1.72
11.21
18.33
23.11
25.79
26.68
26.14
24.59
22.50
20.44
19.00
18.71
19.87
22.39
25.83
29.48
32.59
34.65
35.48
35.19
34.05
32.35
30.27
27.94
25.41
22.75
20.00
17.21
14.39
11.57
8.82
6.22
3.87
1.80
-0.07
-1.90
-3.88
-6.14
-8.72
-11.58
-14.60
-17.67
-20.73
-23.77
-26.89
-30.27
-34.17
-38.85
-44.36
-50.43
-56.37
-61.11
-63.40
-62.16
-56.84
-47.67
-35.66
-22.34
-9.31
2.17
11.43
18.39
23.28
26.43
28.07
28.38
27.58
26.08
24.54
23.64
23.95
25.70
28.64
32.22
35.74
38.66
40.69
41.79
42.05
41.50
40.07
37.64
34.24
30.08
25.64
21.49
18.12
15.63
13.80
12.10
10.00
7.23
3.91
0.54
-2.38
-4.54
-6.11
-7.58
-9.56
-12.41
-16.08
-20.19
-24.24
-27.90
-31.19
-34.40
-37.99
-42.36
-47.76
-54.16
-61.19
-68.12
-73.87
-77.16
-76.81
-72.08
-62.99
-50.40
-35.80
-20.99
-7.53
3.60
12.04
18.01
21.94
24.29
25.40
25.61
25.32
25.04
25.28
26.36
28.31
30.86
33.60
36.16
38.35
40.13
41.58
42.71
43.48
43.71
43.17
41.65
39.03
35.45
31.29
27.12
23.51
20.81
19.02
17.79
16.62
15.12
13.15
10.80
8.30
5.90
3.67
1.63
-0.33
-2.33
-4.50
-6.99
-9.88
-13.20
-16.87
-20.72
-24.55
-28.27
-31.97
-35.96
-40.66
-46.43
-53.31
-60.83
-67.97
-73.29
-75.31
-72.94
-65.87
-54.73
-40.88
-26.11
-12.06
0.03
9.53
16.39
20.82
23.25
24.08
23.74
22.67
21.41
20.47
20.29
21.13
22.98
25.60
28.65
31.72
34.55
36.93
38.77
40.02
40.63
40.51
39.55
37.72
35.14
32.10
28.99
26.15
23.75
21.76
19.92
17.98
15.72
13.11
10.30
7.49
4.89
2.52
0.26
-2.13
-4.93
-8.27
-12.07
-16.06
-19.87
-23.20
-26.03
-28.64
-31.49
-35.09
-39.79
-45.67
-52.44
-59.41
-65.56
-69.67
-70.55
-67.38
-60.02
-49.13
-36.01
-22.22
-9.22
2.00
10.96
17.60
22.07
24.62
25.52
25.16
24.06
22.84
22.06
22.17
23.31
25.40
28.18
31.31
34.48
37.41
39.88
41.73
42.84
43.11
42.50
41.02
38.75
35.85
32.59
29.28
26.16
23.39
20.91
18.55
16.08
13.33
10.33
7.26
4.40
1.96
0.01
-1.64
-3.34
-5.48
-8.29
-11.74
-15.56
-19.34
-22.74
-25.61
-28.13
-30.71
-33.84
-37.99
-43.41
-50.04
-57.43
-64.75
-70.80
-74.33
-74.21
-69.84
-61.29
-49.39
-35.51
-21.29
-8.18
2.85
11.39
17.57
21.80
24.50
26.01
26.52
26.24
25.47
24.67
24.34
24.91
26.52
29.02
32.00
34.97
37.52
39.41
40.61
41.14
41.01
40.14
38.46
35.93
32.73
29.21
25.79
22.80
20.34
18.30
16.39
14.37
12.15
9.74
7.31
4.96
2.77
0.67
-1.49
-3.89
-6.72
-10.05
-13.80
-17.76
-21.62
-25.11
-28.17
-30.94
-33.82
-37.34
-41.92
-47.71
-54.37
-61.02
-66.39
-69.09
-68.00
-62.66
-53.38
-41.23
-27.70
-14.31
-2.30
7.55
14.91
19.78
22.30
22.78
21.68
19.63
17.38
15.70
15.17
16.08
18.34
21.61
25.41
29.24
32.73
35.57
37.55
38.53
38.49
37.51
35.80
33.56
30.95
28.01
24.73
21.10
17.21
13.29
9.62
6.39
3.63
1.11
-1.49
-4.48
-7.98
-11.88
-15.86
-19.56
-22.71
-25.26
-27.41
-29.58
-32.28
-35.95
-40.80
-46.73
-53.30
-59.77
-65.25
-68.73
-69.28
-66.21
-59.22
-48.60
-35.29
-20.82
-7.00
4.50
12.61
17.01
18.17
17.09
14.95
12.75
11.18
10.49
10.61
11.23
11.89
12.18
11.86
11.02
10.20
10.32
12.47
17.47
25.48
35.65
46.29
55.45
61.73
64.83
65.70
65.89
66.76
68.79
71.56
74.15
75.85
76.52
76.57
76.59
76.86
77.28
77.54
77.35
76.65
75.50
73.96
71.84
68.71
63.88
56.48
45.60
30.53
11.06
-12.09
-36.90
-60.03
-77.37
-85.24
-81.83
-68.29
-48.80
-29.29
-15.37
-10.31
-14.15
-24.34
-37.58
-51.75
-66.81
-84.20
-105.23
-129.52
-154.36
-175.56
-189.06
-192.51
-186.00
-171.63
-152.32
-130.66
-108.18
-85.50
-62.87
-40.85
-20.55
-3.31
9.82
18.64
23.99
27.43
30.68
35.04
40.94
47.98
55.20
61.48
65.96
68.26
68.54
67.28
65.04
62.21
58.84
54.65
49.24
42.25
33.55
23.22
11.55
-1.06
-14.09
-26.83
-38.26
-47.21
-52.56
-53.65
-50.59
-44.23
-36.01
-27.49
-19.91
-13.95
-9.75
-7.08
-5.53
-4.70
-4.23
-3.83
-3.27
-2.42
-1.23
0.23
1.83
3.50
5.21
7.04
9.12
11.56
14.34
17.33
20.25
22.83
24.84
26.20
26.93
27.10
26.76
25.85
24.24
21.79
18.49
14.57
10.47
6.82
4.16
2.77
2.45
2.61
2.33
0.79
-2.52
-7.51
-13.47
-19.16
-23.18
-24.21
-21.50
-15.14
-6.15
3.69
12.32
18.05
20.05
18.53
14.45
9.04
3.30
-2.19
-7.25
-11.75
-15.42
-17.81
-18.52
-17.45
-14.90
-11.53
-8.06
-5.01
-2.61
-0.77
0.69
1.91
2.88
3.40
3.24
2.21
0.28
-2.39
-5.53
-8.77
-11.79
-14.40
-16.62
-18.66
-20.83
-23.49
-26.86
-31.02
-35.77
-40.64
-44.95
-47.83
-48.44
-46.21
-41.01
-33.29
-24.01
-14.37
-5.48
1.88
7.43
11.25
13.61
14.89
15.41
15.50
15.52
15.78
16.56
17.97
19.96
22.34
24.90
27.45
29.86
32.03
33.80
34.98
35.34
34.70
33.06
30.63
27.75
24.78
21.93
19.16
16.24
12.96
9.18
5.05
0.79
-3.33
-7.17
-10.75
-14.17
-17.62
-21.26
-25.35
-30.14
-35.78
-42.06
-48.28
-53.28
-55.70
-54.53
-49.47
-41.10
-30.69
-19.75
-9.56
-0.86
6.14
11.63
15.88
19.12
21.49
23.13
24.29
25.34
26.73
28.75
31.43
34.52
37.57
40.21
42.27
43.80
45.01
46.11
47.14
48.06
48.72
49.01
48.86
48.27
47.28
45.97
44.41
42.65
40.71
38.62
36.42
34.16
31.95
29.90
28.04
26.33
24.62
22.75
20.56
18.03
15.24
12.33
9.48
6.80
4.39
2.22
0.14
-2.05
-4.63
-7.79
-11.54
-15.72
-20.08
-24.37
-28.45
-32.36
-36.31
-40.62
-45.65
-51.64
-58.48
-65.60
-71.95
-76.15
-76.87
-73.30
-65.49
-54.33
-41.35
-28.26
-16.49
-6.92
0.19
5.11
8.33
10.39
11.72
12.64
13.39
14.20
15.35
17.07
19.47
22.46
25.78
29.04
31.87
34.05
35.58
36.60
37.35
38.02
38.62
38.99
38.83
37.91
36.18
33.86
31.38
29.11
27.26
25.75
24.26
22.43
20.06
17.19
14.08
11.12
8.57
6.59
5.04
3.60
1.86
-0.49
-3.56
-7.23
-11.17
-15.02
-18.51
-21.57
-24.29
-26.87
-29.57
-32.70
-36.62
-41.63
-47.77
-54.59
-61.07
-65.80
-67.34
-64.77
-58.04
-48.01
-36.19
-24.23
-13.41
-4.42
2.60
7.86
11.62
14.07
15.41
15.88
15.88
15.92
16.42
17.58
19.32
21.43
23.66
25.89
28.12
30.45
32.86
35.20
37.23
38.69
39.38
39.23
38.27
36.63
34.51
32.12
29.70
27.43
25.39
23.51
21.62
19.55
17.18
14.57
11.89
9.32
7.02
4.96
3.02
0.98
-1.39
-4.17
-7.28
-10.50
-13.55
-16.29
-18.76
-21.24
-24.14
-27.88
-32.66
-38.40
-44.59
-50.39
-54.65
-56.29
-54.49
-49.05
-40.48
-29.93
-18.86
-8.61
-0.06
6.46
11.07
14.10
15.87
16.65
16.62
16.01
15.14
14.36
14.06
14.52
15.83
17.89
20.47
23.26
26.01
28.58
30.90
32.91
34.49
35.46
35.61
34.85
33.31
31.27
29.13
27.12
25.27
23.36
21.11
18.40
15.31
12.15
9.24
6.75
4.59
2.50
0.19
-2.44
-5.33
-8.24
-10.98
-13.45
-15.75
-18.11
-20.78
-24.01
-27.96
-32.70
-38.15
-43.96
-49.50
-53.82
-55.91
-54.94
-50.62
-43.33
-34.06
-24.04
-14.45
-6.04
0.82
6.12
9.90
12.18
12.99
12.49
11.07
9.35
7.96
7.37
7.77
9.03
10.84
12.90
14.94
16.86
18.65
20.34
21.96
23.42
24.56
25.17
25.05
24.13
22.50
20.40
18.10
15.82
13.62
11.43
9.10
6.50
3.64
0.61
-2.44
-5.40
-8.15
-10.72
-13.16
-15.64
-18.41
-21.74
-25.82
-30.63
-35.77
-40.44
-43.64
-44.40
-42.11
-36.79
-29.03
-19.86
-10.42
-1.70
5.67
11.33
15.20
17.30
17.80
16.98
15.28
13.23
11.39
10.23
10.00
10.76
12.34
14.44
16.70
18.85
20.74
22.34
23.73
24.90
25.74
26.01
25.50
24.07
21.85
19.13
16.28
13.56
11.07
8.68
6.18
3.38
0.22
-3.20
-6.65
-9.88
-12.67
-14.98
-16.99
-19.05
-21.60
-24.98
-29.32
-34.38
-39.58
-44.02
-46.70
-46.78
-43.76
-37.69
-29.22
-19.41
-9.43
-0.33
7.23
12.97
16.88
19.10
19.83
19.36
18.11
16.64
15.49
15.07
15.50
16.65
18.26
20.11
22.08
24.11
26.12
27.99
29.51
30.54
31.02
30.96
30.43
29.45
28.02
26.11
23.70
20.88
17.77
14.53
11.36
8.44
5.88
3.64
1.49
-0.89
-3.78
-7.26
-11.11
-14.95
-18.41
-21.31
-23.79
-26.21
-29.04
-32.65
-37.25
-42.81
-49.05
-55.36
-60.84
-64.40
-64.96
-61.81
-54.87
-44.82
-32.97
-20.91
-10.07
-1.41
4.77
8.70
10.94
12.13
12.72
12.99
13.09
13.17
13.44
14.16
15.53
17.57
20.12
22.84
25.43
27.71
29.68
31.42
32.98
34.31
35.18
35.37
34.77
33.42
31.58
29.55
27.57
25.73
23.91
21.88
19.48
16.63
13.49
10.37
7.63
5.45
3.80
2.34
0.62
-1.76
-4.91
-8.63
-12.52
-16.14
-19.25
-21.86
-24.23
-26.78
-29.91
-33.95
-39.02
-44.96
-51.20
-56.76
-60.41
-61.00
-57.81
-50.88
-41.02
-29.58
-18.03
-7.55
1.15
7.88
12.77
16.07
18.02
18.87
18.85
18.26
17.47
16.82
16.58
16.89
17.79
19.16
20.90
22.88
24.96
26.97
28.75
30.09
30.88
31.10
30.78
30.01
28.84
27.31
25.41
23.17
20.71
18.18
15.73
13.41
11.20
9.02
6.77
4.43
2.02
-0.42
-2.86
-5.32
-7.86
-10.47
-13.13
-15.77
-18.36
-20.97
-23.79
-27.11
-31.21
-36.12
-41.57
-46.85
-50.90
-52.57
-50.99
-45.82
-37.48
-27.02
-15.89
-5.46
3.28
9.85
14.24
16.71
17.58
17.14
15.71
13.67
11.49
9.70
8.72
8.78
9.87
11.75
14.09
16.59
18.99
21.13
22.95
24.37
25.35
25.85
25.82
25.22
24.03
22.25
19.96
17.33
14.56
11.88
9.41
7.16
5.01
2.80
0.36
-2.40
-5.45
-8.66
-11.80
-14.63
-17.03
-19.00
-20.75
-22.63
-25.04
-28.29
-32.50
-37.49
-42.80
-47.70
-51.26
-52.55
-50.80
-45.69
-37.55
-27.30
-16.30
-5.97
2.61
8.94
13.03
15.23
16.03
15.80
14.84
13.41
11.84
10.54
9.89
10.18
11.48
13.58
16.15
18.76
21.08
22.94
24.31
25.27
25.89
26.17
26.03
25.30
23.88
21.78
19.22
16.51
13.96
11.75
9.85
8.03
5.99
3.48
0.42
-3.09
-6.78
-10.36
-13.56
-16.30
-18.66
-20.88
-23.24
-26.05
-29.52
-33.68
-38.35
-43.08
-47.15
-49.66
-49.69
-46.63
-40.38
-31.50
-21.06
-10.41
-0.70
7.28
13.22
17.16
19.32
19.94
19.27
17.64
15.46
13.26
11.51
10.61
10.69
11.64
13.24
15.19
17.21
19.12
20.85
22.35
23.59
24.46
24.74
24.23
22.77
20.39
17.36
14.08
10.97
8.31
6.09
4.10
2.04
-0.31
-3.01
-5.90
-8.74
-11.37
-13.73
-15.93
-18.16
-20.71
-23.81
-27.63
-32.14
-37.05
-41.71
-45.21
-46.53
-44.90
-40.07
-32.44
-22.92
-12.74
-3.08
5.16
11.48
15.76
18.09
18.74
18.09
16.56
14.61
12.66
11.04
9.97
9.53
9.73
10.42
11.47
12.70
13.98
15.28
16.59
17.86
18.92
19.53
19.39
18.31
16.33
13.70
10.82
8.01
5.45
3.05
0.64
-1.97
-4.78
-7.65
-10.38
-12.83
-15.06
-17.28
-19.85
-23.07
-27.11
-31.88
-37.02
-41.91
-45.72
-47.62
-46.91
-43.27
-36.80
-28.14
-18.26
-8.26
0.86
8.42
14.03
17.63
19.33
19.39
18.17
16.09
13.62
11.25
9.42
8.42
8.42
9.34
10.97
12.97
15.01
16.86
18.39
19.60
20.42
20.74
20.38
19.26
17.38
15.00
12.42
9.92
7.60
5.37
3.01
0.31
-2.81
-6.27
-9.85
-13.30
-16.45
-19.24
-21.82
-24.50
-27.65
-31.54
-36.12
-40.88
-44.88
-46.96
-46.15
-41.96
-34.66
-25.18
-14.89
-5.14
3.13
9.48
13.94
16.76
18.15
18.27
17.25
15.37
13.13
11.10
9.80
9.47
10.06
11.31
12.91
14.65
16.44
18.20
19.81
21.00
21.55
21.28
20.24
18.63
16.71
14.69
12.60
10.33
7.74
4.75
1.38
-2.17
-5.68
-8.92
-11.83
-14.46
-17.01
-19.74
-22.94
-26.86
-31.57
-36.86
-42.10
-46.28
-48.21
-46.90
-41.95
-33.75
-23.42
-12.44
-2.24
6.21
12.52
16.72
19.08
19.88
19.38
17.83
15.64
13.32
11.45
10.43
10.44
11.41
13.06
15.11
17.30
19.50
21.62
23.53
25.08
26.00
26.07
25.15
23.29
20.76
17.90
15.03
12.29
9.63
6.86
3.83
0.53
-2.91
-6.23
-9.27
-12.02
-14.61
-17.27
-20.23
-23.68
-27.72
-32.37
-37.50
-42.65
-47.06
-49.69
-49.57
-46.11
-39.43
-30.30
-19.92
-9.57
-0.27
7.42
13.26
17.28
19.55
20.21
19.51
17.87
15.85
14.07
13.03
12.96
13.82
15.36
17.22
19.14
20.97
22.71
24.39
25.94
27.16
27.79
27.58
26.46
24.55
22.11
19.47
16.86
14.44
12.24
10.23
8.28
6.22
3.86
1.04
-2.25
-5.85
-9.49
-12.84
-15.79
-18.34
-20.75
-23.39
-26.63
-30.75
-35.76
-41.28
-46.56
-50.44
-51.72
-49.51
-43.59
-34.56
-23.67
-12.45
-2.23
6.12
12.27
16.34
18.58
19.29
18.77
17.35
15.54
13.94
13.15
13.58
15.27
17.96
21.13
24.24
26.90
28.89
30.17
30.77
30.79
30.36
29.63
28.78
27.88
26.85
25.53
23.71
21.35
18.55
15.60
12.76
10.17
7.77
5.35
2.74
-0.12
-3.09
-6.00
-8.71
-11.22
-13.66
-16.21
-19.05
-22.28
-25.98
-30.24
-35.11
-40.50
-45.93
-50.54
-53.17
-52.70
-48.56
-40.99
-31.00
-20.07
-9.60
-0.58
6.57
11.86
15.45
17.47
18.00
17.22
15.49
13.43
11.74
11.01
11.56
13.41
16.24
19.59
22.90
25.71
27.72
28.88
29.34
29.35
29.12
28.74
28.12
27.11
25.57
23.45
20.89
18.10
15.33
12.77
10.47
8.32
6.14
3.75
1.05
-1.92
-5.03
-8.07
-10.90
-13.46
-15.82
-18.17
-20.77
-23.88
-27.72
-32.37
-37.69
-43.19
-48.04
-51.15
-51.43
-48.21
-41.43
-31.80
-20.62
-9.38
0.65
8.71
14.54
18.31
20.30
20.81
20.09
18.44
16.30
14.22
12.75
12.30
12.97
14.53
16.59
18.70
20.59
22.18
23.57
24.86
26.03
26.90
27.11
26.39
24.60
21.87
18.56
15.13
12.02
9.46
7.47
5.82
4.15
2.08
-0.59
-3.83
-7.33
-10.69
-13.55
-15.83
-17.73
-19.66
-22.05
-25.19
-29.14
-33.76
-38.69
-43.44
-47.37
-49.70
-49.71
-46.95
-41.44
-33.79
-25.06
-16.42
-8.83
-2.81
1.55
4.42
6.03
6.53
6.04
4.71
2.86
0.98
-0.38
-0.80
-0.06
1.76
4.31
7.15
9.82
11.99
13.55
14.45
14.72
14.36
13.29
11.49
9.00
6.03
2.88
-0.18
-3.01
-5.66
-8.22
-10.80
-13.44
-16.08
-18.65
-21.20
-23.92
-27.07
-30.85
-35.18
-39.63
-43.37
-45.38
-44.81
-41.21
-34.79
-26.34
-16.98
-7.81
0.34
7.02
12.03
15.32
16.84
16.64
14.93
12.18
9.08
6.36
4.61
4.09
4.72
6.17
8.06
10.07
12.03
13.84
15.40
16.57
17.13
16.89
15.74
13.70
10.95
7.74
4.28
0.72
-2.88
-6.54
-10.39
-14.58
-19.32
-24.77
-30.94
-37.54
-43.89
-48.95
-51.60
-50.93
-46.62
-39.04
-29.21
-18.48
-8.13
0.93
8.20
13.55
16.98
18.46
18.02
15.73
11.96
7.39
2.92
-0.52
-2.26
-2.07
-0.17
2.88
6.43
9.97
13.20
16.04
18.47
20.38
21.54
21.63
20.39
17.76
13.92
9.25
4.20
-0.86
-5.73
-10.39
-14.97
-19.67
-24.70
-30.37
-36.93
-44.45
-52.63
-60.61
-66.98
-70.10
-68.53
-61.57
-49.59
-34.04
-17.13
-1.25
11.60
20.30
24.66
25.29
23.25
19.62
15.31
10.95
7.01
3.96
2.29
2.42
4.52
8.35
13.19
18.09
22.23
25.19
27.08
28.47
30.02
32.13
34.75
37.39
39.47
40.60
40.85
40.72
40.87
41.73
43.24
44.83
45.76
45.39
43.57
40.64
37.25
34.03
31.41
29.46
27.98
26.55
24.62
21.55
16.60
9.22
-0.67
-12.40
-24.42
-34.56
-40.63
-41.09
-35.60
-25.07
-11.40
3.17
16.62
27.62
35.62
40.68
43.24
43.90
43.26
41.84
40.13
38.48
37.17
36.31
35.90
35.83
35.93
36.06
36.18
36.34
36.66
37.21
37.88
38.36
38.19
36.86
34.08
29.92
24.83
19.55
14.79
10.97
8.05
5.59
2.94
-0.41
-4.60
-9.37
-14.20
-18.55
-22.13
-25.03
-27.70
-30.77
-34.87
-40.47
-47.61
-55.89
-64.36
-71.61
-76.06
-76.32
-71.65
-62.23
-49.13
-34.07
-18.88
-5.11
6.29
14.93
20.90
24.49
26.05
26.03
24.93
23.32
21.87
21.15
21.51
22.99
25.33
28.08
30.77
33.06
34.80
36.01
36.74
37.00
36.70
35.70
33.90
31.34
28.23
24.84
21.42
18.00
14.46
10.61
6.29
1.57
-3.31
-8.01
-12.30
-16.18
-19.96
-24.10
-29.04
-35.06
-42.03
-49.38
-56.07
-60.77
-62.18
-59.36
-52.19
-41.35
-28.23
-14.50
-1.69
9.13
17.46
23.20
26.49
27.57
26.74
24.45
21.34
18.17
15.71
14.54
14.93
16.78
19.65
22.95
26.07
28.57
30.19
30.86
30.65
29.62
27.89
25.59
22.82
19.64
16.03
11.89
7.16
1.96
-3.43
-8.59
-13.14
-16.97
-20.25
-23.44
-27.17
-32.00
-38.23
-45.71
-53.70
-60.85
-65.49
-66.10
-61.74
-52.56
-39.70
-25.02
-10.49
2.36
12.65
20.15
25.03
27.61
28.23
27.31
25.33
22.92
20.67
19.11
18.56
19.13
20.73
23.15
26.09
29.17
31.99
34.17
35.36
35.39
34.25
32.13
29.30
26.04
22.55
18.92
15.09
10.91
6.25
1.07
-4.53
-10.26
-15.76
-20.71
-24.94
-28.55
-31.97
-35.83
-40.81
-47.35
-55.33
-63.85
-71.37
-76.03
-76.23
-71.19
-61.18
-47.49
-31.97
-16.54
-2.72
8.60
17.15
23.05
26.69
28.50
28.92
28.43
27.51
26.71
26.50
27.21
28.91
31.38
34.26
37.12
39.67
41.81
43.52
44.85
45.73
46.04
45.60
44.27
42.02
38.89
35.08
30.83
26.40
22.02
17.84
13.94
10.24
6.65
3.01
-0.84
-5.01
-9.53
-14.33
-19.22
-23.96
-28.35
-32.35
-36.21
-40.45
-45.76
-52.76
-61.58
-71.60
-81.28
-88.56
-91.33
-88.27
-79.24
-65.35
-48.64
-31.31
-15.17
-1.34
9.75
18.08
23.83
27.20
28.53
28.30
27.16
25.84
24.99
25.05
26.18
28.30
31.19
34.50
37.90
41.10
43.88
46.02
47.34
47.70
47.06
45.49
43.21
40.45
37.43
34.19
30.69
26.89
22.81
18.65
14.68
11.11
7.92
4.90
1.74
-1.80
-5.80
-10.11
-14.47
-18.68
-22.64
-26.38
-30.08
-34.01
-38.50
-43.94
-50.69
-58.81
-67.88
-76.80
-83.85
-87.11
-85.02
-76.99
-63.68
-46.87
-28.87
-11.93
2.43
13.49
21.23
26.01
28.26
28.41
26.95
24.46
21.62
19.13
17.56
17.22
18.13
20.10
22.78
25.84
28.96
31.92
34.47
36.37
37.32
37.09
35.56
32.88
29.38
25.55
21.77
18.23
14.79
11.16
7.07
2.42
-2.67
-7.90
-13.01
-17.80
-22.31
-26.71
-31.30
-36.44
-42.42
-49.30
-56.71
-63.69
-68.79
-70.43
-67.36
-59.21
-46.63
-31.19
-14.91
0.34
13.24
23.17
30.05
34.10
35.62
34.90
32.33
28.50
24.17
20.21
17.34
15.96
16.05
17.22
18.86
20.45
21.64
22.36
22.76
23.01
23.20
23.18
22.61
21.07
18.24
14.10
8.95
3.39
-1.87
-6.26
-9.44
-11.39
-12.33
-12.64
-12.84
-13.43
-14.73
-16.73
-18.89
-20.18
-19.31
-15.14
-7.16
4.29
18.09
32.64
46.29
57.79
66.41
71.93
74.40
74.07
71.19
66.12
59.34
51.54
43.50
35.96
29.40
23.96
19.42
15.32
11.21
6.88
2.40
-1.92
-5.78
-9.10
-12.13
-15.32
-19.06
-23.39
-28.00
-32.30
-35.82
-38.54
-40.92
-43.76
-47.79
-53.33
-60.10
-67.36
-74.06
-79.10
-81.54
-80.62
-75.94
-67.51
-55.84
-41.82
-26.62
-11.43
2.70
14.94
24.70
31.53
35.16
35.55
33.00
28.17
21.98
15.51
9.63
4.93
1.62
-0.46
-1.60
-2.13
-2.21
-1.89
-1.19
-0.21
0.74
1.17
0.59
-1.30
-4.47
-8.57
-13.00
-17.26
-21.03
-24.35
-27.50
-30.90
-34.92
-39.82
-45.61
-52.04
-58.47
-63.90
-67.09
-66.86
-62.43
-53.75
-41.62
-27.49
-13.05
0.13
10.96
18.90
23.84
26.04
25.91
24.07
21.19
17.98
15.06
12.87
11.61
11.26
11.65
12.52
13.63
14.79
15.88
16.76
17.25
17.09
16.05
14.01
11.04
7.40
3.45
-0.55
-4.50
-8.56
-13.04
-18.29
-24.55
-31.72
-39.28
-46.20
-51.15
-52.78
-50.21
-43.34
-32.98
-20.60
-7.87
3.76
13.38
20.53
25.14
27.29
27.16
25.07
21.56
17.29
13.01
9.32
6.58
4.91
4.21
4.31
5.00
6.11
7.45
8.77
9.73
9.97
9.19
7.18
4.01
-0.08
-4.71
-9.47
-14.06
-18.46
-22.91
-27.88
-33.93
-41.38
-50.06
-59.16
-67.17
-72.23
-72.70
-67.61
-57.14
-42.51
-25.71
-8.83
6.39
18.82
28.05
34.09
37.18
37.69
36.05
32.90
29.00
25.22
22.31
20.74
20.54
21.37
22.69
23.99
24.97
25.55
25.84
25.88
25.57
24.60
22.54
19.09
14.20
8.20
1.71
-4.61
-10.24
-15.10
-19.52
-24.16
-29.78
-36.94
-45.65
-55.23
-64.22
-70.69
-72.68
-68.85
-58.99
-44.17
-26.46
-8.31
8.17
21.66
31.76
38.65
42.76
44.50
44.20
42.32
39.56
36.78
34.80
34.12
34.78
36.34
38.24
39.96
41.27
42.19
42.84
43.27
43.34
42.80
41.36
38.85
35.35
31.14
26.59
22.01
17.56
13.18
8.71
3.98
-1.05
-6.27
-11.41
-16.25
-20.64
-24.59
-28.33
-32.25
-36.93
-42.92
-50.53
-59.48
-68.62
-76.06
-79.56
-77.31
-68.62
-54.32
-36.45
-17.65
-0.29
14.08
24.92
32.39
36.97
39.09
39.17
37.60
34.95
32.00
29.56
28.27
28.41
29.81
32.03
34.52
36.90
38.99
40.80
42.37
43.60
44.20
43.75
41.96
38.75
34.41
29.49
24.60
20.16
16.24
12.60
8.78
4.40
-0.68
-6.29
-11.97
-17.22
-21.68
-25.26
-28.18
-30.99
-34.32
-38.86
-45.03
-52.69
-60.99
-68.28
-72.53
-71.86
-65.28
-53.10
-36.87
-18.95
-1.74
12.92
24.09
31.67
36.07
37.85
37.50
35.48
32.28
28.54
25.08
22.69
21.91
22.80
24.97
27.73
30.43
32.68
34.36
35.52
36.16
36.13
35.14
32.98
29.66
25.51
20.97
16.50
12.33
8.45
4.64
0.66
-3.60
-8.02
-12.34
-16.25
-19.64
-22.65
-25.74
-29.55
-34.61
-41.17
-48.94
-56.96
-63.75
-67.57
-66.83
-60.64
-49.17
-33.72
-16.43
0.37
14.72
25.47
32.37
35.78
36.41
35.00
32.26
28.85
25.38
22.43
20.44
19.64
20.00
21.33
23.35
25.71
28.13
30.27
31.83
32.51
32.11
30.53
27.84
24.30
20.26
16.10
12.13
8.45
4.90
1.19
-3.01
-7.84
-13.15
-18.50
-23.41
-27.55
-30.92
-33.92
-37.23
-41.57
-47.49
-55.03
-63.49
-71.41
-76.77
-77.57
-72.43
-61.25
-45.30
-26.88
-8.62
7.32
19.76
28.47
33.90
36.71
37.46
36.57
34.39
31.44
28.38
25.99
24.93
25.53
27.65
30.73
34.03
36.83
38.76
39.80
40.20
40.25
40.04
39.42
38.04
35.56
31.87
27.14
21.83
16.50
11.65
7.55
4.15
1.12
-2.03
-5.74
-10.25
-15.42
-20.85
-26.00
-30.46
-34.10
-37.16
-40.14
-43.71
-48.51
-54.97
-63.08
-72.12
-80.57
-86.30
-87.10
-81.47
-69.22
-51.72
-31.47
-11.37
6.18
19.81
29.25
34.98
37.77
38.37
37.40
35.40
32.98
30.80
29.42
29.19
30.15
32.02
34.34
36.60
38.46
39.74
40.48
40.79
40.78
40.53
39.94
38.89
37.18
34.71
31.48
27.65
23.47
19.25
15.29
11.75
8.67
5.94
3.34
0.57
-2.65
-6.47
-10.86
-15.53
-20.12
-24.25
-27.78
-30.84
-33.85
-37.38
-42.00
-48.15
-55.87
-64.64
-73.27
-79.94
-82.63
-79.64
-70.30
-55.30
-36.62
-16.97
1.05
15.60
25.94
32.25
35.23
35.68
34.28
31.64
28.40
25.30
23.06
22.18
22.79
24.60
27.04
29.47
31.46
32.84
33.69
34.22
34.61
34.89
34.95
34.53
33.35
31.20
28.04
24.05
19.62
15.27
11.45
8.34
5.82
3.45
0.75
-2.66
-6.80
-11.33
-15.72
-19.45
-22.30
-24.39
-26.20
-28.42
-31.69
-36.49
-42.88
-50.44
-58.14
-64.49
-67.77
-66.48
-59.88
-48.29
-33.10
-16.44
-0.52
12.90
22.88
29.29
32.49
33.05
31.52
28.47
24.54
20.49
17.13
15.11
14.73
15.86
18.06
20.79
23.57
26.10
28.24
29.94
31.10
31.58
31.20
29.78
27.19
23.50
18.97
14.07
9.39
5.39
2.23
-0.32
-2.84
-6.00
-10.17
-15.31
-20.84
-25.99
-30.12
-33.09
-35.33
-37.68
-41.11
-46.32
-53.44
-61.79
-70.01
-76.25
-78.57
-75.55
-66.70
-52.71
-35.35
-17.02
-0.08
13.72
23.57
29.56
32.33
32.77
31.61
29.51
26.96
24.45
22.46
21.39
21.41
22.45
24.13
25.97
27.60
28.81
29.65
30.29
30.82
31.16
30.94
29.73
27.22
23.44
18.81
14.06
9.90
6.68
4.31
2.22
-0.33
-3.90
-8.59
-14.00
-19.42
-24.12
-27.74
-30.30
-32.28
-34.41
-37.46
-42.04
-48.38
-56.11
-64.13
-70.73
-73.90
-71.98
-64.22
-51.14
-34.48
-16.65
0.00
13.78
23.93
30.46
33.87
34.80
33.88
31.71
28.93
26.16
24.03
22.94
23.08
24.28
26.15
28.22
30.04
31.38
32.26
32.79
33.08
33.00
32.26
30.45
27.32
23.04
18.15
13.38
9.39
6.40
4.15
2.02
-0.61
-4.11
-8.42
-13.16
-17.81
-21.96
-25.49
-28.55
-31.50
-34.89
-39.20
-44.81
-51.71
-59.28
-66.23
-70.77
-71.04
-65.83
-55.04
-39.89
-22.59
-5.64
8.89
19.86
27.07
31.02
32.42
31.91
29.94
26.89
23.25
19.66
16.83
15.40
15.62
17.32
19.94
22.77
25.18
26.83
27.66
27.81
27.46
26.71
25.47
23.59
20.91
17.38
13.13
8.44
3.65
-0.90
-5.05
-8.77
-12.15
-15.32
-18.44
-21.63
-25.15
-29.33
-34.49
-40.74
-47.64
-54.12
-58.60
-59.38
-55.27
-46.09
-32.82
-17.34
-1.90
11.57
21.85
28.63
32.18
33.11
32.02
29.43
25.85
21.87
18.20
15.53
14.35
14.79
16.62
19.31
22.27
24.94
26.91
27.90
27.82
26.72
24.82
22.38
19.70
16.93
14.13
11.16
7.85
4.03
-0.33
-5.14
-10.19
-15.18
-19.88
-24.10
-27.84
-31.35
-35.11
-39.72
-45.73
-53.24
-61.69
-69.71
-75.34
-76.59
-72.08
-61.62
-46.36
-28.47
-10.51
5.35
17.78
26.45
31.72
34.27
34.78
33.77
31.74
29.21
26.83
25.23
24.87
25.86
27.93
30.51
32.98
34.89
36.09
36.72
36.99
37.03
36.72
35.74
33.74
30.60
26.47
21.83
17.24
13.09
9.42
5.97
2.30
-1.97
-6.96
-12.45
-17.97
-23.02
-27.28
-30.75
-33.80
-37.09
-41.36
-47.21
-54.69
-63.17
-71.23
-76.89
-78.19
-73.77
-63.43
-48.27
-30.39
-12.24
4.01
17.03
26.35
32.21
35.21
36.00
35.24
33.53
31.48
29.70
28.72
28.86
30.18
32.47
35.28
38.10
40.48
42.18
43.12
43.41
43.20
42.60
41.64
40.23
38.22
35.45
31.87
27.58
22.88
18.16
13.84
10.22
7.28
4.80
2.31
-0.58
-4.13
-8.31
-12.91
-17.55
-21.90
-25.74
-29.06
-32.08
-35.22
-39.04
-44.13
-50.86
-59.11
-68.04
-76.06
-81.09
-81.16
-75.09
-63.00
-46.37
-27.62
-9.38
6.27
18.23
26.41
31.33
33.73
34.22
33.22
31.14
28.52
26.03
24.41
24.21
25.61
28.32
31.70
34.99
37.56
39.16
39.85
39.95
39.78
39.43
38.72
37.28
34.78
31.15
26.69
21.96
17.59
13.96
11.08
8.61
6.07
3.03
-0.60
-4.63
-8.67
-12.34
-15.42
-17.99
-20.31
-22.79
-25.85
-29.92
-35.31
-42.15
-50.16
-58.49
-65.68
-69.91
-69.52
-63.56
-52.29
-37.07
-20.08
-3.58
10.62
21.55
28.98
33.20
34.70
34.01
31.70
28.42
24.96
22.09
20.48
20.46
21.97
24.63
27.82
30.88
33.34
34.97
35.85
36.18
36.13
35.78
34.94
33.36
30.81
27.26
22.92
18.20
13.55
9.37
5.85
2.97
0.51
-1.91
-4.70
-8.15
-12.31
-16.95
-21.61
-25.80
-29.21
-31.90
-34.25
-36.96
-40.77
-46.26
-53.56
-62.15
-70.80
-77.72
-80.93
-78.85
-70.83
-57.44
-40.40
-22.07
-4.76
9.79
20.78
28.22
32.61
34.58
34.72
33.53
31.50
29.21
27.29
26.26
26.40
27.62
29.60
31.88
34.05
35.90
37.39
38.53
39.32
39.65
39.32
38.13
36.08
33.33
30.24
27.14
24.26
21.56
18.87
15.97
12.80
9.47
6.27
3.42
0.95
-1.35
-3.90
-7.05
-10.97
-15.49
-20.25
-24.83
-28.96
-32.66
-36.17
-39.94
-44.42
-50.01
-56.89
-64.80
-72.86
-79.58
-83.03
-81.46
-73.92
-60.73
-43.50
-24.70
-6.89
8.03
19.14
26.49
30.70
32.56
32.71
31.64
29.80
27.70
25.94
25.14
25.62
27.39
30.00
32.83
35.29
37.06
38.16
38.76
39.05
38.99
38.38
36.96
34.64
31.62
28.30
25.11
22.32
19.90
17.61
15.12
12.22
8.97
5.60
2.45
-0.29
-2.63
-4.88
-7.46
-10.70
-14.63
-18.96
-23.20
-26.84
-29.68
-31.88
-33.99
-36.73
-40.81
-46.64
-54.12
-62.51
-70.39
-75.90
-77.17
-72.90
-62.93
-48.36
-31.33
-14.31
0.61
12.23
20.33
25.32
27.86
28.44
27.45
25.21
22.23
19.22
16.99
16.10
16.80
18.87
21.79
24.96
27.89
30.32
32.16
33.45
34.26
34.60
34.37
33.43
31.60
28.83
25.21
21.07
16.90
13.20
10.30
8.10
6.20
3.99
0.98
-2.93
-7.44
-11.98
-15.95
-19.06
-21.44
-23.55
-25.99
-29.36
-34.04
-40.13
-47.32
-54.80
-61.22
-64.95
-64.39
-58.66
-47.88
-33.40
-17.35
-1.98
10.94
20.60
27.04
30.78
32.34
32.07
30.19
27.05
23.30
19.83
17.54
16.95
18.02
20.22
22.83
25.21
27.09
28.48
29.59
30.54
31.25
31.47
30.86
29.18
26.40
22.69
18.43
14.06
9.96
6.34
3.19
0.29
-2.72
-6.12
-10.03
-14.36
-18.77
-22.88
-26.40
-29.26
-31.74
-34.37
-37.85
-42.78
-49.44
-57.47
-65.79
-72.71
-76.27
-74.93
-68.01
-56.08
-40.80
-24.42
-9.07
3.78
13.57
20.43
24.82
27.17
27.75
26.76
24.62
22.01
19.80
18.81
19.45
21.57
24.54
27.55
29.90
31.35
32.04
32.38
32.73
33.17
33.45
33.10
31.73
29.16
25.62
21.55
17.48
13.77
10.49
7.43
4.20
0.49
-3.83
-8.61
-13.45
-17.89
-21.59
-24.50
-26.87
-29.24
-32.25
-36.52
-42.34
-49.57
-57.41
-64.47
-68.98
-69.23
-64.20
-53.93
-39.69
-23.57
-7.88
5.48
15.53
22.15
25.83
27.21
26.87
25.20
22.63
19.67
17.02
15.33
15.05
16.26
18.74
22.00
25.55
28.92
31.70
33.55
34.18
33.50
31.60
28.85
25.67
22.46
19.36
16.29
12.99
9.27
5.12
0.70
-3.66
-7.68
-11.15
-14.09
-16.66
-19.14
-21.85
-25.12
-29.23
-34.38
-40.47
-46.94
-52.71
-56.26
-56.06
-51.18
-41.67
-28.73
-14.37
-0.75
10.47
18.51
23.38
25.62
25.86
24.58
22.15
18.90
15.34
12.17
10.11
9.73
11.19
14.15
17.93
21.63
24.44
25.90
25.95
24.85
22.97
20.68
18.09
15.22
11.94
8.17
3.97
-0.49
-4.96
-9.29
-13.38
-17.35
-21.35
-25.62
-30.32
-35.69
-41.93
-49.15
-57.11
-65.00
-71.36
-74.35
-72.33
-64.58
-51.63
-35.23
-17.79
-1.58
11.84
21.89
28.71
32.85
34.79
34.89
33.42
30.79
27.63
24.76
22.98
22.80
24.30
27.04
30.26
33.18
35.18
36.06
35.98
35.29
34.30
33.06
31.41
28.99
25.53
20.95
15.48
9.57
3.75
-1.54
-6.11
-10.01
-13.52
-17.06
-21.16
-26.25
-32.59
-40.05
-47.96
-55.03
-59.58
-60.00
-55.25
-45.36
-31.48
-15.61
-0.00
13.55
24.05
31.37
35.92
38.23
38.75
37.75
35.50
32.45
29.24
26.59
25.05
24.88
25.93
27.77
29.86
31.67
32.86
33.26
32.84
31.70
29.96
27.75
25.15
22.19
18.88
15.18
11.09
6.65
1.98
-2.75
-7.32
-11.57
-15.43
-19.03
-22.70
-26.94
-32.18
-38.57
-45.69
-52.46
-57.31
-58.61
-55.21
-46.96
-34.80
-20.48
-6.04
6.80
17.01
24.27
28.77
30.88
30.97
29.41
26.68
23.39
20.32
18.16
17.41
18.14
20.06
22.57
24.97
26.68
27.41
27.16
26.24
25.01
23.70
22.28
20.47
17.89
14.32
9.81
4.74
-0.36
-4.98
-8.79
-11.78
-14.17
-16.42
-19.14
-22.91
-28.10
-34.67
-41.96
-48.73
-53.37
-54.37
-50.77
-42.59
-30.76
-17.00
-3.18
9.08
18.78
25.54
29.45
30.84
30.09
27.64
24.06
20.04
16.37
13.73
12.51
12.69
13.88
15.55
17.17
18.46
19.32
19.76
19.78
19.30
18.10
16.00
12.87
8.78
4.03
-0.91
-5.55
-9.51
-12.69
-15.34
-17.91
-21.03
-25.25
-30.78
-37.28
-43.83
-48.96
-51.08
-48.93
-42.08
-31.15
-17.73
-3.84
8.68
18.58
25.43
29.36
30.78
30.08
27.61
23.82
19.36
15.12
11.95
10.40
10.50
11.77
13.48
14.92
15.75
16.00
15.94
15.84
15.75
15.40
14.38
12.30
9.01
4.74
0.03
-4.52
-8.44
-11.65
-14.41
-17.31
-20.95
-25.79
-31.90
-38.82
-45.53
-50.59
-52.44
-49.90
-42.60
-31.25
-17.50
-3.45
9.01
18.68
25.24
29.04
30.66
30.60
29.10
26.37
22.70
18.74
15.32
13.25
12.99
14.41
16.87
19.48
21.45
22.40
22.47
22.02
21.47
20.98
20.37
19.26
17.21
13.95
9.54
4.30
-1.28
-6.63
-11.33
-15.24
-18.47
-21.45
-24.73
-28.88
-34.21
-40.68
-47.68
-54.09
-58.45
-59.31
-55.63
-47.27
-35.03
-20.59
-5.98
6.94
16.98
23.75
27.49
28.79
28.23
26.27
23.31
19.81
16.35
13.56
11.95
11.76
12.86
14.82
17.10
19.21
20.83
21.85
22.26
22.10
21.41
20.21
18.54
16.41
13.87
10.93
7.60
3.91
-0.03
-4.00
-7.74
-11.07
-13.96
-16.60
-19.36
-22.67
-26.92
-32.28
-38.51
-44.90
-50.26
-53.17
-52.31
-46.97
-37.37
-24.71
-10.83
2.29
13.09
20.79
25.27
26.96
26.46
24.36
21.20
17.49
13.84
10.82
8.95
8.49
9.38
11.25
13.53
15.67
17.21
17.96
17.97
17.48
16.72
15.86
14.88
13.57
11.60
8.70
4.73
-0.13
-5.46
-10.71
-15.40
-19.31
-22.47
-25.19
-27.88
-30.96
-34.83
-39.73
-45.71
-52.33
-58.62
-63.08
-64.03
-60.15
-51.05
-37.58
-21.62
-5.56
8.50
19.27
26.39
30.26
31.53
30.82
28.59
25.28
21.43
17.77
15.07
13.91
14.47
16.46
19.26
22.18
24.74
26.72
28.15
29.06
29.38
28.92
27.47
25.00
21.74
18.06
14.31
10.62
6.85
2.75
-1.83
-6.77
-11.72
-16.31
-20.32
-23.80
-27.08
-30.61
-34.86
-40.18
-46.71
-54.18
-61.74
-67.98
-71.12
-69.61
-62.64
-50.65
-35.19
-18.56
-2.98
9.92
19.46
25.74
29.25
30.54
30.06
28.29
25.80
23.34
21.65
21.22
22.10
23.95
26.15
28.15
29.66
30.71
31.54
32.38
33.30
34.08
34.28
33.43
31.24
27.77
23.45
18.95
14.89
11.56
8.85
6.28
3.26
-0.63
-5.39
-10.64
-15.72
-20.11
-23.57
-26.28
-28.81
-31.90
-36.22
-42.10
-49.35
-57.12
-63.98
-68.21
-68.19
-62.98
-52.67
-38.46
-22.36
-6.63
6.87
17.10
23.89
27.73
29.32
29.32
28.23
26.43
24.32
22.46
21.41
21.64
23.26
25.97
29.16
32.13
34.37
35.74
36.41
36.71
36.92
37.09
37.02
36.37
34.85
32.34
28.99
25.12
21.13
17.34
13.94
10.98
8.39
6.00
3.59
0.92
-2.18
-5.72
-9.56
-13.44
-17.08
-20.32
-23.12
-25.67
-28.27
-31.30
-35.18
-40.28
-46.73
-54.23
-61.78
-67.76
-70.25
-67.77
-59.78
-47.08
-31.59
-15.70
-1.52
9.68
17.60
22.59
25.21
25.96
25.14
23.08
20.26
17.42
15.38
14.78
15.84
18.26
21.43
24.56
27.12
28.89
30.02
30.77
31.33
31.65
31.45
30.42
28.31
25.19
21.40
17.43
13.75
10.58
7.92
5.50
2.97
0.03
-3.44
-7.30
-11.22
-14.80
-17.73
-19.99
-21.84
-23.80
-26.44
-30.19
-35.22
-41.26
-47.61
-53.18
-56.64
-56.71
-52.52
-44.00
-31.97
-18.00
-3.95
8.51
18.33
25.14
29.11
30.60
30.03
27.78
24.39
20.59
17.25
15.18
14.84
16.17
18.63
21.43
23.85
25.49
26.34
26.69
26.89
27.16
27.36
27.13
26.05
23.88
20.70
16.91
13.03
9.48
6.41
3.68
0.90
-2.27
-6.03
-10.33
-14.93
-19.46
-23.62
-27.23
-30.31
-33.14
-36.17
-39.90
-44.76
-50.86
-57.79
-64.59
-69.82
-71.88
-69.50
-62.13
-50.26
-35.32
-19.34
-4.33
8.18
17.49
23.63
27.10
28.55
28.54
27.50
25.84
23.99
22.45
21.67
21.94
23.22
25.19
27.37
29.27
30.61
31.38
31.77
32.04
32.31
32.45
32.18
31.16
29.16
26.20
22.55
18.58
14.74
11.30
8.35
5.77
3.28
0.51
-2.78
-6.65
-10.91
-15.20
-19.20
-22.68
-25.68
-28.46
-31.46
-35.16
-39.99
-46.13
-53.33
-60.77
-67.09
-70.64
-69.91
-64.08
-53.35
-39.01
-23.10
-7.79
5.23
15.09
21.77
25.81
27.90
28.58
28.16
26.93
25.24
23.67
22.84
23.18
24.74
27.19
29.89
32.29
34.06
35.16
35.80
36.19
36.42
36.41
35.95
34.81
32.91
30.31
27.22
23.91
20.58
17.36
14.28
11.32
8.48
5.74
3.08
0.40
-2.46
-5.65
-9.18
-12.93
-16.66
-20.16
-23.34
-26.31
-29.39
-32.95
-37.39
-42.93
-49.59
-56.96
-64.10
-69.56
-71.68
-69.10
-61.31
-48.95
-33.71
-17.80
-3.26
8.59
17.31
23.08
26.35
27.51
26.80
24.58
21.42
18.15
15.73
14.83
15.64
17.83
20.70
23.57
26.03
28.01
29.67
31.18
32.45
33.18
32.96
31.48
28.78
25.19
21.30
17.69
14.71
12.36
10.31
8.05
5.10
1.26
-3.29
-8.10
-12.54
-16.11
-18.65
-20.40
-21.99
-24.21
-27.81
-33.16
-40.11
-47.88
-55.09
-60.07
-61.27
-57.76
-49.55
-37.68
-23.88
-10.06
2.22
12.07
19.27
24.07
26.82
27.81
27.29
25.56
23.11
20.66
18.94
18.51
19.50
21.64
24.34
26.99
29.13
30.65
31.62
32.20
32.46
32.29
31.46
29.75
27.11
23.67
19.81
15.96
12.50
9.60
7.16
4.82
2.12
-1.32
-5.56
-10.38
-15.29
-19.78
-23.58
-26.74
-29.66
-32.87
-36.94
-42.24
-48.90
-56.60
-64.49
-71.19
-75.02
-74.44
-68.60
-57.74
-43.22
-27.11
-11.61
1.57
11.57
18.32
22.33
24.27
24.79
24.39
23.48
22.48
21.81
21.87
22.92
25.00
27.83
30.91
33.68
35.68
36.76
37.08
36.98
36.72
36.42
35.88
34.78
32.78
29.76
25.90
21.61
17.46
13.86
10.94
8.47
5.97
2.93
-0.90
-5.42
-10.16
-14.54
-18.14
-20.92
-23.22
-25.60
-28.70
-32.97
-38.66
-45.73
-53.71
-61.62
-67.98
-71.08
-69.49
-62.62
-51.03
-36.37
-20.81
-6.43
5.38
14.13
20.04
23.69
25.70
26.56
26.58
26.05
25.27
24.62
24.44
25.00
26.37
28.41
30.81
33.16
35.12
36.47
37.17
37.29
36.95
36.18
34.95
33.17
30.79
27.86
24.52
21.03
17.67
14.64
12.02
9.70
7.40
4.75
1.50
-2.43
-6.79
-11.15
-15.01
-18.07
-20.33
-22.13
-24.04
-26.64
-30.42
-35.65
-42.26
-49.71
-56.96
-62.54
-64.85
-62.62
-55.43
-43.85
-29.42
-14.21
-0.15
11.37
19.73
25.05
27.82
28.62
27.96
26.25
23.95
21.62
19.85
19.18
19.90
21.90
24.72
27.70
30.26
32.09
33.20
33.83
34.23
34.48
34.43
33.76
32.17
29.50
25.87
21.66
17.36
13.41
10.10
7.45
5.20
2.94
0.28
-3.04
-6.98
-11.24
-15.43
-19.19
-22.36
-25.08
-27.66
-30.56
-34.22
-39.03
-45.15
-52.32
-59.70
-65.82
-68.89
-67.29
-60.24
-48.21
-32.81
-16.38
-1.16
11.26
20.25
25.99
29.07
30.11
29.62
27.97
25.59
23.07
21.15
20.47
21.36
23.67
26.80
29.95
32.44
34.00
34.72
34.97
35.08
35.18
35.10
34.53
33.25
31.12
28.26
24.93
21.44
18.05
14.96
12.20
9.74
7.41
5.00
2.34
-0.69
-4.14
-7.99
-12.11
-16.35
-20.54
-24.52
-28.18
-31.58
-34.94
-38.71
-43.37
-49.24
-56.21
-63.46
-69.57
-72.73
-71.35
-64.59
-52.81
-37.52
-20.99
-5.58
6.90
15.57
20.51
22.47
22.44
21.35
19.88
18.48
17.49
17.22
17.96
19.81
22.71
26.28
29.97
33.29
35.92
37.83
39.22
40.32
41.19
41.75
41.69
40.74
38.78
35.95
32.63
29.26
26.25
23.79
21.84
20.19
18.51
16.51
14.02
11.10
7.97
4.94
2.24
-0.05
-2.08
-4.12
-6.53
-9.56
-13.30
-17.62
-22.16
-26.54
-30.40
-33.60
-36.26
-38.76
-41.68
-45.66
-51.17
-58.24
-66.24
-73.83
-79.18
-80.41
-76.24
-66.42
-51.97
-34.97
-17.89
-2.92
8.63
16.44
21.05
23.34
24.19
24.21
23.71
22.97
22.22
21.82
22.12
23.30
25.26
27.65
30.04
32.08
33.65
34.84
35.89
36.90
37.75
38.17
37.81
36.50
34.29
31.48
28.44
25.55
23.04
20.96
19.23
17.65
15.94
13.86
11.23
8.09
4.71
1.53
-1.03
-2.77
-3.86
-4.77
-6.10
-8.33
-11.60
-15.67
-20.06
-24.28
-28.00
-31.19
-34.03
-36.90
-40.19
-44.30
-49.49
-55.71
-62.38
-68.34
-71.97
-71.66
-66.38
-56.20
-42.31
-26.69
-11.49
1.62
11.74
18.74
22.96
24.86
24.95
23.70
21.64
19.39
17.55
16.59
16.73
17.86
19.72
21.95
24.25
26.47
28.59
30.61
32.51
34.12
35.12
35.19
34.15
32.08
29.34
26.43
23.77
21.55
19.67
17.82
15.65
12.94
9.75
6.34
3.08
0.26
-2.07
-4.10
-6.17
-8.64
-11.72
-15.37
-19.33
-23.26
-26.83
-29.92
-32.61
-35.25
-38.35
-42.46
-47.97
-54.85
-62.43
-69.39
-73.96
-74.50
-69.95
-60.31
-46.70
-31.00
-15.33
-1.45
9.62
17.60
22.75
25.61
26.69
26.47
25.39
23.95
22.65
21.92
21.96
22.75
24.09
25.69
27.36
29.08
30.88
32.85
34.87
36.70
37.96
38.31
37.57
35.79
33.22
30.24
27.20
24.38
21.91
19.76
17.75
15.63
13.19
10.35
7.18
3.97
0.97
-1.63
-3.90
-6.15
-8.75
-11.95
-15.77
-19.87
-23.79
-27.10
-29.66
-31.71
-33.83
-36.71
-40.91
-46.67
-53.68
-61.19
-68.03
-72.75
-74.00
-70.81
-62.91
-50.97
-36.42
-21.12
-6.85
5.11
14.19
20.45
24.28
26.21
26.67
26.03
24.66
23.01
21.53
20.64
20.60
21.42
22.94
24.88
26.96
29.02
31.04
33.06
35.07
36.85
38.02
38.17
37.02
34.66
31.52
28.21
25.28
22.96
21.13
19.37
17.24
14.53
11.31
7.95
4.82
2.14
-0.13
-2.25
-4.56
-7.34
-10.62
-14.27
-17.99
-21.47
-24.49
-27.05
-29.35
-31.80
-34.91
-39.13
-44.66
-51.25
-58.11
-64.03
-67.54
-67.37
-62.77
-53.82
-41.44
-27.22
-13.01
-0.44
9.47
16.38
20.52
22.46
22.80
22.01
20.47
18.47
16.35
14.56
13.52
13.53
14.64
16.66
19.21
21.90
24.43
26.68
28.63
30.26
31.48
32.10
31.89
30.69
28.53
25.61
22.21
18.64
15.13
11.83
8.81
6.08
3.53
1.01
-1.73
-4.85
-8.39
-12.21
-15.97
-19.38
-22.25
-24.63
-26.82
-29.30
-32.56
-36.99
-42.71
-49.37
-56.04
-61.30
-63.51
-61.37
-54.38
-43.17
-29.36
-15.07
-2.15
8.19
15.67
20.64
23.70
25.30
25.69
24.97
23.32
21.15
19.07
17.71
17.49
18.47
20.38
22.79
25.26
27.50
29.44
31.05
32.33
33.17
33.38
32.81
31.42
29.31
26.71
23.80
20.68
17.37
13.85
10.16
6.44
2.88
-0.38
-3.35
-6.20
-9.17
-12.42
-15.89
-19.34
-22.48
-25.18
-27.54
-29.97
-32.99
-37.09
-42.53
-49.19
-56.49
-63.36
-68.41
-70.20
-67.64
-60.35
-48.90
-34.72
-19.69
-5.66
6.04
14.81
20.70
24.14
25.70
25.87
25.12
23.87
22.56
21.63
21.40
22.01
23.36
25.19
27.16
29.03
30.69
32.15
33.48
34.67
35.63
36.13
35.95
34.97
33.21
30.84
28.10
25.19
22.25
19.37
16.57
13.90
11.36
8.96
6.62
4.17
1.45
-1.70
-5.33
-9.33
-13.45
-17.34
-20.74
-23.55
-25.98
-28.46
-31.54
-35.68
-41.08
-47.55
-54.38
-60.43
-64.30
-64.64
-60.58
-52.12
-40.17
-26.42
-12.78
-0.88
8.41
14.95
19.19
21.71
22.95
23.12
22.37
20.95
19.34
18.12
17.81
18.61
20.37
22.69
25.12
27.36
29.33
31.08
32.67
34.03
34.97
35.25
34.74
33.44
31.48
29.07
26.34
23.34
20.09
16.63
13.08
9.62
6.41
3.46
0.61
-2.38
-5.69
-9.31
-13.00
-16.41
-19.26
-21.51
-23.46
-25.61
-28.55
-32.72
-38.23
-44.81
-51.76
-57.97
-62.12
-62.95
-59.62
-52.02
-40.87
-27.62
-14.02
-1.70
8.24
15.39
19.86
22.12
22.67
22.00
20.53
18.73
17.12
16.20
16.31
17.50
19.52
21.92
24.23
26.19
27.72
28.92
29.90
30.70
31.20
31.22
30.59
29.22
27.14
24.52
21.58
18.60
15.84
13.43
11.34
9.35
7.11
4.30
0.77
-3.35
-7.77
-12.09
-16.02
-19.50
-22.60
-25.56
-28.70
-32.37
-36.88
-42.37
-48.60
-54.81
-59.79
-62.08
-60.49
-54.55
-44.72
-32.29
-18.99
-6.48
4.07
12.11
17.69
21.14
22.88
23.30
22.67
21.29
19.55
17.93
16.96
16.99
18.07
19.93
22.07
24.02
25.49
26.53
27.38
28.23
29.11
29.75
29.76
28.78
26.68
23.64
20.08
16.49
13.29
10.61
8.35
6.15
3.65
0.64
-2.87
-6.61
-10.19
-13.27
-15.74
-17.73
-19.62
-21.89
-25.03
-29.37
-34.96
-41.45
-48.03
-53.49
-56.49
-55.88
-51.12
-42.51
-31.14
-18.62
-6.56
3.84
11.96
17.75
21.42
23.18
23.24
21.78
19.15
15.98
13.01
10.98
10.36
11.17
13.09
15.59
18.14
20.38
22.11
23.31
24.02
24.26
24.00
23.15
21.65
19.51
16.84
13.86
10.82
7.85
4.91
1.87
-1.46
-5.15
-9.05
-12.86
-16.27
-19.16
-21.67
-24.19
-27.23
-31.21
-36.35
-42.44
-48.93
-54.81
-58.90
-59.92
-57.00
-49.85
-39.08
-26.04
-12.50
-0.15
9.85
17.12
21.88
24.67
26.01
26.23
25.47
23.96
22.14
20.67
20.18
21.04
23.13
25.91
28.59
30.56
31.56
31.78
31.66
31.56
31.58
31.44
30.65
28.82
25.85
22.04
17.95
14.20
11.15
8.78
6.70
4.37
1.32
-2.59
-7.19
-12.02
-16.60
-20.60
-23.95
-26.85
-29.72
-33.06
-37.34
-42.90
-49.73
-57.30
-64.47
-69.61
-71.06
-67.68
-59.32
-46.92
-32.24
-17.30
-3.74
7.45
15.92
21.79
25.30
26.79
26.61
25.27
23.45
21.90
21.23
21.75
23.44
25.93
28.77
31.54
34.01
36.09
37.78
39.06
39.82
39.92
39.24
37.81
35.78
33.37
30.79
28.21
25.63
23.02
20.27
17.34
14.21
10.95
7.67
4.47
1.34
-1.76
-4.99
-8.45
-12.11
-15.78
-19.21
-22.21
-24.76
-27.09
-29.67
-33.00
-37.53
-43.46
-50.60
-58.26
-65.19
-69.76
-70.34
-65.86
-56.28
-42.76
-27.36
-12.37
0.42
10.13
16.86
21.24
23.93
25.37
25.72
25.11
23.86
22.55
21.81
22.10
23.50
25.77
28.43
31.05
33.38
35.36
37.03
38.39
39.34
39.67
39.20
37.83
35.67
32.95
29.96
26.90
23.84
20.73
17.49
14.14
10.84
7.77
5.11
2.87
0.88
-1.14
-3.45
-6.20
-9.37
-12.78
-16.18
-19.40
-22.39
-25.23
-28.21
-31.75
-36.23
-41.88
-48.50
-55.37
-61.22
-64.48
-63.81
-58.52
-48.89
-36.16
-22.11
-8.56
3.08
12.08
18.32
22.08
23.79
23.87
22.75
20.84
18.65
16.76
15.67
15.74
17.03
19.27
21.95
24.51
26.52
27.85
28.64
29.12
29.46
29.60
29.29
28.26
26.36
23.69
20.58
17.41
14.48
11.85
9.36
6.71
3.64
-0.00
-4.15
-8.60
-13.07
-17.25
-20.94
-24.05
-26.66
-29.06
-31.71
-35.16
-39.84
-45.86
-52.75
-59.43
-64.37
-65.98
-63.14
-55.59
-44.11
-30.23
-15.87
-2.73
8.05
16.03
21.32
24.30
25.43
25.13
23.83
22.03
20.35
19.36
19.45
20.65
22.66
24.97
27.10
28.77
30.01
30.99
31.89
32.73
33.37
33.51
32.91
31.45
29.12
26.07
22.49
18.65
14.82
11.29
8.26
5.81
3.76
1.77
-0.65
-3.83
-7.88
-12.53
-17.32
-21.73
-25.40
-28.34
-30.84
-33.47
-36.89
-41.60
-47.73
-54.89
-62.08
-67.85
-70.61
-69.09
-62.77
-52.10
-38.44
-23.66
-9.64
2.23
11.28
17.47
21.23
23.11
23.66
23.31
22.52
21.76
21.47
22.04
23.59
25.94
28.74
31.56
34.08
36.15
37.71
38.77
39.26
39.13
38.33
36.93
35.05
32.82
30.31
27.54
24.55
21.42
18.32
15.40
12.76
10.39
8.15
5.87
3.39
0.64
-2.47
-5.93
-9.65
-13.48
-17.13
-20.38
-23.12
-25.56
-28.17
-31.55
-36.21
-42.35
-49.59
-57.01
-63.22
-66.70
-66.14
-60.88
-51.18
-38.18
-23.67
-9.56
2.58
11.86
18.15
21.83
23.49
23.71
22.91
21.48
19.78
18.27
17.40
17.48
18.56
20.45
22.71
24.89
26.66
27.88
28.61
28.98
29.13
29.12
28.88
28.33
27.34
25.86
23.89
21.52
18.86
16.02
13.13
10.25
7.46
4.72
2.01
-0.75
-3.63
-6.62
-9.64
-12.58
-15.35
-17.90
-20.30
-22.76
-25.60
-29.18
-33.78
-39.42
-45.74
-51.90
-56.64
-58.63
-56.80
-50.73
-40.87
-28.38
-14.93
-2.19
8.58
16.70
22.10
25.13
26.25
25.94
24.57
22.46
20.03
17.78
16.30
16.03
17.11
19.31
22.10
24.89
27.22
28.93
30.10
30.87
31.31
31.29
30.60
29.03
26.58
23.45
19.95
16.43
13.12
10.13
7.43
4.88
2.31
-0.47
-3.61
-7.14
-10.97
-14.92
-18.72
-22.20
-25.29
-28.07
-30.83
-33.93
-37.80
-42.78
-48.87
-55.68
-62.28
-67.35
-69.46
-67.45
-60.93
-50.37
-37.11
-22.92
-9.54
1.82
10.64
17.01
21.32
23.95
25.17
25.17
24.26
22.94
21.81
21.40
21.97
23.43
25.44
27.64
29.74
31.63
33.27
34.63
35.60
36.06
35.92
35.17
33.92
32.23
30.16
27.70
24.86
21.73
18.46
15.23
12.16
9.24
6.38
3.44
0.35
-2.83
-6.04
-9.18
-12.25
-15.28
-18.29
-21.24
-24.06
-26.75
-29.47
-32.62
-36.66
-41.92
-48.25
-54.87
-60.36
-63.08
-61.64
-55.49
-45.16
-32.12
-18.32
-5.57
4.91
12.68
17.86
20.90
22.28
22.41
21.66
20.43
19.17
18.27
17.97
18.34
19.31
20.71
22.34
24.03
25.60
26.93
27.91
28.52
28.77
28.69
28.27
27.45
26.15
24.33
22.03
19.37
16.55
13.75
11.03
8.37
5.60
2.53
-1.00
-4.93
-9.01
-12.84
-16.08
-18.60
-20.59
-22.51
-24.93
-28.33
-32.93
-38.62
-44.84
-50.67
-54.96
-56.51
-54.43
-48.42
-38.94
-27.13
-14.54
-2.67
7.33
14.89
19.98
22.84
23.85
23.43
21.95
19.86
17.62
15.66
14.33
13.82
14.15
15.22
16.81
18.71
20.69
22.53
24.03
24.98
25.12
24.29
22.44
19.72
16.48
13.19
10.22
7.72
5.48
3.07
0.04
-3.81
-8.31
-13.03
-17.43
-21.12
-24.05
-26.48
-28.90
-31.87
-35.83
-40.96
-47.08
-53.48
-59.04
-62.34
-62.08
-57.47
-48.60
-36.48
-22.75
-9.25
2.54
11.75
18.19
22.14
24.07
24.48
23.81
22.47
20.86
19.46
18.66
18.76
19.83
21.69
23.95
26.13
27.89
29.08
29.80
30.29
30.73
31.05
30.94
29.97
27.83
24.53
20.47
16.25
12.44
9.34
6.88
4.70
2.37
-0.45
-3.90
-7.89
-12.16
-16.38
-20.23
-23.52
-26.30
-28.94
-32.09
-36.41
-42.25
-49.36
-56.72
-62.81
-65.93
-64.81
-58.93
-48.75
-35.59
-21.24
-7.53
4.14
13.03
19.14
22.90
24.92
25.72
25.60
24.81
23.65
22.56
22.07
22.57
24.15
26.52
29.22
31.72
33.69
34.97
35.62
35.73
35.39
34.64
33.47
31.88
29.87
27.52
24.94
22.26
19.62
17.08
14.65
12.30
9.92
7.40
4.62
1.48
-2.08
-6.01
-10.09
-14.04
-17.56
-20.49
-22.91
-25.09
-27.50
-30.70
-35.12
-40.95
-47.93
-55.20
-61.40
-64.89
-64.28
-58.85
-48.90
-35.74
-21.29
-7.50
4.13
12.90
18.83
22.41
24.28
24.93
24.71
23.82
22.53
21.18
20.26
20.20
21.22
23.20
25.73
28.23
30.23
31.53
32.20
32.48
32.54
32.36
31.78
30.58
28.72
26.34
23.68
20.99
18.38
15.82
13.24
10.60
7.90
5.15
2.33
-0.65
-3.85
-7.23
-10.60
-13.71
-16.38
-18.63
-20.68
-22.91
-25.74
-29.54
-34.50
-40.55
-47.22
-53.59
-58.40
-60.24
-58.07
-51.51
-41.14
-28.30
-14.77
-2.27
7.98
15.45
20.18
22.61
23.31
22.77
21.38
19.47
17.35
15.35
13.80
13.03
13.20
14.32
16.22
18.59
21.06
23.29
24.97
25.92
25.99
25.17
23.53
21.25
18.58
15.77
13.00
10.36
7.79
5.09
2.04
-1.49
-5.48
-9.72
-13.83
-17.54
-20.71
-23.52
-26.39
-29.85
-34.32
-39.88
-46.17
-52.31
-57.03
-59.00
-57.17
-51.10
-41.23
-28.72
-15.23
-2.37
8.62
17.10
22.95
26.37
27.70
27.30
25.57
23.03
20.30
18.02
16.62
16.30
16.93
18.24
19.88
21.62
23.28
24.74
25.82
26.29
25.91
24.58
22.39
19.59
16.55
13.57
10.75
7.98
5.02
1.60
-2.42
-6.98
-11.83
-16.61
-21.00
-24.85
-28.22
-31.38
-34.81
-39.00
-44.35
-50.87
-57.97
-64.41
-68.52
-68.63
-63.70
-53.76
-40.01
-24.46
-9.28
3.85
14.08
21.38
26.17
28.97
30.17
30.09
29.02
27.44
25.92
25.01
25.09
26.23
28.20
30.56
32.83
34.66
35.86
36.44
36.56
36.38
35.95
35.26
34.13
32.41
30.05
27.08
23.71
20.15
16.62
13.28
10.21
7.43
4.85
2.27
-0.55
-3.85
-7.76
-12.19
-16.89
-21.49
-25.65
-29.27
-32.51
-35.77
-39.59
-44.49
-50.75
-58.23
-66.23
-73.45
-78.17
-78.75
-74.15
-64.36
-50.47
-34.42
-18.34
-3.98
7.71
16.49
22.63
26.60
28.82
29.70
29.68
29.27
28.99
29.24
30.17
31.66
33.45
35.22
36.78
38.08
39.19
40.20
41.12
41.89
42.30
42.10
41.08
39.19
36.57
33.55
30.52
27.82
25.51
23.43
21.28
18.75
15.69
12.18
8.49
4.97
1.86
-0.80
-3.25
-5.86
-8.99
-12.77
-17.00
-21.30
-25.21
-28.53
-31.39
-34.30
-37.93
-42.91
-49.47
-57.31
-65.52
-72.64
-77.01
-77.10
-72.00
-61.86
-47.81
-31.80
-15.96
-2.02
9.05
17.06
22.40
25.60
27.16
27.41
26.71
25.50
24.40
24.00
24.65
26.37
28.80
31.43
33.79
35.68
37.12
38.27
39.24
39.99
40.35
40.08
38.99
37.09
34.54
31.66
28.75
26.02
23.49
21.04
18.43
15.49
12.18
8.61
5.03
1.68
-1.34
-4.10
-6.81
-9.73
-12.98
-16.47
-19.96
-23.16
-25.88
-28.19
-30.45
-33.19
-36.95
-42.05
-48.38
-55.29
-61.63
-65.93
-66.81
-63.37
-55.50
-43.99
-30.28
-16.07
-2.88
8.25
16.84
22.79
26.26
27.47
26.74
24.55
21.57
18.65
16.60
16.00
17.00
19.28
22.22
25.13
27.51
29.20
30.31
31.06
31.62
31.96
31.90
31.20
29.69
27.38
24.45
21.17
17.80
14.53
11.48
8.64
5.98
3.36
0.60
-2.52
-6.12
-10.15
-14.41
-18.53
-22.17
-25.25
-27.93
-30.61
-33.76
-37.77
-42.82
-48.78
-55.14
-60.99
-65.09
-66.13
-63.08
-55.54
-44.05
-29.91
-14.93
-0.85
11.01
19.99
25.99
29.31
30.43
29.91
28.33
26.30
24.35
22.92
22.26
22.45
23.38
24.84
26.58
28.39
30.09
31.57
32.75
33.54
33.88
33.67
32.84
31.32
29.17
26.48
23.46
20.26
17.03
13.79
10.58
7.41
4.30
1.33
-1.46
-4.13
-6.82
-9.72
-12.98
-16.61
-20.47
-24.29
-27.81
-30.86
-33.59
-36.41
-39.97
-44.86
-51.32
-58.96
-66.64
-72.71
-75.38
-73.32
-66.13
-54.47
-39.89
-24.37
-9.72
2.76
12.52
19.56
24.18
26.82
27.85
27.67
26.74
25.57
24.67
24.42
24.98
26.24
27.99
30.00
32.10
34.24
36.35
38.32
39.97
41.07
41.43
40.94
39.59
37.47
34.76
31.71
28.56
25.53
22.70
20.02
17.33
14.45
11.31
8.02
4.80
1.87
-0.68
-2.99
-5.31
-7.95
-11.07
-14.63
-18.42
-22.13
-25.54
-28.60
-31.50
-34.61
-38.39
-43.28
-49.48
-56.78
-64.34
-70.78
-74.39
-73.65
-67.78
-57.06
-42.86
-27.15
-11.97
1.19
11.58
19.11
24.09
26.89
27.89
27.43
25.94
23.97
22.12
20.95
20.78
21.66
23.38
25.61
28.00
30.31
32.39
34.14
35.47
36.26
36.41
35.86
34.69
33.01
30.93
28.54
25.90
23.02
19.94
16.70
13.40
10.13
6.99
4.07
1.41
-1.04
-3.44
-6.01
-8.90
-12.14
-15.58
-18.96
-22.07
-24.83
-27.37
-30.06
-33.34
-37.67
-43.28
-49.97
-57.00
-63.03
-66.42
-65.71
-60.12
-49.94
-36.50
-21.77
-7.72
4.25
13.49
20.03
24.22
26.43
26.88
25.75
23.36
20.29
17.35
15.30
14.64
15.42
17.29
19.63
21.88
23.70
25.01
25.94
26.68
27.30
27.67
27.53
26.58
24.65
21.77
18.19
14.37
10.75
7.62
5.02
2.72
0.35
-2.44
-5.80
-9.62
-13.61
-17.41
-20.75
-23.57
-26.05
-28.50
-31.32
-34.94
-39.69
-45.63
-52.46
-59.32
-64.88
-67.62
-66.26
-60.22
-49.88
-36.49
-21.84
-7.76
4.35
13.69
20.05
23.63
24.84
24.19
22.26
19.60
16.78
14.22
12.23
10.92
10.16
9.62
8.91
7.55
5.20
1.65
-3.09
-8.92
-15.61
-22.96
-30.74
-38.69
-46.58
-54.19
-61.42
-68.29
-74.85
-81.09
-86.87
-91.92
-95.94
-98.64
-99.75
-98.96
-95.92
-90.33
-82.18
-71.89
-60.35
-48.79
-38.42
-30.16
-24.43
-21.07
-19.40
-18.39
-16.84
-13.57
-7.81
0.66
11.41
23.49
35.81
47.45
57.83
66.64
73.73
79.03
82.56
84.54
85.29
85.13
84.12
82.09
78.97
75.17
71.86
70.72
73.17
79.56
88.75
98.41
106.08
110.21
110.78
109.13
107.05
105.85
105.84
106.34
106.29
104.74
101.27
95.78
88.38
79.12
68.03
55.27
41.41
27.45
14.60
3.99
-3.78
-8.81
-11.84
-14.01
-16.40
-19.65
-23.67
-27.75
-30.75
-31.60
-29.60
-24.74
-17.67
-9.51
-1.61
4.95
9.49
11.96
12.77
12.51
11.66
10.35
8.43
5.63
1.88
-2.48
-6.76
-10.19
-12.21
-12.74
-12.20
-11.30
-10.76
-11.00
-12.03
-13.49
-14.92
-15.93
-16.38
-16.46
-16.56
-17.04
-18.09
-19.64
-21.43
-23.13
-24.56
-25.75
-26.92
-28.34
-30.27
-32.86
-36.17
-40.12
-44.55
-49.05
-52.95
-55.34
-55.26
-52.00
-45.35
-35.76
-24.26
-12.18
-0.84
8.70
15.85
20.42
22.56
22.67
21.23
18.86
16.13
13.58
11.63
10.53
10.31
10.85
11.92
13.21
14.40
15.27
15.71
15.67
15.17
14.16
12.49
9.99
6.55
2.31
-2.33
-6.83
-10.70
-13.84
-16.52
-19.27
-22.60
-26.80
-31.80
-37.25
-42.64
-47.31
-50.53
-51.52
-49.65
-44.64
-36.74
-26.80
-16.03
-5.70
3.26
10.37
15.58
19.04
20.94
21.39
20.50
18.51
15.85
13.15
11.04
9.98
10.09
11.11
12.57
13.93
14.86
15.27
15.30
15.13
14.80
14.16
12.82
10.45
6.91
2.45
-2.44
-7.12
-11.14
-14.40
-17.17
-19.92
-23.16
-27.23
-32.23
-37.90
-43.68
-48.68
-51.83
-52.11
-48.85
-41.99
-32.13
-20.41
-8.21
3.18
12.85
20.37
25.71
29.13
30.98
31.59
31.27
30.35
29.14
27.98
27.14
26.84
27.11
27.84
28.88
30.01
31.11
32.12
33.00
33.72
34.17
34.21
33.70
32.57
30.82
28.62
26.21
23.81
21.62
19.69
17.92
16.14
14.18
11.90
9.30
6.46
3.58
0.83
-1.67
-3.88
-5.94
-8.08
-10.52
-13.44
-16.86
-20.61
-24.43
-28.06
-31.33
-34.32
-37.31
-40.84
-45.49
-51.68
-59.36
-67.79
-75.53
-80.76
-81.77
-77.54
-68.11
-54.60
-38.88
-22.97
-8.54
3.41
12.58
19.17
23.65
26.52
28.21
29.08
29.47
29.65
29.92
30.48
31.38
32.53
33.74
34.84
35.77
36.62
37.52
38.56
39.62
40.40
40.49
39.58
37.59
34.75
31.47
28.18
25.12
22.31
19.53
16.54
13.18
9.54
5.87
2.44
-0.55
-3.10
-5.38
-7.67
-10.24
-13.28
-16.89
-20.96
-25.26
-29.44
-33.19
-36.32
-38.98
-41.65
-45.00
-49.66
-55.81
-62.98
-69.90
-74.82
-75.98
-72.17
-63.15
-49.80
-33.81
-17.25
-1.96
10.78
20.43
27.05
31.10
33.15
33.77
33.47
32.70
31.80
31.11
30.83
31.00
31.56
32.31
33.03
33.60
34.01
34.34
34.70
35.10
35.43
35.47
35.00
33.91
32.20
30.03
27.56
24.96
22.28
19.47
16.44
13.11
9.54
5.92
2.52
-0.37
-2.62
-4.35
-5.86
-7.63
-10.02
-13.17
-16.92
-20.89
-24.62
-27.86
-30.61
-33.23
-36.20
-40.05
-45.10
-51.25
-57.90
-63.98
-68.08
-68.80
-65.11
-56.71
-44.19
-28.96
-12.86
2.22
14.84
24.25
30.38
33.74
35.02
34.91
33.95
32.51
30.91
29.47
28.47
28.08
28.23
28.70
29.13
29.33
29.27
29.12
29.12
29.36
29.74
30.00
29.84
29.01
27.45
25.25
22.61
19.81
17.07
14.50
12.08
9.67
7.11
4.33
1.40
-1.56
-4.36
-6.89
-9.20
-11.37
-13.58
-15.95
-18.48
-21.12
-23.76
-26.26
-28.52
-30.56
-32.53
-34.73
-37.57
-41.42
-46.33
-51.85
-56.90
-59.99
-59.61
-54.79
-45.50
-32.66
-17.98
-3.39
9.47
19.58
26.58
30.65
32.26
31.98
30.39
28.02
25.39
22.99
21.16
20.10
19.83
20.23
21.06
22.12
23.22
24.27
25.18
25.88
26.23
26.13
25.47
24.23
22.48
20.36
18.02
15.58
13.15
10.75
8.37
5.96
3.50
0.98
-1.49
-3.81
-5.89
-7.76
-9.55
-11.44
-13.62
-16.13
-18.84
-21.49
-23.85
-25.79
-27.43
-29.09
-31.22
-34.24
-38.36
-43.42
-48.74
-53.26
-55.67
-54.81
-50.02
-41.43
-29.92
-16.87
-3.85
7.81
17.23
24.03
28.19
29.95
29.68
27.83
24.91
21.50
18.13
15.29
13.29
12.28
12.20
12.91
14.15
15.66
17.19
18.55
19.62
20.35
20.72
20.67
20.08
18.82
16.78
14.02
10.76
7.40
4.36
1.93
0.16
-1.17
-2.42
-4.00
-6.11
-8.75
-11.71
-14.70
-17.42
-19.73
-21.62
-23.22
-24.73
-26.46
-28.72
-31.74
-35.58
-39.95
-44.15
-47.13
-47.74
-45.05
-38.70
-29.07
-17.26
-4.74
6.94
16.63
23.67
27.95
29.72
29.36
27.30
23.97
19.89
15.68
12.00
9.39
8.13
8.10
8.97
10.27
11.64
12.94
14.15
15.33
16.45
17.35
17.76
17.40
16.06
13.71
10.51
6.78
2.95
-0.62
-3.72
-6.31
-8.56
-10.69
-12.87
-15.14
-17.44
-19.61
-21.54
-23.22
-24.73
-26.29
-28.18
-30.69
-33.97
-38.00
-42.40
-46.47
-49.25
-49.67
-46.91
-40.62
-31.14
-19.44
-6.92
4.99
15.14
22.81
27.78
30.24
30.57
29.23
26.67
23.33
19.64
16.04
12.99
10.89
9.93
10.16
11.30
12.96
14.67
16.09
17.07
17.61
17.75
17.49
16.70
15.24
13.02
10.16
6.95
3.79
0.94
-1.54
-3.82
-6.25
-9.11
-12.44
-16.04
-19.54
-22.55
-24.87
-26.63
-28.19
-30.07
-32.76
-36.54
-41.36
-46.72
-51.67
-54.92
-55.14
-51.40
-43.52
-32.20
-18.86
-5.23
7.19
17.40
24.98
29.91
32.41
32.71
31.18
28.30
24.76
21.23
18.29
16.23
15.08
14.70
14.91
15.54
16.48
17.65
18.94
20.27
21.49
22.38
22.65
22.02
20.29
17.51
13.96
10.14
6.52
3.39
0.80
-1.51
-3.86
-6.55
-9.71
-13.23
-16.86
-20.22
-23.04
-25.25
-27.06
-28.94
-31.45
-34.95
-39.40
-44.23
-48.41
-50.71
-50.05
-45.84
-38.10
-27.50
-15.18
-2.44
9.47
19.53
27.10
31.91
34.04
33.84
31.81
28.54
24.60
20.50
16.68
13.52
11.33
10.30
10.44
11.60
13.44
15.61
17.73
19.53
20.83
21.48
21.34
20.37
18.56
16.09
13.28
10.48
7.95
5.74
3.67
1.37
-1.50
-5.08
-9.22
-13.53
-17.48
-20.70
-23.12
-25.04
-27.03
-29.72
-33.49
-38.33
-43.67
-48.54
-51.69
-51.99
-48.64
-41.44
-30.90
-18.08
-4.49
8.34
19.13
27.08
31.97
34.05
33.83
31.90
28.81
25.01
20.94
17.07
13.88
11.73
10.81
11.02
12.12
13.75
15.62
17.55
19.35
20.87
21.86
22.06
21.34
19.74
17.43
14.66
11.61
8.36
4.92
1.28
-2.43
-6.00
-9.17
-11.85
-14.13
-16.28
-18.69
-21.72
-25.57
-30.28
-35.63
-41.08
-45.80
-48.68
-48.57
-44.65
-36.76
-25.62
-12.58
0.65
12.56
22.12
28.88
32.88
34.42
33.91
31.81
28.55
24.63
20.57
16.86
13.93
12.11
11.51
12.04
13.41
15.23
17.10
18.73
19.95
20.69
20.84
20.30
18.98
16.90
14.27
11.38
8.51
5.78
3.09
0.22
-2.99
-6.52
-10.18
-13.68
-16.80
-19.57
-22.26
-25.27
-29.01
-33.66
-38.98
-44.28
-48.46
-50.26
-48.63
-43.07
-33.83
-21.90
-8.69
4.26
15.64
24.54
30.53
33.56
33.94
32.21
29.00
24.99
20.80
16.93
13.76
11.61
10.64
10.85
12.09
14.02
16.22
18.29
19.94
20.97
21.30
20.95
19.97
18.47
16.57
14.38
11.98
9.32
6.35
3.00
-0.70
-4.66
-8.65
-12.45
-15.91
-19.00
-21.85
-24.74
-27.98
-31.90
-36.59
-41.78
-46.77
-50.48
-51.65
-49.27
-42.86
-32.81
-20.29
-6.90
5.75
16.41
24.47
29.72
32.31
32.52
30.78
27.63
23.77
19.92
16.71
14.53
13.48
13.44
14.20
15.53
17.25
19.14
20.97
22.44
23.30
23.39
22.65
21.19
19.19
16.85
14.30
11.58
8.66
5.50
2.05
-1.62
-5.41
-9.18
-12.79
-16.15
-19.22
-22.07
-24.90
-28.02
-31.76
-36.28
-41.37
-46.26
-49.78
-50.59
-47.70
-40.79
-30.44
-17.92
-4.85
7.23
17.21
24.54
29.09
31.12
31.04
29.41
26.78
23.72
20.66
17.95
15.79
14.32
13.66
13.86
14.90
16.55
18.51
20.36
21.71
22.31
22.10
21.14
19.55
17.45
14.88
11.93
8.68
5.22
1.70
-1.80
-5.23
-8.59
-11.89
-15.10
-18.18
-21.09
-23.94
-27.00
-30.66
-35.19
-40.44
-45.71
-49.74
-51.05
-48.55
-41.80
-31.37
-18.60
-5.22
7.12
17.22
24.49
28.91
30.80
30.66
29.04
26.43
23.32
20.16
17.40
15.41
14.42
14.42
15.15
16.31
17.55
18.70
19.70
20.56
21.23
21.58
21.39
20.47
18.76
16.38
13.54
10.49
7.40
4.32
1.19
-2.08
-5.50
-8.93
-12.17
-15.05
-17.60
-20.05
-22.91
-26.64
-31.53
-37.34
-43.34
-48.29
-50.84
-49.90
-44.97
-36.35
-25.00
-12.32
0.23
11.47
20.61
27.29
31.47
33.26
32.88
30.69
27.25
23.34
19.79
17.34
16.38
16.87
18.37
20.23
21.90
23.09
23.77
24.08
24.20
24.15
23.80
22.97
21.52
19.44
16.89
14.11
11.40
8.94
6.78
4.81
2.78
0.48
-2.27
-5.42
-8.83
-12.20
-15.29
-18.03
-20.52
-23.11
-26.22
-30.30
-35.54
-41.74
-48.19
-53.74
-57.04
-56.83
-52.43
-43.91
-32.21
-18.84
-5.51
6.34
15.79
22.55
26.74
28.74
28.97
27.80
25.65
23.03
20.50
18.59
17.61
17.67
18.61
20.12
21.94
23.83
25.63
27.24
28.53
29.32
29.46
28.80
27.26
24.92
21.96
18.64
15.29
12.16
9.38
6.97
4.80
2.72
0.54
-1.89
-4.71
-7.93
-11.42
-14.91
-18.04
-20.56
-22.46
-24.07
-25.97
-28.76
-32.84
-38.21
-44.32
-50.13
-54.28
-55.37
-52.40
-45.13
-34.18
-20.94
-7.19
5.43
15.79
23.38
28.21
30.55
30.80
29.37
26.82
23.76
20.85
18.63
17.39
17.20
17.92
19.29
20.98
22.69
24.17
25.31
26.09
26.63
26.99
27.10
26.71
25.52
23.32
20.18
16.49
12.77
9.47
6.77
4.52
2.38
-0.02
-2.85
-6.07
-9.46
-12.77
-15.84
-18.71
-21.50
-24.39
-27.55
-31.11
-35.24
-40.03
-45.33
-50.59
-54.76
-56.48
-54.57
-48.48
-38.62
-26.31
-13.30
-1.23
8.82
16.46
21.77
25.05
26.54
26.45
25.00
22.56
19.64
16.84
14.66
13.44
13.23
13.91
15.22
16.92
18.84
20.80
22.62
24.04
24.78
24.59
23.39
21.34
18.81
16.25
13.97
12.04
10.23
8.20
5.59
2.27
-1.63
-5.73
-9.58
-12.79
-15.25
-17.12
-18.76
-20.65
-23.32
-27.07
-31.96
-37.59
-43.08
-47.17
-48.57
-46.32
-40.15
-30.66
-19.10
-7.03
4.12
13.39
20.33
24.87
27.18
27.53
26.20
23.64
20.38
17.04
14.23
12.38
11.71
12.16
13.48
15.35
17.40
19.36
21.00
22.17
22.78
22.72
21.97
20.52
18.45
15.91
13.04
10.00
6.87
3.64
0.25
-3.33
-7.12
-11.00
-14.78
-18.27
-21.35
-24.06
-26.60
-29.35
-32.75
-37.14
-42.61
-48.77
-54.73
-59.17
-60.69
-58.22
-51.42
-40.86
-27.92
-14.34
-1.80
8.54
16.19
21.27
24.18
25.41
25.35
24.29
22.51
20.40
18.41
16.99
16.46
16.85
17.98
19.52
21.10
22.57
23.88
25.06
26.09
26.75
26.70
25.63
23.43
20.29
16.70
13.23
10.32
8.11
6.34
4.57
2.29
-0.77
-4.58
-8.81
-12.97
-16.64
-19.62
-22.04
-24.28
-26.86
-30.23
-34.62
-39.91
-45.56
-50.68
-54.06
-54.51
-51.16
-43.82
-33.12
-20.41
-7.36
4.50
14.15
21.19
25.71
28.07
28.66
27.89
26.17
24.01
21.96
20.49
19.89
20.18
21.16
22.53
24.02
25.43
26.61
27.49
27.99
28.02
27.56
26.55
24.95
22.67
19.69
16.11
12.17
8.30
4.90
2.19
0.10
-1.75
-3.78
-6.27
-9.21
-12.29
-15.10
-17.36
-19.07
-20.49
-22.03
-24.16
-27.25
-31.42
-36.45
-41.70
-46.14
-48.49
-47.63
-42.96
-34.68
-23.76
-11.72
-0.15
9.71
17.18
22.15
24.83
25.59
24.77
22.74
19.93
16.91
14.30
12.66
12.29
13.13
14.86
17.02
19.22
21.20
22.85
24.07
24.74
24.69
23.81
22.17
19.98
17.56
15.15
12.82
10.42
7.70
4.46
0.69
-3.47
-7.74
-11.79
-15.34
-18.24
-20.48
-22.25
-23.94
-26.13
-29.36
-33.96
-39.71
-45.76
-50.70
-52.98
-51.33
-45.30
-35.41
-23.02
-9.93
2.21
12.23
19.61
24.39
26.88
27.45
26.48
24.34
21.52
18.59
16.19
14.84
14.83
16.06
18.11
20.44
22.56
24.25
25.52
26.57
27.51
28.26
28.48
27.75
25.78
22.57
18.50
14.21
10.29
7.15
4.79
2.90
0.97
-1.40
-4.41
-7.97
-11.78
-15.52
-18.96
-22.00
-24.74
-27.40
-30.29
-33.79
-38.21
-43.64
-49.77
-55.69
-60.08
-61.44
-58.65
-51.34
-40.15
-26.53
-12.32
0.74
11.47
19.35
24.47
27.29
28.34
28.12
27.05
25.57
24.12
23.14
22.97
23.73
25.28
27.32
29.44
31.34
32.84
33.88
34.44
34.53
34.12
33.17
31.70
29.79
27.57
25.20
22.77
20.32
17.79
15.08
12.16
9.07
5.97
3.02
0.38
-2.00
-4.26
-6.66
-9.35
-12.36
-15.47
-18.45
-21.10
-23.44
-25.67
-28.14
-31.19
-35.11
-40.02
-45.80
-51.94
-57.50
-61.11
-61.37
-57.22
-48.44
-35.89
-21.27
-6.68
6.06
15.87
22.49
26.34
28.07
28.35
27.66
26.37
24.84
23.43
22.49
22.23
22.71
23.77
25.19
26.71
28.15
29.38
30.35
31.02
31.35
31.29
30.72
29.58
27.91
25.84
23.60
21.38
19.25
17.16
14.95
12.49
9.76
6.85
3.97
1.32
-0.99
-2.95
-4.70
-6.55
-8.77
-11.51
-14.68
-17.98
-20.99
-23.44
-25.35
-27.10
-29.28
-32.47
-36.98
-42.68
-48.95
-54.69
-58.57
-59.26
-55.81
-48.06
-36.69
-23.21
-9.43
2.97
12.89
19.92
24.20
26.20
26.40
25.29
23.27
20.80
18.38
16.50
15.58
15.83
17.11
19.02
21.04
22.64
23.63
24.05
24.18
24.33
24.58
24.78
24.60
23.76
22.13
19.84
17.12
14.23
11.36
8.61
6.02
3.63
1.42
-0.71
-2.94
-5.48
-8.38
-11.52
-14.60
-17.31
-19.45
-21.08
-22.52
-24.25
-26.79
-30.53
-35.59
-41.69
-48.03
-53.38
-56.29
-55.47
-50.22
-40.76
-28.24
-14.44
-1.23
9.91
18.15
23.35
25.87
26.27
25.15
23.12
20.70
18.37
16.50
15.38
15.12
15.75
17.15
19.12
21.38
23.57
25.39
26.62
27.23
27.28
26.91
26.18
25.04
23.41
21.18
18.36
15.11
11.70
8.44
5.59
3.20
1.15
-0.83
-3.03
-5.67
-8.80
-12.31
-15.98
-19.56
-22.83
-25.67
-28.10
-30.29
-32.57
-35.39
-39.12
-43.92
-49.49
-55.06
-59.42
-61.18
-59.18
-52.88
-42.62
-29.55
-15.42
-2.01
9.29
17.78
23.43
26.65
27.98
27.87
26.68
24.75
22.51
20.50
19.24
19.06
19.96
21.65
23.66
25.59
27.20
28.45
29.43
30.19
30.58
30.36
29.26
27.22
24.41
21.28
18.33
15.91
14.08
12.62
11.13
9.29
6.97
4.29
1.57
-0.87
-2.88
-4.52
-6.04
-7.71
-9.74
-12.13
-14.76
-17.43
-20.00
-22.44
-24.84
-27.35
-30.22
-33.77
-38.27
-43.74
-49.70
-55.11
-58.44
-58.23
-53.57
-44.56
-32.31
-18.56
-5.19
6.35
15.31
21.56
25.31
26.94
26.86
25.46
23.20
20.62
18.26
16.60
15.90
16.21
17.35
19.01
20.89
22.72
24.40
25.86
27.12
28.09
28.68
28.72
28.05
26.61
24.51
21.97
19.31
16.80
14.59
12.64
10.78
8.80
6.59
4.17
1.67
-0.70
-2.83
-4.71
-6.43
-8.18
-10.07
-12.15
-14.37
-16.63
-18.81
-20.86
-22.84
-24.92
-27.43
-30.77
-35.22
-40.75
-46.85
-52.44
-56.10
-56.41
-52.50
-44.33
-32.87
-19.75
-6.80
4.44
13.12
18.98
22.32
23.59
23.25
21.66
19.18
16.28
13.51
11.47
10.53
10.83
12.10
13.94
15.86
17.56
18.90
19.94
20.79
21.51
22.11
22.46
22.38
21.62
20.02
17.55
14.39
10.94
7.60
4.72
2.38
0.41
-1.51
-3.68
-6.20
-8.95
-11.66
-14.06
-16.01
-17.63
-19.22
-21.17
-23.84
-27.46
-32.04
-37.35
-42.85
-47.66
-50.67
-50.77
-47.22
-39.91
-29.56
-17.52
-5.41
5.31
13.75
19.65
23.19
24.80
24.90
23.79
21.76
19.14
16.39
14.04
12.57
12.30
13.27
15.22
17.67
20.09
22.08
23.44
24.19
24.50
24.52
24.24
23.50
22.08
19.88
16.96
13.61
10.24
7.20
4.66
2.59
0.73
-1.26
-3.67
-6.70
-10.27
-14.14
-17.90
-21.14
-23.64
-25.42
-26.80
-28.27
-30.37
-33.54
-37.98
-43.54
-49.65
-55.34
-59.27
-60.04
-56.60
-48.65
-36.80
-22.54
-7.78
5.75
16.88
25.17
30.71
33.79
34.61
33.27
29.82
24.55
18.01
10.92
3.97
-2.39
-8.03
-13.02
-17.49
-21.56
-25.21
-28.38
-30.96
-32.85
-33.91
-34.00
-33.04
-31.13
-28.55
-25.70
-23.01
-20.78
-19.17
-18.18
-17.78
-17.93
-18.64
-19.96
-21.99
-24.76
-28.30
-32.49
-37.04
-41.51
-45.36
-48.17
-49.78
-50.48
-50.97
-52.14
-54.85
-59.59
-66.24
-74.04
-81.71
-87.78
-90.92
-90.29
-85.63
-77.34
-66.24
-53.37
-39.81
-26.52
-14.29
-3.73
4.76
11.03
15.23
17.77
19.27
20.35
21.51
22.93
24.55
26.05
27.05
27.29
26.70
25.42
23.79
22.18
20.91
20.14
19.84
19.86
20.12
20.68
21.80
23.78
26.74
30.47
34.40
37.88
40.30
41.32
40.78
38.64
34.90
29.58
22.91
15.29
7.22
-1.00
-9.41
-18.35
-28.13
-38.55
-48.58
-56.50
-60.30
-58.37
-50.02
-35.72
-16.88
4.50
26.35
46.88
64.86
79.65
91.12
99.47
105.03
108.00
108.53
106.78
103.14
98.33
93.26
88.84
85.57
83.49
82.18
81.01
79.42
77.11
74.11
70.56
66.66
62.49
58.01
53.12
47.73
41.85
35.65
29.37
23.24
17.34
11.65
6.00
0.28
-5.47
-11.13
-16.51
-21.58
-26.60
-32.05
-38.55
-46.46
-55.66
-65.32
-74.03
-80.09
-82.03
-79.03
-71.22
-59.66
-46.02
-32.08
-19.25
-8.34
0.49
7.44
12.71
16.37
18.32
18.61
17.52
15.78
14.33
14.03
15.36
18.26
22.18
26.39
30.21
33.14
34.97
35.70
35.47
34.50
33.02
31.17
29.02
26.47
23.46
19.95
16.02
11.86
7.67
3.56
-0.45
-4.50
-8.82
-13.78
-19.74
-27.06
-35.82
-45.58
-55.25
-63.18
-67.48
-66.69
-60.33
-49.09
-34.73
-19.47
-5.35
6.31
15.00
20.87
24.38
25.93
25.87
24.51
22.31
19.92
18.10
17.50
18.44
20.85
24.28
28.05
31.48
34.06
35.52
35.85
35.22
33.86
31.96
29.65
26.96
23.89
20.42
16.57
12.41
8.03
3.58
-0.85
-5.23
-9.62
-14.18
-19.18
-24.91
-31.59
-39.29
-47.75
-56.23
-63.54
-68.22
-68.94
-64.88
-56.10
-43.59
-28.96
-14.04
-0.39
10.98
19.67
25.69
29.36
31.03
31.10
30.02
28.31
26.52
25.22
24.80
25.43
26.98
29.14
31.55
33.89
35.95
37.59
38.68
39.09
38.68
37.42
35.31
32.45
28.97
25.01
20.72
16.24
11.74
7.35
3.13
-0.95
-4.96
-9.01
-13.22
-17.72
-22.74
-28.56
-35.27
-42.67
-49.97
-55.87
-58.87
-57.73
-51.94
-41.95
-29.07
-15.05
-1.59
10.04
19.12
25.46
29.16
30.50
29.85
27.63
24.39
20.77
17.41
14.91
13.63
13.72
15.04
17.27
20.01
22.84
25.42
27.49
28.89
29.55
29.43
28.60
27.13
25.14
22.74
20.00
16.95
13.57
9.90
6.00
1.98
-2.04
-5.98
-9.88
-13.83
-18.05
-22.76
-28.15
-34.25
-40.78
-47.00
-51.76
-53.69
-51.66
-45.24
-34.93
-22.13
-8.69
3.69
13.90
21.55
26.78
29.96
31.39
31.24
29.71
27.09
23.93
20.85
18.47
17.18
17.15
18.25
20.22
22.66
25.15
27.28
28.72
29.25
28.81
27.49
25.52
23.11
20.42
17.49
14.21
10.46
6.19
1.52
-3.29
-7.91
-12.06
-15.65
-18.86
-22.09
-25.85
-30.62
-36.66
-43.78
-51.30
-58.04
-62.60
-63.65
-60.33
-52.57
-41.11
-27.39
-13.13
0.01
10.86
18.85
24.00
26.75
27.71
27.46
26.44
24.97
23.34
21.85
20.81
20.46
20.89
21.99
23.51
25.18
26.82
28.33
29.66
30.71
31.23
30.91
29.51
27.05
23.77
20.13
16.62
13.52
10.84
8.33
5.57
2.20
-1.93
-6.67
-11.61
-16.26
-20.21
-23.38
-26.06
-28.87
-32.55
-37.64
-44.26
-51.88
-59.40
-65.26
-67.90
-66.14
-59.64
-48.94
-35.40
-20.83
-6.99
4.78
13.80
19.98
23.69
25.50
25.98
25.60
24.72
23.67
22.75
22.25
22.39
23.25
24.74
26.59
28.50
30.24
31.67
32.80
33.66
34.19
34.27
33.68
32.25
29.95
26.92
23.46
19.90
16.51
13.41
10.58
7.89
5.17
2.27
-0.93
-4.47
-8.27
-12.13
-15.79
-19.05
-21.88
-24.51
-27.38
-31.04
-35.92
-42.12
-49.25
-56.38
-62.22
-65.30
-64.48
-59.18
-49.72
-37.26
-23.42
-9.91
2.00
11.59
18.73
23.60
26.49
27.69
27.48
26.21
24.32
22.35
20.81
20.10
20.40
21.62
23.46
25.48
27.31
28.69
29.60
30.09
30.28
30.15
29.61
28.48
26.68
24.24
21.34
18.27
15.27
12.49
9.97
7.61
5.25
2.70
-0.21
-3.52
-7.15
-10.94
-14.65
-18.10
-21.18
-23.97
-26.64
-29.51
-32.91
-37.11
-42.13
-47.57
-52.60
-56.04
-56.71
-53.77
-47.06
-37.17
-25.32
-12.95
-1.39
8.41
15.94
21.03
23.73
24.24
22.90
20.22
16.89
13.62
11.05
9.53
9.13
9.65
10.79
12.27
13.90
15.56
17.13
18.45
19.33
19.55
19.01
17.72
15.87
13.73
11.53
9.40
7.28
4.95
2.16
-1.22
-5.14
-9.34
-13.42
-17.03
-20.02
-22.55
-25.05
-28.08
-32.10
-37.26
-43.30
-49.47
-54.71
-57.81
-57.75
-53.90
-46.27
-35.53
-22.92
-9.95
1.89
11.51
18.34
22.39
24.02
23.81
22.34
20.12
17.62
15.23
13.37
12.29
12.13
12.80
14.09
15.71
17.47
19.27
21.05
22.66
23.88
24.41
23.97
22.52
20.21
17.36
14.34
11.38
8.57
5.82
2.98
-0.10
-3.47
-7.09
-10.78
-14.36
-17.67
-20.64
-23.42
-26.31
-29.73
-34.04
-39.35
-45.39
-51.43
-56.39
-59.02
-58.28
-53.61
-45.19
-33.88
-21.07
-8.27
3.22
12.49
19.18
23.33
25.27
25.47
24.47
22.82
20.98
19.31
18.10
17.48
17.53
18.25
19.50
21.09
22.77
24.32
25.63
26.66
27.40
27.75
27.49
26.36
24.19
21.09
17.42
13.74
10.48
7.82
5.60
3.47
1.05
-1.88
-5.29
-8.93
-12.48
-15.66
-18.39
-20.77
-23.13
-25.93
-29.61
-34.42
-40.27
-46.61
-52.43
-56.47
-57.49
-54.66
-47.80
-37.53
-25.09
-12.04
0.14
10.34
17.93
22.77
25.09
25.34
24.12
22.05
19.70
17.55
15.90
14.93
14.71
15.20
16.35
17.97
19.84
21.71
23.38
24.76
25.85
26.66
27.09
26.97
26.07
24.30
21.75
18.72
15.58
12.62
9.93
7.43
4.88
2.08
-1.05
-4.39
-7.73
-10.86
-13.67
-16.25
-18.79
-21.57
-24.81
-28.66
-33.15
-38.14
-43.21
-47.67
-50.57
-50.91
-47.96
-41.55
-32.23
-21.13
-9.67
0.84
9.53
15.96
20.13
22.27
22.70
21.74
19.71
16.99
13.97
11.08
8.72
7.25
6.82
7.43
8.82
10.66
12.60
14.33
15.69
16.52
16.71
16.14
14.77
12.72
10.28
7.78
5.44
3.25
0.96
-1.74
-5.04
-8.85
-12.81
-16.48
-19.57
-22.14
-24.55
-27.36
-31.04
-35.73
-41.10
-46.35
-50.40
-52.13
-50.72
-45.82
-37.71
-27.23
-15.63
-4.25
5.76
13.65
19.12
22.28
23.40
22.85
20.99
18.22
15.02
11.97
9.63
8.43
8.51
9.76
11.78
14.13
16.33
18.04
19.06
19.31
18.83
17.75
16.27
14.54
12.59
10.36
7.67
4.46
0.77
-3.14
-6.97
-10.48
-13.63
-16.60
-19.73
-23.39
-27.82
-33.11
-39.13
-45.48
-51.45
-55.99
-57.95
-56.35
-50.77
-41.54
-29.75
-16.89
-4.52
6.18
14.54
20.38
23.87
25.36
25.26
24.02
22.13
20.05
18.24
17.06
16.69
17.18
18.40
20.12
22.06
23.98
25.67
26.98
27.78
27.93
27.34
26.00
23.98
21.46
18.68
15.84
13.07
10.35
7.50
4.37
0.83
-3.03
-6.95
-10.64
-13.89
-16.75
-19.55
-22.81
-26.99
-32.34
-38.67
-45.27
-51.11
-54.97
-55.80
-52.96
-46.42
-36.77
-25.12
-12.83
-1.21
8.70
16.32
21.48
24.34
25.28
24.74
23.13
20.90
18.59
16.74
15.91
16.43
18.25
20.95
23.92
26.53
28.48
29.76
30.60
31.17
31.45
31.22
30.20
28.28
25.60
22.54
19.51
16.79
14.41
12.16
9.75
6.93
3.58
-0.27
-4.39
-8.51
-12.28
-15.47
-18.04
-20.21
-22.45
-25.32
-29.29
-34.52
-40.67
-46.97
-52.25
-55.25
-54.94
-50.79
-42.94
-32.23
-19.97
-7.62
3.50
12.51
19.02
23.07
24.94
25.08
23.93
22.01
19.81
17.82
16.44
15.90
16.25
17.34
18.97
20.88
22.87
24.80
26.56
28.05
29.16
29.75
29.71
28.93
27.36
25.04
22.15
18.95
15.77
12.86
10.28
7.91
5.49
2.76
-0.34
-3.69
-7.01
-10.05
-12.71
-15.11
-17.53
-20.33
-23.75
-27.95
-32.85
-38.13
-43.28
-47.51
-49.93
-49.70
-46.26
-39.57
-30.20
-19.20
-7.90
2.43
10.87
16.93
20.51
21.84
21.31
19.39
16.58
13.47
10.62
8.54
7.54
7.70
8.86
10.77
13.14
15.72
18.26
20.47
22.08
22.85
22.67
21.61
19.89
17.77
15.49
13.22
10.97
8.67
6.15
3.24
-0.23
-4.21
-8.48
-12.64
-16.26
-19.10
-21.23
-23.04
-25.11
-27.99
-32.01
-37.13
-42.91
-48.50
-52.78
-54.59
-52.97
-47.55
-38.67
-27.38
-15.13
-3.42
6.61
14.31
19.56
22.56
23.67
23.26
21.72
19.49
17.05
14.91
13.53
13.20
13.96
15.64
17.86
20.23
22.43
24.22
25.54
26.34
26.56
26.10
24.86
22.89
20.37
17.68
15.17
13.04
11.24
9.45
7.27
4.46
0.98
-2.93
-6.87
-10.49
-13.61
-16.29
-18.82
-21.61
-25.06
-29.50
-35.05
-41.49
-48.17
-54.04
-57.85
-58.39
-54.94
-47.53
-37.02
-24.85
-12.68
-1.82
6.95
13.48
18.04
20.97
22.52
22.84
22.11
20.70
19.17
18.14
18.07
19.10
20.97
23.23
25.42
27.27
28.69
29.74
30.45
30.80
30.69
30.02
28.71
26.78
24.33
21.49
18.47
15.48
12.67
10.07
7.55
4.91
1.90
-1.56
-5.37
-9.26
-12.90
-16.10
-18.83
-21.31
-23.84
-26.76
-30.34
-34.66
-39.52
-44.41
-48.43
-50.52
-49.71
-45.48
-37.98
-28.06
-17.05
-6.30
3.11
10.59
16.01
19.45
21.06
20.97
19.43
16.85
13.87
11.26
9.62
9.26
10.06
11.58
13.36
15.08
16.64
18.16
19.67
21.12
22.28
22.81
22.47
21.22
19.20
16.71
14.07
11.45
8.91
6.35
3.59
0.50
-2.91
-6.44
-9.77
-12.63
-14.89
-16.71
-18.50
-20.85
-24.21
-28.83
-34.50
-40.59
-46.09
-49.86
-50.85
-48.40
-42.44
-33.48
-22.57
-11.01
-0.08
9.20
16.21
20.73
22.85
22.90
21.42
19.00
16.30
13.94
12.38
11.82
12.23
13.41
15.05
16.90
18.81
20.70
22.52
24.17
25.47
26.16
26.02
24.95
23.01
20.42
17.47
14.40
11.36
8.34
5.27
2.05
-1.38
-4.99
-8.69
-12.35
-15.87
-19.17
-22.31
-25.47
-28.97
-33.16
-38.25
-44.13
-50.21
-55.45
-58.58
-58.49
-54.56
-46.92
-36.41
-24.36
-12.22
-1.22
7.84
14.57
18.95
21.18
21.60
20.64
18.83
16.80
15.16
14.41
14.82
16.34
18.62
21.18
23.57
25.54
27.07
28.29
29.33
30.20
30.71
30.64
29.79
28.08
25.63
22.66
19.47
16.37
13.54
11.04
8.76
6.45
3.83
0.70
-2.93
-6.83
-10.66
-14.17
-17.24
-20.01
-22.77
-25.89
-29.68
-34.37
-39.91
-45.88
-51.42
-55.29
-56.20
-53.18
-46.06
-35.52
-22.97
-10.12
1.55
11.06
18.04
22.55
24.93
25.57
24.90
23.32
21.33
19.43
18.10
17.70
18.34
19.91
22.07
24.42
26.60
28.41
29.81
30.84
31.56
31.93
31.78
30.91
29.18
26.64
23.52
20.20
17.04
14.31
12.02
10.02
8.03
5.79
3.14
0.07
-3.26
-6.64
-9.88
-12.88
-15.68
-18.39
-21.17
-24.18
-27.58
-31.51
-36.05
-41.04
-46.03
-50.14
-52.32
-51.56
-47.32
-39.72
-29.58
-18.22
-7.00
2.92
10.84
16.47
19.86
21.20
20.79
19.01
16.34
13.41
10.86
9.28
8.99
9.98
11.95
14.43
16.94
19.12
20.77
21.85
22.33
22.20
21.50
20.27
18.62
16.68
14.56
12.32
9.96
7.41
4.64
1.59
-1.69
-5.11
-8.50
-11.71
-14.66
-17.42
-20.22
-23.39
-27.28
-32.03
-37.52
-43.22
-48.25
-51.56
-52.23
-49.64
-43.76
-35.09
-24.61
-13.49
-2.89
6.33
13.60
18.67
21.59
22.58
22.03
20.43
18.31
16.17
14.45
13.49
13.48
14.51
16.43
18.94
21.64
24.12
26.09
27.40
28.02
27.98
27.29
25.90
23.83
21.17
18.12
14.95
11.81
8.74
5.61
2.25
-1.44
-5.39
-9.35
-13.07
-16.36
-19.25
-22.01
-25.07
-28.83
-33.54
-39.15
-45.25
-51.04
-55.51
-57.56
-56.34
-51.45
-43.07
-32.11
-19.88
-7.87
2.67
10.99
16.84
20.47
22.29
22.77
22.29
21.20
19.83
18.60
17.91
18.04
19.09
20.89
23.14
25.45
27.52
29.18
30.38
31.11
31.38
31.12
30.20
28.58
26.25
23.38
20.26
17.19
14.37
11.83
9.39
6.77
3.76
0.29
-3.49
-7.33
-10.98
-14.34
-17.49
-20.69
-24.30
-28.63
-33.85
-39.87
-46.22
-52.08
-56.42
-58.12
-56.40
-51.00
-42.29
-31.26
-19.23
-7.53
2.74
10.92
16.79
20.43
22.16
22.37
21.46
19.88
18.10
16.62
15.90
16.26
17.74
20.07
22.78
25.35
27.41
28.87
29.82
30.42
30.74
30.69
30.06
28.72
26.67
24.10
21.32
18.57
15.98
13.48
10.93
8.15
5.04
1.62
-2.01
-5.67
-9.15
-12.32
-15.12
-17.63
-20.05
-22.66
-25.80
-29.75
-34.60
-40.09
-45.52
-49.82
-51.78
-50.43
-45.44
-37.22
-26.91
-15.94
-5.66
2.98
9.51
13.86
16.14
16.60
15.53
13.36
10.68
8.20
6.57
6.19
7.13
9.14
11.77
14.62
17.37
19.87
22.00
23.64
24.62
24.75
23.97
22.30
19.93
17.11
14.08
11.02
8.01
5.09
2.23
-0.63
-3.51
-6.44
-9.38
-12.28
-15.07
-17.72
-20.30
-23.03
-26.22
-30.21
-35.13
-40.70
-46.13
-50.18
-51.54
-49.26
-43.16
-33.88
-22.73
-11.25
-0.75
7.93
14.45
18.87
21.40
22.30
21.87
20.49
18.63
16.85
15.64
15.37
16.15
17.81
20.01
22.38
24.59
26.46
27.89
28.89
29.44
29.48
28.88
27.53
25.35
22.43
19.01
15.46
12.15
9.26
6.77
4.39
1.81
-1.21
-4.65
-8.29
-11.81
-14.98
-17.78
-20.41
-23.23
-26.60
-30.79
-35.90
-41.73
-47.71
-52.88
-56.11
-56.28
-52.75
-45.54
-35.41
-23.63
-11.72
-0.93
7.94
14.56
19.02
21.60
22.58
22.25
20.97
19.20
17.55
16.64
16.91
18.47
21.02
23.99
26.76
28.90
30.30
31.11
31.60
31.98
32.23
32.15
31.43
29.82
27.26
23.95
20.27
16.71
13.60
11.06
8.91
6.80
4.34
1.28
-2.35
-6.31
-10.21
-13.74
-16.76
-19.33
-21.70
-24.22
-27.23
-30.98
-35.60
-40.89
-46.28
-50.87
-53.53
-53.24
-49.40
-42.08
-32.02
-20.51
-8.91
1.53
9.99
16.08
19.78
21.33
21.15
19.77
17.78
15.77
14.25
13.55
13.85
15.10
17.07
19.43
21.82
23.91
25.54
26.68
27.40
27.77
27.77
27.25
26.05
24.08
21.44
18.42
15.39
12.63
10.26
8.14
6.04
3.71
1.01
-2.02
-5.18
-8.25
-11.04
-13.55
-15.92
-18.42
-21.37
-25.04
-29.52
-34.71
-40.17
-45.14
-48.62
-49.58
-47.29
-41.61
-33.07
-22.75
-11.98
-1.95
6.50
12.93
17.23
19.46
19.85
18.75
16.67
14.23
12.07
10.66
10.25
10.85
12.27
14.22
16.35
18.38
20.12
21.44
22.30
22.65
22.41
21.46
19.72
17.24
14.25
11.11
8.20
5.75
3.74
1.94
0.02
-2.32
-5.17
-8.47
-11.98
-15.42
-18.62
-21.57
-24.49
-27.78
-31.86
-36.95
-42.83
-48.76
-53.53
-55.80
-54.49
-49.19
-40.30
-28.98
-16.79
-5.23
4.57
12.01
17.02
19.85
20.94
20.78
19.86
18.63
17.49
16.79
16.77
17.55
19.06
21.08
23.28
25.34
27.00
28.17
28.94
29.40
29.57
29.30
28.36
26.58
24.00
20.90
17.71
14.80
12.31
10.11
7.85
5.15
1.77
-2.28
-6.70
-11.01
-14.81
-17.85
-20.27
-22.46
-25.07
-28.65
-33.50
-39.47
-45.89
-51.68
-55.55
-56.34
-53.37
-46.68
-37.12
-26.02
-14.88
-4.85
3.40
9.72
14.29
17.33
19.00
19.44
18.85
17.61
16.23
15.27
15.13
16.01
17.79
20.21
22.87
25.44
27.66
29.42
30.67
31.41
31.61
31.20
30.15
28.49
26.32
23.82
21.15
18.46
15.83
13.35
11.05
8.88
6.67
4.19
1.22
-2.27
-6.08
-9.87
-13.31
-16.26
-18.87
-21.49
-24.49
-28.13
-32.51
-37.51
-42.82
-47.89
-51.91
-53.93
-53.06
-48.80
-41.24
-31.17
-19.81
-8.57
1.35
9.19
14.65
17.84
19.12
18.91
17.67
15.88
14.03
12.65
12.19
12.91
14.77
17.41
20.23
22.68
24.49
25.64
26.39
27.00
27.57
27.97
27.94
27.18
25.56
23.15
20.21
17.10
14.17
11.62
9.42
7.37
5.16
2.54
-0.57
-4.06
-7.62
-10.93
-13.77
-16.08
-17.97
-19.70
-21.61
-24.10
-27.52
-32.00
-37.32
-42.82
-47.41
-49.88
-49.29
-45.23
-37.98
-28.45
-17.83
-7.33
2.06
9.72
15.33
18.83
20.35
20.22
18.88
16.88
14.76
13.00
11.93
11.73
12.44
13.94
16.03
18.41
20.74
22.74
24.24
25.16
25.59
25.59
25.19
24.28
22.70
20.37
17.39
14.07
10.84
8.07
5.81
3.84
1.77
-0.77
-3.91
-7.51
-11.26
-14.81
-18.00
-20.83
-23.48
-26.25
-29.46
-33.38
-38.21
-43.80
-49.64
-54.76
-57.96
-58.09
-54.53
-47.35
-37.37
-25.84
-14.16
-3.45
5.54
12.49
17.37
20.32
21.58
21.42
20.23
18.53
16.87
15.86
15.87
17.03
19.15
21.82
24.57
27.07
29.13
30.74
31.90
32.60
32.72
32.17
30.92
29.04
26.73
24.20
21.62
19.13
16.75
14.47
12.16
9.71
6.97
3.92
0.61
-2.79
-6.08
-9.12
-11.88
-14.43
-16.94
-19.63
-22.74
-26.53
-31.16
-36.66
-42.81
-49.01
-54.40
-57.92
-58.61
-55.84
-49.55
-40.29
-29.10
-17.33
-6.23
3.24
10.56
15.63
18.66
19.97
19.91
18.91
17.43
16.01
15.22
15.42
16.79
19.16
22.13
25.24
28.05
30.30
31.90
32.85
33.23
33.07
32.40
31.25
29.68
27.76
25.59
23.23
20.73
18.11
15.44
12.76
10.15
7.64
5.19
2.72
0.10
-2.74
-5.77
-8.85
-11.80
-14.48
-16.85
-19.08
-21.43
-24.22
-27.75
-32.17
-37.43
-43.20
-48.79
-53.24
-55.47
-54.56
-50.03
-42.12
-31.70
-20.11
-8.81
1.01
8.65
13.95
17.10
18.53
18.66
17.88
16.56
15.06
13.76
13.02
13.10
14.08
15.83
18.04
20.33
22.36
23.93
25.02
25.72
26.14
26.30
26.13
25.44
24.08
22.00
19.33
16.29
13.22
10.37
7.82
5.51
3.25
0.84
-1.85
-4.80
-7.84
-10.75
-13.32
-15.51
-17.43
-19.37
-21.67
-24.68
-28.60
-33.46
-39.03
-44.77
-49.83
-53.13
-53.66
-50.73
-44.28
-34.92
-23.81
-12.33
-1.65
7.43
14.54
19.65
22.82
24.13
23.70
21.81
18.95
15.87
13.37
12.10
12.37
14.01
16.53
19.21
21.49
23.04
23.90
24.26
24.37
24.33
24.06
23.34
21.96
19.81
16.96
13.63
10.12
6.68
3.44
0.42
-2.51
-5.54
-8.86
-12.57
-16.64
-20.87
-24.92
-28.46
-31.25
-33.28
-34.81
-36.32
-38.28
-40.91
-43.98
-46.85
-48.61
-48.33
-45.37
-39.62
-31.43
-21.55
-10.95
-0.61
8.66
16.27
21.92
25.56
27.37
27.64
26.78
25.24
23.48
21.94
20.98
20.79
21.37
22.59
24.24
26.13
28.13
30.15
32.08
33.76
34.98
35.50
35.17
33.93
31.86
29.14
26.06
22.96
20.10
17.58
15.33
13.13
10.70
7.91
4.81
1.61
-1.45
-4.28
-6.94
-9.69
-12.77
-16.37
-20.56
-25.30
-30.49
-35.91
-41.14
-45.51
-48.24
-48.50
-45.83
-40.18
-32.04
-22.25
-11.80
-1.55
7.88
16.10
22.84
27.93
31.25
32.74
32.51
30.83
28.10
24.79
21.29
17.94
15.02
12.73
11.24
10.58
10.60
10.94
11.03
10.36
8.64
5.94
2.70
-0.48
-3.08
-4.90
-6.13
-7.12
-8.11
-9.03
-9.40
-8.57
-6.04
-1.79
3.65
9.29
14.10
17.25
18.40
17.72
15.86
13.74
12.49
13.21
16.78
23.60
33.40
45.18
57.35
68.19
76.27
80.84
81.95
80.23
76.45
71.17
64.57
56.57
47.14
36.61
25.68
15.32
6.43
-0.43
-5.12
-7.87
-9.12
-9.36
-9.02
-8.46
-7.95
-7.82
-8.34
-9.79
-12.32
-15.89
-20.23
-24.93
-29.54
-33.76
-37.56
-41.16
-44.86
-48.91
-53.37
-58.11
-63.00
-68.00
-73.23
-78.80
-84.56
-89.88
-93.59
-94.35
-91.13
-83.68
-72.77
-59.93
-46.96
-35.27
-25.57
-17.89
-11.88
-7.23
-3.81
-1.63
-0.61
-0.38
-0.36
0.10
1.44
3.73
6.68
9.77
12.53
14.66
16.09
16.92
17.35
17.54
17.55
17.34
16.74
15.61
13.82
11.37
8.34
4.88
1.22
-2.43
-5.87
-8.96
-11.68
-14.15
-16.69
-19.73
-23.64
-28.51
-33.98
-39.25
-43.20
-44.73
-43.09
-38.15
-30.40
-20.87
-10.77
-1.22
6.97
13.31
17.65
20.03
20.60
19.63
17.52
14.79
12.11
10.08
9.16
9.46
10.80
12.69
14.62
16.17
17.20
17.74
17.97
17.98
17.74
17.03
15.62
13.35
10.29
6.71
2.98
-0.58
-3.79
-6.66
-9.34
-12.06
-15.09
-18.66
-22.99
-28.11
-33.78
-39.32
-43.72
-45.77
-44.50
-39.51
-31.25
-20.81
-9.68
0.80
9.71
16.65
21.60
24.68
26.02
25.71
23.98
21.24
18.17
15.53
13.90
13.56
14.41
16.07
18.04
19.86
21.21
21.91
21.93
21.33
20.26
18.87
17.24
15.37
13.18
10.54
7.40
3.79
-0.12
-4.07
-7.87
-11.40
-14.68
-17.85
-21.21
-25.07
-29.70
-35.18
-41.24
-47.21
-52.04
-54.55
-53.72
-48.99
-40.55
-29.28
-16.58
-4.01
7.05
15.71
21.65
25.02
26.36
26.30
25.43
24.22
23.00
22.08
21.71
22.10
23.28
25.07
27.10
28.98
30.43
31.42
32.11
32.69
33.21
33.48
33.10
31.69
29.05
25.32
20.97
16.63
12.83
9.82
7.47
5.37
3.08
0.24
-3.19
-6.97
-10.76
-14.26
-17.33
-20.05
-22.62
-25.39
-28.74
-33.01
-38.40
-44.76
-51.49
-57.46
-61.32
-61.73
-57.94
-49.99
-38.79
-25.86
-12.84
-1.10
8.53
15.77
20.75
23.81
25.28
25.54
24.97
24.02
23.14
22.76
23.13
24.27
25.98
27.98
29.97
31.78
33.37
34.75
35.92
36.76
37.08
36.65
35.37
33.33
30.81
28.19
25.80
23.81
22.16
20.64
18.99
16.99
14.57
11.79
8.82
5.87
3.10
0.61
-1.63
-3.77
-6.00
-8.53
-11.47
-14.78
-18.29
-21.73
-24.89
-27.74
-30.47
-33.48
-37.24
-42.10
-48.01
-54.38
-60.10
-63.72
-63.87
-59.73
-51.27
-39.42
-25.71
-11.90
0.53
10.63
18.04
22.76
25.03
25.19
23.73
21.33
18.77
16.83
16.03
16.54
18.16
20.47
22.97
25.31
27.29
28.87
30.08
30.96
31.47
31.52
30.96
29.72
27.85
25.56
23.17
20.96
19.08
17.48
15.96
14.27
12.24
9.86
7.25
4.61
2.15
-0.08
-2.18
-4.36
-6.84
-9.72
-12.90
-16.09
-18.97
-21.36
-23.35
-25.27
-27.59
-30.76
-35.06
-40.43
-46.43
-52.14
-56.34
-57.74
-55.39
-49.02
-39.19
-27.19
-14.59
-2.83
7.16
14.91
20.37
23.63
24.81
24.14
22.04
19.17
16.30
14.20
13.31
13.73
15.16
17.15
19.25
21.14
22.70
23.93
24.83
25.36
25.42
24.88
23.66
21.78
19.35
16.58
13.70
10.93
8.44
6.26
4.29
2.38
0.28
-2.14
-4.92
-7.90
-10.85
-13.53
-15.86
-17.95
-20.03
-22.49
-25.67
-29.85
-35.07
-40.99
-46.84
-51.46
-53.56
-52.13
-46.80
-38.05
-27.02
-15.17
-3.84
6.05
14.04
19.97
23.87
25.79
25.82
24.23
21.45
18.12
14.95
12.58
11.44
11.67
13.11
15.38
18.03
20.65
23.00
24.92
26.33
27.11
27.08
26.08
24.05
21.13
17.63
13.99
10.60
7.67
5.18
2.88
0.47
-2.33
-5.64
-9.40
-13.37
-17.27
-20.87
-24.11
-27.11
-30.16
-33.70
-38.11
-43.57
-49.85
-56.15
-61.23
-63.66
-62.23
-56.41
-46.52
-33.75
-19.76
-6.23
5.51
14.67
21.05
24.80
26.24
25.80
23.98
21.39
18.73
16.64
15.63
15.89
17.26
19.33
21.61
23.73
25.51
26.92
28.03
28.87
29.37
29.43
28.94
27.80
25.99
23.53
20.56
17.28
13.94
10.78
7.93
5.32
2.71
-0.17
-3.53
-7.33
-11.35
-15.26
-18.78
-21.76
-24.29
-26.68
-29.41
-32.96
-37.69
-43.56
-49.96
-55.76
-59.51
-59.88
-56.05
-48.05
-36.75
-23.61
-10.24
1.97
12.06
19.63
24.66
27.34
27.98
26.96
24.74
21.96
19.34
17.54
16.99
17.77
19.58
21.94
24.32
26.37
27.96
29.13
29.96
30.51
30.73
30.50
29.66
28.04
25.63
22.58
19.18
15.85
12.93
10.55
8.64
6.88
4.92
2.47
-0.60
-4.17
-8.00
-11.78
-15.26
-18.38
-21.19
-23.96
-26.99
-30.61
-35.02
-40.23
-45.89
-51.28
-55.35
-56.90
-54.94
-49.03
-39.53
-27.53
-14.53
-2.08
8.61
16.90
22.56
25.67
26.47
25.33
22.75
19.42
16.09
13.47
12.03
11.90
12.92
14.73
16.91
19.10
21.09
22.76
24.08
25.05
25.56
25.48
24.61
22.85
20.25
17.07
13.70
10.52
7.74
5.27
2.85
0.11
-3.16
-6.90
-10.81
-14.51
-17.72
-20.41
-22.86
-25.55
-29.02
-33.60
-39.24
-45.44
-51.21
-55.29
-56.46
-53.86
-47.27
-37.18
-24.74
-11.46
1.14
11.84
19.92
25.16
27.71
27.94
26.33
23.43
19.82
16.22
13.27
11.56
11.34
12.52
14.68
17.26
19.71
21.72
23.22
24.26
24.94
25.24
25.04
24.19
22.61
20.37
17.68
14.81
11.96
9.17
6.28
3.12
-0.48
-4.50
-8.75
-12.94
-16.79
-20.21
-23.31
-26.40
-29.92
-34.35
-39.99
-46.76
-54.05
-60.65
-65.03
-65.65
-61.58
-52.82
-40.35
-25.88
-11.28
1.89
12.69
20.72
26.02
28.78
29.26
27.85
25.14
21.91
18.99
17.08
16.49
17.17
18.76
20.84
23.10
25.41
27.68
29.82
31.60
32.68
32.76
31.66
29.39
26.21
22.50
18.71
15.23
12.29
9.84
7.62
5.26
2.38
-1.17
-5.27
-9.59
-13.70
-17.35
-20.49
-23.34
-26.30
-29.85
-34.40
-40.12
-46.72
-53.36
-58.69
-61.17
-59.58
-53.37
-43.02
-29.79
-15.45
-1.67
10.27
19.62
26.17
30.00
31.35
30.62
28.33
25.14
21.84
19.17
17.75
17.85
19.37
21.87
24.73
27.41
29.58
31.23
32.56
33.76
34.82
35.47
35.25
33.78
30.96
27.08
22.72
18.56
15.07
12.30
9.96
7.55
4.62
0.99
-3.22
-7.65
-11.94
-15.79
-19.11
-21.98
-24.60
-27.29
-30.43
-34.37
-39.28
-44.96
-50.71
-55.40
-57.72
-56.59
-51.41
-42.38
-30.37
-16.78
-3.21
8.92
18.54
25.08
28.52
29.23
27.92
25.36
22.37
19.57
17.45
16.28
16.14
16.94
18.42
20.24
22.08
23.71
25.02
26.01
26.68
27.01
26.88
26.12
24.57
22.18
19.08
15.57
11.97
8.50
5.22
2.02
-1.26
-4.71
-8.29
-11.81
-15.09
-18.07
-20.90
-23.95
-27.68
-32.44
-38.28
-44.76
-50.93
-55.45
-56.96
-54.45
-47.66
-37.15
-24.27
-10.68
2.00
12.60
20.49
25.57
28.11
28.54
27.37
25.10
22.22
19.20
16.52
14.58
13.69
13.97
15.36
17.56
20.09
22.50
24.37
25.46
25.66
25.00
23.59
21.58
19.15
16.49
13.68
10.70
7.45
3.80
-0.27
-4.68
-9.19
-13.57
-17.66
-21.44
-25.03
-28.67
-32.68
-37.38
-42.97
-49.29
-55.67
-60.95
-63.68
-62.55
-56.88
-46.93
-33.83
-19.30
-5.13
7.21
16.87
23.53
27.38
28.80
28.33
26.49
23.82
20.91
18.39
16.85
16.70
18.02
20.53
23.66
26.79
29.46
31.47
32.82
33.58
33.68
32.98
31.33
28.72
25.38
21.69
18.03
14.61
11.34
7.96
4.17
-0.13
-4.80
-9.52
-13.93
-17.82
-21.26
-24.60
-28.35
-33.04
-38.97
-45.97
-53.37
-59.96
-64.27
-64.99
-61.30
-53.18
-41.47
-27.63
-13.35
-0.17
10.82
19.04
24.42
27.22
27.91
27.03
25.18
22.99
21.03
19.84
19.77
20.89
22.96
25.55
28.13
30.30
31.92
33.02
33.72
34.03
33.79
32.76
30.76
27.84
24.31
20.67
17.32
14.44
11.87
9.29
6.37
2.96
-0.83
-4.72
-8.44
-11.83
-14.93
-17.98
-21.27
-25.08
-29.59
-34.83
-40.66
-46.65
-52.06
-55.87
-56.95
-54.42
-47.94
-37.96
-25.61
-12.44
-0.00
10.48
18.33
23.37
25.78
25.96
24.40
21.75
18.71
16.09
14.55
14.57
16.15
18.88
22.12
25.18
27.62
29.32
30.37
30.94
31.11
30.79
29.82
28.06
25.50
22.30
18.75
15.18
11.83
8.80
5.96
3.04
-0.23
-4.00
-8.16
-12.39
-16.33
-19.74
-22.64
-25.37
-28.40
-32.22
-37.08
-42.96
-49.41
-55.57
-60.21
-62.01
-59.94
-53.53
-43.16
-30.01
-15.76
-2.12
9.58
18.64
24.92
28.66
30.21
29.95
28.29
25.77
23.12
21.11
20.38
21.21
23.46
26.55
29.76
32.43
34.21
35.05
35.17
34.92
34.51
34.04
33.35
32.18
30.26
27.43
23.79
19.62
15.35
11.42
8.07
5.24
2.64
-0.13
-3.44
-7.40
-11.85
-16.44
-20.78
-24.62
-27.97
-31.09
-34.39
-38.35
-43.35
-49.48
-56.41
-63.28
-68.76
-71.36
-69.79
-63.40
-52.54
-38.42
-22.90
-7.92
4.96
14.88
21.66
25.62
27.37
27.49
26.57
25.05
23.44
22.18
21.67
22.17
23.69
26.05
28.83
31.62
34.09
36.01
37.33
38.04
38.15
37.62
36.43
34.59
32.20
29.46
26.57
23.65
20.75
17.86
14.97
12.14
9.41
6.85
4.37
1.83
-0.96
-4.12
-7.63
-11.33
-15.03
-18.55
-21.81
-24.90
-28.01
-31.44
-35.58
-40.75
-47.07
-54.24
-61.38
-67.12
-69.86
-68.34
-61.99
-51.21
-37.31
-22.08
-7.32
5.56
15.76
23.00
27.42
29.35
29.20
27.54
25.02
22.38
20.33
19.38
19.76
21.35
23.79
26.60
29.35
31.73
33.62
35.01
35.96
36.48
36.51
35.87
34.45
32.19
29.21
25.76
22.11
18.53
15.14
11.97
8.95
6.02
3.11
0.20
-2.74
-5.80
-9.00
-12.32
-15.68
-18.97
-22.11
-25.08
-28.01
-31.18
-35.01
-39.87
-45.87
-52.60
-59.03
-63.67
-64.95
-61.75
-53.82
-41.96
-27.76
-13.15
0.19
11.12
19.16
24.31
26.88
27.28
25.97
23.50
20.47
17.54
15.31
14.19
14.30
15.53
17.56
20.02
22.58
24.95
26.89
28.23
28.76
28.39
27.07
24.87
22.01
18.73
15.30
11.97
8.89
6.08
3.42
0.67
-2.39
-5.87
-9.66
-13.47
-16.97
-19.94
-22.43
-24.82
-27.64
-31.44
-36.48
-42.60
-49.14
-55.01
-58.90
-59.55
-56.08
-48.32
-36.91
-23.20
-8.93
4.15
14.77
22.24
26.53
28.06
27.50
25.56
22.94
20.21
17.89
16.33
15.73
16.10
17.27
19.01
21.03
23.10
25.01
26.60
27.66
27.97
27.37
25.78
23.28
20.14
16.74
13.40
10.30
7.35
4.28
0.77
-3.34
-8.01
-12.92
-17.66
-21.89
-25.48
-28.62
-31.72
-35.32
-39.88
-45.64
-52.37
-59.32
-65.26
-68.70
-68.28
-63.22
-53.61
-40.43
-25.33
-10.15
3.47
14.47
22.40
27.33
29.67
29.95
28.80
26.82
24.63
22.75
21.56
21.26
21.79
22.91
24.31
25.75
27.13
28.46
29.72
30.82
31.46
31.25
29.87
27.23
23.64
19.61
15.70
12.26
9.31
6.51
3.46
-0.17
-4.38
-8.92
-13.38
-17.36
-20.63
-23.21
-25.45
-27.87
-31.14
-35.82
-42.12
-49.67
-57.36
-63.53
-66.38
-64.55
-57.57
-46.10
-31.72
-16.44
-2.13
9.89
19.03
25.26
28.87
30.26
29.87
28.20
25.92
23.71
22.23
21.86
22.63
24.27
26.31
28.28
29.91
31.13
32.02
32.68
33.14
33.23
32.72
31.34
29.00
25.85
22.25
18.63
15.28
12.25
9.33
6.16
2.51
-1.67
-6.13
-10.50
-14.42
-17.74
-20.60
-23.42
-26.75
-31.06
-36.56
-43.10
-49.96
-56.05
-59.98
-60.44
-56.59
-48.37
-36.59
-22.78
-8.73
3.93
14.08
21.28
25.64
27.51
27.38
25.66
22.78
19.26
15.74
12.92
11.42
11.57
13.29
16.09
19.24
21.99
23.89
24.78
24.83
24.30
23.40
22.16
20.44
18.11
15.11
11.51
7.51
3.37
-0.70
-4.55
-8.10
-11.37
-14.48
-17.61
-20.97
-24.80
-29.31
-34.57
-40.44
-46.44
-51.70
-55.03
-55.20
-51.29
-43.09
-31.28
-17.31
-3.09
9.64
19.69
26.64
30.69
32.36
32.21
30.67
28.11
24.98
21.87
19.40
18.07
18.16
19.55
21.86
24.55
27.09
29.04
30.15
30.29
29.47
27.83
25.56
22.92
20.11
17.29
14.54
11.82
8.95
5.69
1.81
-2.78
-7.91
-13.20
-18.19
-22.52
-26.17
-29.46
-32.99
-37.46
-43.31
-50.47
-58.22
-65.24
-69.79
-70.25
-65.60
-55.84
-42.04
-26.10
-10.18
3.89
15.00
22.81
27.62
29.96
30.47
29.66
28.06
26.20
24.61
23.77
23.98
25.31
27.53
30.20
32.82
34.98
36.49
37.36
37.75
37.78
37.43
36.52
34.83
32.19
28.69
24.62
20.41
16.47
13.04
10.08
7.35
4.53
1.34
-2.33
-6.38
-10.59
-14.70
-18.51
-22.02
-25.39
-28.96
-33.18
-38.45
-44.91
-52.22
-59.45
-65.19
-67.82
-66.08
-59.44
-48.40
-34.35
-19.14
-4.65
7.74
17.30
23.94
28.01
30.03
30.47
29.73
28.17
26.19
24.30
23.04
22.88
23.99
26.20
29.05
31.95
34.41
36.16
37.17
37.57
37.48
36.95
35.94
34.37
32.14
29.25
25.80
21.97
18.08
14.43
11.27
8.65
6.42
4.23
1.69
-1.47
-5.27
-9.49
-13.73
-17.62
-20.96
-23.77
-26.30
-28.95
-32.20
-36.46
-41.96
-48.50
-55.39
-61.41
-65.07
-64.93
-60.13
-50.67
-37.52
-22.40
-7.30
6.01
16.42
23.51
27.47
28.78
28.00
25.70
22.42
18.81
15.59
13.45
12.84
13.86
16.20
19.27
22.47
25.31
27.53
29.05
29.89
30.09
29.64
28.47
26.56
23.93
20.73
17.25
13.78
10.56
7.62
4.80
1.82
-1.54
-5.30
-9.32
-13.30
-16.96
-20.15
-22.93
-25.55
-28.45
-32.08
-36.84
-42.85
-49.81
-56.85
-62.64
-65.67
-64.64
-58.90
-48.69
-35.10
-19.83
-4.70
8.74
19.49
27.20
31.96
34.13
34.19
32.64
30.02
26.93
24.00
21.80
20.74
20.94
22.20
24.10
26.16
27.97
29.33
30.26
30.85
31.17
31.11
30.38
28.66
25.79
21.91
17.46
13.03
9.09
5.83
3.08
0.45
-2.44
-5.79
-9.57
-13.52
-17.32
-20.73
-23.65
-26.22
-28.71
-31.57
-35.29
-40.24
-46.49
-53.61
-60.58
-65.92
-68.01
-65.58
-58.20
-46.45
-31.83
-16.31
-1.81
10.31
19.41
25.51
29.04
30.51
30.34
28.93
26.68
24.15
21.98
20.77
20.86
22.23
24.54
27.30
30.01
32.39
34.34
35.83
36.86
37.31
36.99
35.74
33.56
30.65
27.39
24.16
21.13
18.12
14.63
10.05
4.00
-3.43
-11.63
-19.67
-26.64
-32.00
-35.74
-38.26
-40.20
-42.21
-44.77
-48.21
-52.63
-57.81
-63.10
-67.37
-69.21
-67.26
-60.73
-49.72
-35.38
-19.56
-4.33
8.65
18.44
24.89
28.43
29.64
29.12
27.31
24.64
21.57
18.66
16.47
15.38
15.55
16.86
19.04
21.71
24.45
26.91
28.72
29.60
29.36
27.96
25.53
22.35
18.73
15.02
11.45
8.10
4.91
1.67
-1.80
-5.64
-9.78
-13.98
-17.97
-21.55
-24.80
-28.04
-31.79
-36.51
-42.42
-49.24
-56.16
-61.93
-65.12
-64.51
-59.39
-49.89
-36.91
-21.96
-6.79
7.02
18.31
26.42
31.24
33.02
32.27
29.71
26.16
22.49
19.45
17.56
17.01
17.68
19.28
21.42
23.80
26.18
28.38
30.20
31.41
31.75
30.99
29.04
26.03
22.32
18.36
14.56
11.07
7.78
4.35
0.44
-4.11
-9.20
-14.48
-19.59
-24.23
-28.27
-31.83
-35.20
-38.87
-43.35
-48.99
-55.67
-62.59
-68.28
-71.00
-69.27
-62.44
-50.96
-36.23
-20.19
-4.75
8.64
19.17
26.62
31.18
33.21
33.16
31.54
28.97
26.20
23.99
22.93
23.30
24.93
27.35
29.90
32.09
33.66
34.67
35.30
35.65
35.68
35.13
33.73
31.36
28.12
24.36
20.51
16.91
13.67
10.61
7.44
3.83
-0.32
-4.93
-9.71
-14.32
-18.49
-22.13
-25.31
-28.34
-31.68
-35.85
-41.31
-48.12
-55.75
-62.99
-68.12
-69.39
-65.58
-56.52
-43.16
-27.33
-11.19
3.40
15.20
23.72
29.01
31.42
31.48
29.79
27.01
23.94
21.34
19.82
19.71
20.99
23.31
26.17
29.09
31.69
33.83
35.45
36.52
36.95
36.57
35.21
32.82
29.57
25.77
21.84
18.12
14.72
11.53
8.28
4.70
0.64
-3.78
-8.25
-12.40
-15.97
-18.96
-21.70
-24.74
-28.69
-33.98
-40.60
-48.03
-55.18
-60.61
-62.79
-60.51
-53.30
-41.59
-26.69
-10.44
5.23
18.76
29.21
36.25
39.97
40.73
39.04
35.56
31.17
26.81
23.42
21.59
21.50
22.84
25.00
27.28
29.19
30.54
31.38
31.92
32.24
32.23
31.60
30.02
27.32
23.61
19.29
14.90
10.86
7.36
4.27
1.26
-2.05
-5.92
-10.35
-15.13
-19.87
-24.18
-27.77
-30.62
-33.01
-35.53
-38.88
-43.61
-49.84
-57.02
-63.92
-68.83
-70.03
-66.31
-57.43
-44.17
-28.25
-11.78
3.31
15.60
24.43
29.74
31.97
31.74
29.75
26.80
23.67
21.17
19.89
20.14
21.78
24.30
27.05
29.42
31.11
32.17
32.83
33.32
33.68
33.70
33.05
31.46
28.89
25.53
21.77
17.96
14.34
10.90
7.51
3.93
0.02
-4.22
-8.62
-12.91
-16.78
-20.10
-22.91
-25.45
-28.12
-31.40
-35.74
-41.38
-48.18
-55.43
-61.85
-65.81
-65.83
-61.02
-51.45
-38.21
-23.07
-8.02
5.30
15.85
23.24
27.57
29.22
28.69
26.54
23.43
20.07
17.15
15.22
14.61
15.27
16.94
19.20
21.63
23.91
25.85
27.35
28.32
28.66
28.24
26.99
24.92
22.13
18.83
15.25
11.58
7.98
4.46
0.97
-2.63
-6.41
-10.34
-14.25
-17.91
-21.13
-23.94
-26.62
-29.65
-33.57
-38.74
-45.04
-51.76
-57.58
-60.96
-60.45
-55.28
-45.57
-32.39
-17.43
-2.59
10.55
20.97
28.25
32.47
33.95
33.17
30.67
27.09
23.15
19.59
17.07
15.98
16.39
18.02
20.37
22.90
25.20
27.07
28.48
29.41
29.75
29.30
27.83
25.24
21.72
17.67
13.64
10.05
7.04
4.42
1.77
-1.40
-5.32
-9.95
-14.95
-19.82
-24.16
-27.76
-30.75
-33.55
-36.76
-40.96
-46.51
-53.28
-60.55
-66.99
-70.94
-70.81
-65.62
-55.35
-41.03
-24.50
-7.89
6.91
18.67
26.88
31.67
33.56
33.17
31.17
28.20
24.96
22.13
20.25
19.70
20.44
22.18
24.43
26.71
28.71
30.28
31.42
32.13
32.36
31.95
30.74
28.61
25.63
22.01
18.11
14.27
10.73
7.48
4.37
1.12
-2.49
-6.48
-10.68
-14.83
-18.70
-22.25
-25.65
-29.28
-33.60
-38.92
-45.24
-52.06
-58.34
-62.66
-63.57
-59.98
-51.62
-39.23
