1520872958.00
64.000000
-0.00
-0.00
-0.00
-0.00
-0.00
-0.00
-0.00
-0.00
-0.00
-0.00
0.00
0.01
0.01
-0.00
-0.03
-0.05
-0.05
0.00
0.13
0.36
0.66
1.01
1.37
1.72
2.06
2.40
2.79
3.24
3.80
4.42
5.06
5.66
6.20
6.68
7.15
7.68
8.31
9.14
10.09
11.04
11.88
12.56
13.14
13.76
14.65
15.96
17.91
20.32
22.90
25.38
27.58
29.57
31.68
34.32
37.81
42.54
48.15
54.10
59.83
64.97
69.58
74.14
79.34
85.71
93.76
103.00
112.62
121.73
129.77
136.75
143.30
150.75
157.77
166.64
177.95
191.79
206.97
220.57
228.25
225.36
208.53
176.87
132.76
80.05
23.07
-34.94
-92.44
-149.16
-205.23
-260.37
-313.74
-363.87
-409.83
-450.91
-486.50
-515.74
-537.23
-549.22
-549.96
-538.37
-514.21
-478.67
-433.88
-382.45
-327.02
-269.84
-212.63
-156.66
-102.95
-52.37
-5.90
35.58
71.43
101.35
125.50
144.38
158.69
169.15
176.37
180.75
182.57
182.07
179.51
175.23
169.65
163.18
156.15
148.81
141.30
133.69
126.02
118.33
110.69
103.16
95.80
88.68
81.83
75.25
68.95
62.95
57.25
51.86
46.78
42.03
37.59
33.45
29.61
26.07
22.81
19.83
17.11
14.67
12.48
10.54
8.83
7.35
6.07
4.97
4.05
3.27
2.62
2.09
1.65
1.30
1.01
0.79
0.61
0.47
0.37
0.29
0.23
0.19
0.17
0.16
0.15
0.17
0.18
0.21
0.24
0.27
0.31
0.35
0.39
0.44
0.49
0.53
0.58
0.64
0.69
0.75
0.81
0.88
0.96
1.04
1.14
1.24
1.35
1.48
1.63
1.79
1.97
2.17
2.40
2.65
2.92
3.22
3.55
3.92
4.32
4.75
5.22
5.72
6.27
6.85
7.48
8.15
8.86
9.62
10.43
11.27
12.17
13.11
14.10
15.16
16.28
17.46
18.70
19.97
21.25
22.47
23.54
24.38
24.87
24.87
24.27
23.00
21.00
18.29
14.93
10.99
6.67
2.16
-2.33
-6.60
-10.44
-13.69
-16.25
-18.05
-19.09
-19.43
-19.17
-18.47
-17.45
-16.23
-14.90
-13.49
-12.00
-10.43
-8.77
-7.07
-5.39
-3.76
-2.18
-0.63
0.95
2.65
4.52
6.60
8.76
10.86
12.82
14.63
16.36
18.17
20.22
22.66
25.60
28.68
31.61
34.15
36.25
38.06
39.89
42.10
44.99
48.66
52.50
55.89
58.38
59.83
60.42
60.71
61.29
62.58
64.67
66.52
67.07
65.42
61.06
53.94
44.17
31.64
15.31
-1.97
-19.90
-38.86
-59.56
-82.83
-109.39
-139.21
-170.92
-201.49
-226.39
-241.63
-244.35
-234.21
-213.64
-186.95
-158.72
-132.30
-109.20
-89.36
-72.52
-58.33
-46.56
-36.93
-28.81
-21.23
-13.15
-3.95
6.28
16.58
25.74
32.85
37.59
40.28
41.64
42.49
43.39
44.53
45.54
46.01
45.71
44.77
43.67
42.96
43.01
43.71
44.39
44.01
41.61
36.73
29.82
22.20
15.73
12.28
13.17
18.78
28.52
40.97
54.26
66.38
75.69
81.11
82.37
79.95
74.80
68.03
60.57
53.07
45.93
39.48
34.11
30.12
27.53
25.86
24.20
21.48
16.82
9.90
0.92
-9.51
-20.67
-31.97
-43.05
-53.69
-63.67
-72.65
-80.20
-85.93
-89.63
-91.44
-91.82
-91.41
-90.71
-89.95
-88.94
-87.15
-84.03
-79.23
-72.82
-65.24
-57.20
-49.36
-42.30
-36.33
-31.60
-28.05
-25.40
-23.10
-20.29
-15.97
-9.21
0.53
13.17
28.00
43.90
59.54
73.66
85.23
93.42
97.62
97.40
92.74
84.09
72.50
59.50
46.77
35.85
27.73
22.73
20.39
19.77
19.59
18.69
16.32
12.27
6.85
0.69
-5.67
-11.93
-18.07
-24.07
-29.67
-34.25
-37.00
-37.36
-35.39
-31.85
-27.89
-24.54
-22.36
-21.27
-20.82
-20.52
-20.15
-19.77
-19.58
-19.74
-20.28
-21.11
-22.04
-22.83
-23.09
-22.28
-19.78
-15.10
-8.07
0.93
10.97
20.79
29.11
34.98
38.01
38.29
36.27
32.55
27.68
22.15
16.52
11.45
7.64
5.66
5.70
7.42
10.08
12.72
14.55
15.13
14.45
12.79
10.51
7.94
5.25
2.39
-0.77
-4.37
-8.43
-12.68
-16.62
-19.68
-21.45
-21.92
-21.55
-21.15
-21.52
-23.18
-26.24
-30.47
-35.40
-40.47
-44.93
-47.86
-48.18
-44.97
-37.86
-27.31
-14.68
-1.86
9.36
17.80
23.15
25.91
26.90
26.87
26.28
25.25
23.85
22.19
20.54
19.27
18.69
18.99
20.08
21.73
23.61
25.41
26.82
27.67
27.85
27.29
25.95
23.76
20.70
16.77
12.17
7.26
2.52
-1.62
-4.92
-7.46
-9.61
-11.82
-14.49
-17.83
-21.89
-26.65
-32.03
-37.80
-43.43
-48.01
-50.29
-49.19
-44.13
-35.45
-24.38
-12.61
-1.78
7.05
13.56
18.05
21.01
22.91
23.98
24.29
23.96
23.24
22.53
22.25
22.65
23.72
25.24
26.96
28.62
30.08
31.21
31.89
31.96
31.31
29.94
28.00
25.72
23.27
20.75
18.08
15.13
11.86
8.31
4.63
0.98
-2.53
-5.87
-9.01
-11.93
-14.58
-17.02
-19.48
-22.42
-26.33
-31.45
-37.41
-43.13
-46.99
-47.36
-43.24
-34.68
-22.88
-9.69
2.97
13.67
21.74
27.21
30.42
31.79
31.70
30.51
28.61
26.49
24.59
23.25
22.57
22.49
22.84
23.46
24.26
25.13
25.96
26.55
26.64
25.99
24.44
21.91
18.49
14.42
10.10
5.99
2.48
-0.24
-2.22
-3.79
-5.46
-7.66
-10.57
-14.03
-17.54
-20.56
-22.67
-23.83
-24.42
-25.16
-26.84
-30.03
-34.84
-40.73
-46.53
-50.70
-51.73
-48.61
-41.20
-30.34
-17.58
-4.77
6.53
15.33
21.35
24.78
26.05
25.67
24.07
21.75
19.22
17.05
15.68
15.44
16.39
18.27
20.62
22.82
24.36
24.92
24.52
23.45
22.03
20.48
18.73
16.55
13.75
10.39
6.82
3.60
1.13
-0.54
-1.79
-3.18
-5.19
-8.00
-11.42
-15.08
-18.56
-21.62
-24.23
-26.53
-28.87
-31.69
-35.42
-40.30
-46.04
-51.76
-55.95
-57.02
-53.83
-46.24
-35.20
-22.43
-9.88
0.96
9.33
15.22
19.03
21.24
22.26
22.43
22.06
21.55
21.27
21.48
22.24
23.43
24.89
26.50
28.18
29.88
31.47
32.79
33.64
33.86
33.44
32.47
31.12
29.52
27.71
25.64
23.27
20.58
17.64
14.59
11.61
8.82
6.28
3.91
1.57
-0.89
-3.61
-6.65
-9.99
-13.56
-17.23
-20.81
-24.16
-27.27
-30.31
-33.67
-37.81
-43.04
-49.33
-56.04
-61.98
-65.71
-65.93
-61.87
-53.64
-42.16
-28.97
-15.84
-4.22
4.97
11.53
15.76
18.22
19.45
19.81
19.56
18.92
18.18
17.70
17.81
18.75
20.51
22.85
25.41
27.82
29.84
31.42
32.65
33.66
34.45
34.91
34.84
34.12
32.75
31.02
29.27
27.80
26.73
25.89
24.98
23.69
21.85
19.50
16.87
14.24
11.86
9.82
8.02
6.22
4.12
1.50
-1.67
-5.22
-8.88
-12.34
-15.46
-18.23
-20.77
-23.20
-25.74
-28.60
-32.07
-36.39
-41.57
-47.14
-52.14
-55.22
-55.12
-51.12
-43.42
-33.09
-21.77
-11.10
-2.27
4.18
8.31
10.50
11.23
10.91
9.89
8.46
6.96
5.76
5.18
5.51
6.85
9.13
12.11
15.43
18.67
21.47
23.59
24.93
25.50
25.41
24.72
23.54
21.93
19.97
17.73
15.36
13.03
10.87
8.98
7.34
5.86
4.38
2.75
0.88
-1.24
-3.56
-6.05
-8.65
-11.30
-13.89
-16.28
-18.36
-20.18
-21.97
-24.15
-27.19
-31.34
-36.44
-41.74
-46.08
-48.12
-46.82
-41.75
-33.31
-22.59
-11.01
0.06
9.66
17.28
22.80
26.33
27.95
27.80
26.05
23.12
19.66
16.48
14.37
13.81
14.83
17.04
19.73
22.21
23.98
24.91
25.11
24.86
24.33
23.55
22.39
20.72
18.47
15.76
12.80
9.84
7.08
4.61
2.37
0.21
-2.02
-4.48
-7.14
-9.87
-12.46
-14.68
-16.45
-17.80
-18.98
-20.36
-22.36
-25.36
-29.59
-34.95
-40.84
-46.20
-49.62
-49.75
-45.79
-37.83
-26.87
-14.57
-2.67
7.46
15.15
20.35
23.43
24.80
24.79
23.66
21.64
19.15
16.76
15.02
14.30
14.65
15.78
17.27
18.70
19.87
20.78
21.55
22.22
22.68
22.64
21.80
20.00
17.33
14.12
10.82
7.79
5.25
3.22
1.57
0.07
-1.50
-3.35
-5.60
-8.20
-11.00
-13.76
-16.24
-18.38
-20.30
-22.29
-24.79
-28.18
-32.68
-38.08
-43.78
-48.68
-51.49
-51.04
-46.71
-38.74
-28.22
-16.77
-6.11
2.51
8.49
11.86
13.09
12.75
11.38
9.43
7.29
5.24
3.53
2.29
1.54
1.25
1.45
2.29
4.04
6.96
11.10
16.26
21.90
27.34
31.88
35.03
36.51
36.34
34.69
31.87
28.22
24.11
19.86
15.79
12.06
8.84
6.16
4.01
2.30
0.75
-1.16
-4.16
-8.90
-15.67
-24.00
-32.61
-39.75
-43.67
-43.23
-38.24
-29.37
-17.83
-4.98
7.98
20.03
30.27
37.90
42.35
43.44
41.56
37.55
32.49
27.35
22.75
18.91
15.80
13.30
11.34
9.92
9.08
8.74
8.69
8.61
8.11
6.84
4.53
1.09
-3.47
-9.02
-15.41
-22.48
-30.14
-38.24
-46.51
-54.47
-61.41
-66.52
-69.06
-68.64
-65.34
-59.78
-52.92
-45.85
-39.58
-34.82
-32.03
-31.33
-32.52
-35.01
-37.77
-39.43
-38.50
-33.84
-25.09
-12.88
1.27
15.42
27.80
37.27
43.52
46.86
47.97
47.52
46.05
44.00
41.76
39.76
38.33
37.66
37.70
38.19
38.80
39.27
39.50
39.52
39.38
39.15
38.79
38.16
37.10
35.53
33.48
31.13
28.76
26.61
24.72
23.00
21.19
19.03
16.35
13.24
9.86
6.39
2.86
-0.93
-5.36
-10.83
-17.68
-25.95
-35.33
-45.11
-54.17
-61.24
-65.18
-65.33
-61.70
-55.02
-46.48
-37.36
-28.73
-21.20
-15.00
-10.14
-6.62
-4.49
-3.76
-4.25
-5.59
-7.13
-8.24
-8.37
-7.28
-5.06
-1.98
1.56
5.18
8.56
11.45
13.70
15.19
15.91
15.88
15.15
13.73
11.66
8.95
5.74
2.23
-1.30
-4.59
-7.45
-9.93
-12.15
-14.35
-16.78
-19.72
-23.39
-27.83
-32.79
-37.56
-41.06
-42.11
-39.81
-33.96
-25.15
-14.54
-3.55
6.58
15.03
21.33
25.31
27.02
26.65
24.59
21.41
17.76
14.26
11.38
9.44
8.56
8.68
9.61
11.07
12.71
14.26
15.57
16.56
17.22
17.50
17.23
16.21
14.28
11.50
8.12
4.54
1.17
-1.66
-3.83
-5.42
-6.71
-8.10
-10.08
-13.12
-17.54
-23.27
-29.74
-35.80
-39.98
-40.83
-37.51
-30.08
-19.57
-7.68
3.78
13.32
20.14
24.06
25.33
24.36
21.57
17.40
12.40
7.38
3.25
0.88
0.73
2.71
6.12
9.95
13.21
15.33
16.25
16.35
16.12
15.89
15.64
15.03
13.65
11.21
7.75
3.66
-0.50
-4.17
-7.04
-9.10
-10.60
-11.98
-13.68
-16.08
-19.39
-23.59
-28.32
-32.89
-36.28
-37.43
-35.52
-30.34
-22.38
-12.77
-2.86
6.16
13.53
19.04
22.81
25.09
26.07
25.83
24.49
22.30
19.74
17.42
15.86
15.28
15.61
16.44
17.31
17.85
17.93
17.61
17.04
16.36
15.53
14.38
12.67
10.20
6.93
3.04
-1.11
-5.13
-8.66
-11.56
-13.86
-15.83
-17.86
-20.43
-23.84
-28.12
-32.86
-37.21
-40.05
-40.36
-37.53
-31.67
-23.54
-14.34
-5.33
2.47
8.47
12.40
14.28
14.19
12.38
9.20
5.25
1.24
-2.06
-4.03
-4.42
-3.33
-1.12
1.66
4.53
7.09
9.07
10.32
10.79
10.44
9.37
7.69
5.64
3.50
1.53
-0.10
-1.38
-2.40
-3.39
-4.59
-6.27
-8.59
-11.60
-15.08
-18.44
-20.76
-20.97
-18.19
-12.12
-3.26
7.22
17.81
27.11
34.23
38.88
41.18
41.41
39.80
36.57
32.00
26.62
21.15
16.39
12.94
11.02
10.40
10.60
11.16
11.77
12.39
13.08
13.78
14.26
14.11
12.98
10.71
7.50
3.74
-0.08
-3.60
-6.63
-9.25
-11.70
-14.32
-17.49
-21.53
-26.56
-32.35
-38.19
-42.99
-45.45
-44.51
-39.70
-31.37
-20.68
-9.19
1.53
10.43
17.08
21.66
24.64
26.49
27.55
27.98
27.88
27.40
26.75
26.08
25.45
24.82
24.12
23.32
22.50
21.77
21.17
20.60
19.82
18.52
16.40
13.27
9.09
4.03
-1.58
-7.26
-12.49
-16.96
-20.70
-24.11
-27.95
-32.88
-39.21
-46.57
-53.94
-59.83
-62.73
-61.53
-55.84
-46.11
-33.53
-19.73
-6.45
4.90
13.47
19.02
21.84
22.46
21.48
19.44
16.79
13.99
11.50
9.69
8.73
8.54
8.88
9.47
10.21
11.12
12.24
13.53
14.71
15.32
14.92
13.25
10.37
6.66
2.63
-1.29
-4.92
-8.40
-12.10
-16.41
-21.66
-27.89
-34.83
-41.85
-48.00
-52.11
-53.00
-49.76
-42.13
-30.66
-16.73
-2.17
11.32
22.61
31.38
37.95
42.88
46.58
49.17
50.57
50.75
49.95
48.68
47.54
46.89
46.72
46.62
46.05
44.58
42.16
38.98
35.37
31.51
27.37
22.82
17.78
12.45
7.30
2.83
-0.62
-3.06
-4.74
-6.11
-7.48
-9.08
-10.94
-12.98
-15.12
-17.26
-19.41
-21.61
-24.03
-26.96
-30.65
-35.15
-40.15
-44.76
-47.73
-47.67
-43.69
-35.64
-24.38
-11.47
1.28
12.35
20.88
26.76
30.38
32.30
33.06
33.06
32.62
32.10
31.86
32.23
33.35
35.11
37.20
39.23
40.83
41.76
41.97
41.55
40.59
39.09
36.90
33.81
29.67
24.56
18.82
12.94
7.39
2.34
-2.33
-6.97
-11.95
-17.45
-23.38
-29.43
-35.24
-40.53
-45.20
-49.25
-52.73
-55.67
-58.01
-59.58
-60.10
-59.16
-56.35
-51.35
-44.11
-34.88
-24.24
-12.98
-1.95
8.01
16.21
22.08
25.35
26.06
24.60
21.67
18.09
14.57
11.55
9.20
7.46
6.23
5.47
5.16
5.27
5.67
6.19
6.62
6.85
6.82
6.56
6.13
5.63
5.22
5.15
5.74
7.24
9.69
12.81
16.05
18.71
20.20
20.18
18.66
15.84
12.04
7.50
2.41
-3.09
-8.71
-13.97
-18.23
-20.84
-21.37
-19.75
-16.28
-11.55
-6.28
-1.20
3.01
5.73
6.57
5.40
2.53
-1.28
-5.02
-7.70
-8.73
-8.10
-6.39
-4.50
-3.29
-3.25
-4.44
-6.52
-8.92
-11.04
-12.40
-12.77
-12.17
-10.90
-9.45
-8.33
-7.91
-8.38
-9.66
-11.59
-14.08
-17.15
-20.91
-25.35
-30.20
-34.81
-38.31
-39.76
-38.52
-34.49
-28.13
-20.38
-12.35
-5.08
0.75
4.88
7.43
8.68
9.01
8.67
7.89
6.88
5.88
5.23
5.26
6.29
8.44
11.57
15.29
18.97
21.96
23.73
24.03
22.90
20.60
17.52
13.97
10.22
6.31
2.22
-2.16
-6.88
-11.81
-16.77
-21.44
-25.58
-29.12
-32.10
-34.53
-36.28
-36.80
-35.28
-30.88
-23.05
-11.88
1.77
16.43
30.42
42.19
50.76
55.86
57.85
57.41
55.32
52.17
48.28
43.72
38.25
31.40
22.44
10.59
-4.58
-22.75
-42.75
-63.18
-83.27
-103.51
-125.63
-151.30
-180.67
-211.11
-237.47
-253.66
-254.97
-240.04
-211.34
-174.20
-134.83
-98.39
-67.72
-43.02
-22.43
-2.93
18.56
44.16
74.27
107.35
140.12
168.17
186.90
192.53
183.17
159.72
126.26
89.62
57.69
37.09
30.89
37.54
51.58
65.88
74.42
74.16
65.45
51.02
34.17
17.55
2.63
-10.00
-20.06
-27.27
-31.48
-32.99
-32.78
-32.33
-33.19
-36.33
-41.81
-48.77
-55.73
-61.30
-64.58
-65.33
-63.80
-60.39
-55.35
-48.78
-40.75
-31.52
-21.62
-11.83
-2.94
4.38
9.69
12.86
14.03
13.58
12.08
10.16
8.41
7.25
6.91
7.40
8.55
10.14
11.84
13.35
14.34
14.61
14.04
12.66
10.66
8.30
5.85
3.48
1.12
-1.50
-4.84
-9.30
-15.03
-21.64
-28.26
-33.62
-36.43
-35.79
-31.46
-23.98
-14.53
-4.56
4.56
11.93
17.18
20.40
21.89
21.93
20.79
18.69
15.98
13.20
10.94
9.67
9.55
10.38
11.68
12.94
13.79
13.98
13.49
12.35
10.65
8.51
6.05
3.39
0.53
-2.64
-6.33
-10.80
-16.21
-22.54
-29.45
-36.26
-42.02
-45.60
-46.00
-42.65
-35.58
-25.57
-13.91
-2.14
8.31
16.42
21.76
24.44
25.02
24.23
22.78
21.19
19.73
18.51
17.57
16.96
16.78
17.07
17.84
18.92
20.07
20.95
21.29
20.89
19.70
17.78
15.30
12.43
9.31
5.94
2.20
-2.08
-7.09
-12.93
-19.58
-26.81
-34.08
-40.51
-44.94
-46.24
-43.69
-37.30
-27.84
-16.67
-5.28
5.13
13.90
20.78
25.78
28.93
30.29
29.97
28.32
25.96
23.61
22.01
21.63
22.64
24.81
27.62
30.46
32.75
34.17
34.72
34.59
34.06
33.25
32.05
30.21
27.43
23.64
19.01
13.97
8.98
4.42
0.43
-3.07
-6.37
-9.87
-13.98
-19.10
-25.44
-32.93
-41.09
-49.04
-55.57
-59.40
-59.56
-55.64
-47.96
-37.53
-25.73
-13.93
-3.19
5.89
13.08
18.39
21.91
23.83
24.45
24.28
24.04
24.44
26.05
29.07
33.31
38.31
43.47
48.27
52.32
55.42
57.52
58.73
59.21
59.15
58.67
57.78
56.38
54.38
51.75
48.65
45.37
42.18
39.23
36.43
33.49
30.07
25.97
21.23
16.15
11.12
6.50
2.37
-1.44
-5.35
-9.86
-15.40
-22.22
-30.21
-38.90
-47.41
-54.52
-58.94
-59.60
-56.01
-48.46
-38.06
-26.32
-14.83
-4.75
3.36
9.49
13.91
16.98
18.96
20.11
20.75
21.28
22.19
23.77
26.10
28.99
32.06
34.92
37.37
39.36
40.96
42.25
43.26
43.95
44.20
43.85
42.80
40.99
38.51
35.61
32.64
29.94
27.69
25.84
24.07
21.99
19.32
16.03
12.30
8.48
4.83
1.42
-1.83
-5.12
-8.57
-12.24
-16.18
-20.51
-25.47
-31.36
-38.22
-45.66
-52.70
-58.01
-60.21
-58.40
-52.45
-43.13
-31.85
-20.22
-9.64
-0.99
5.42
9.79
12.55
14.18
15.06
15.48
15.69
15.99
16.70
18.12
20.40
23.48
27.04
30.65
33.89
36.48
38.34
39.49
40.01
39.95
39.34
38.21
36.65
34.78
32.73
30.59
28.33
25.93
23.34
20.63
17.91
15.30
12.87
10.56
8.22
5.66
2.77
-0.44
-3.85
-7.30
-10.66
-13.93
-17.17
-20.52
-24.16
-28.27
-33.05
-38.60
-44.80
-51.10
-56.48
-59.61
-59.30
-54.94
-46.85
-36.25
-24.81
-14.14
-5.28
1.42
6.14
9.28
11.15
12.01
12.05
11.64
11.26
11.46
12.66
14.95
18.14
21.80
25.45
28.67
31.24
33.10
34.31
34.97
35.17
34.93
34.21
33.00
31.33
29.31
27.07
24.68
22.19
19.60
16.99
14.51
12.32
10.51
9.00
7.54
5.82
3.60
0.83
-2.39
-5.84
-9.30
-12.63
-15.78
-18.83
-21.97
-25.50
-29.80
-35.14
-41.42
-48.02
-53.82
-57.38
-57.50
-53.59
-45.99
-35.85
-24.77
-14.29
-5.52
1.06
5.50
8.13
9.35
9.48
8.80
7.58
6.23
5.21
4.99
5.88
7.95
10.99
14.54
18.09
21.20
23.61
25.30
26.37
26.96
27.15
26.94
26.23
24.96
23.15
20.91
18.45
15.98
13.66
11.54
9.56
7.53
5.19
2.37
-0.94
-4.54
-8.02
-10.99
-13.25
-14.91
-16.34
-18.05
-20.54
-24.18
-29.11
-35.18
-41.86
-48.17
-52.79
-54.45
-52.30
-46.36
-37.52
-27.30
-17.26
-8.56
-1.78
3.04
6.12
7.71
8.02
7.27
5.82
4.20
2.99
2.67
3.52
5.48
8.27
11.46
14.62
17.45
19.79
21.61
23.01
24.05
24.71
24.87
24.35
22.98
20.75
17.85
14.62
11.50
8.78
6.55
4.63
2.71
0.48
-2.23
-5.34
-8.64
-11.91
-14.99
-17.87
-20.66
-23.50
-26.61
-30.28
-34.82
-40.42
-47.01
-53.95
-60.07
-63.88
-64.07
-60.05
-52.17
-41.70
-30.36
-19.74
-10.88
-4.15
0.59
3.66
5.39
6.04
5.90
5.39
5.01
5.22
6.33
8.35
11.08
14.17
17.34
20.42
23.34
26.04
28.42
30.29
31.45
31.78
31.29
30.16
28.59
26.74
24.68
22.39
19.85
17.12
14.37
11.74
9.39
7.30
5.33
3.32
1.07
-1.50
-4.37
-7.46
-10.64
-13.86
-17.15
-20.55
-24.16
-28.06
-32.38
-37.26
-42.85
-49.12
-55.64
-61.57
-65.67
-66.71
-63.89
-57.19
-47.40
-35.94
-24.36
-13.90
-5.28
1.27
5.91
8.91
10.54
11.06
10.83
10.33
10.12
10.70
12.35
15.06
18.50
22.19
25.71
28.79
31.36
33.45
35.10
36.24
36.77
36.54
35.54
33.92
31.94
29.92
28.13
26.72
25.65
24.74
23.75
22.52
20.95
19.07
16.95
14.70
12.38
10.01
7.57
4.99
2.14
-1.08
-4.73
-8.73
-12.88
-16.87
-20.42
-23.40
-25.97
-28.54
-31.66
-35.85
-41.28
-47.66
-54.14
-59.52
-62.44
-61.85
-57.31
-49.18
-38.57
-27.02
-16.02
-6.67
0.51
5.55
8.78
10.56
11.21
10.97
10.22
9.43
9.23
10.08
12.19
15.34
19.02
22.62
25.69
28.08
29.92
31.44
32.81
33.99
34.77
34.92
34.26
32.82
30.83
28.67
26.69
25.09
23.86
22.77
21.50
19.80
17.59
14.98
12.25
9.70
7.53
5.76
4.20
2.50
0.36
-2.41
-5.75
-9.36
-12.85
-15.89
-18.42
-20.65
-22.99
-25.90
-29.82
-34.99
-41.32
-48.35
-55.13
-60.33
-62.52
-60.69
-54.57
-44.88
-33.12
-21.11
-10.36
-1.82
4.29
8.22
10.46
11.46
11.54
11.02
10.24
9.61
9.58
10.51
12.53
15.46
18.91
22.38
25.46
27.93
29.77
31.09
31.96
32.40
32.35
31.74
30.58
28.99
27.18
25.38
23.73
22.31
21.07
19.88
18.56
16.97
15.06
12.85
10.48
8.14
5.96
3.96
2.08
0.10
-2.22
-5.00
-8.24
-11.71
-15.08
-18.06
-20.55
-22.73
-24.99
-27.91
-31.94
-37.28
-43.64
-50.17
-55.56
-58.33
-57.33
-52.07
-43.08
-31.65
-19.54
-8.35
0.84
7.63
12.11
14.62
15.52
15.20
14.05
12.53
11.15
10.33
10.33
11.21
12.86
15.05
17.50
19.93
22.09
23.85
25.14
26.00
26.44
26.47
26.02
25.05
23.59
21.84
20.04
18.39
16.96
15.57
14.03
12.16
9.97
7.64
5.43
3.47
1.78
0.20
-1.48
-3.44
-5.76
-8.45
-11.38
-14.40
-17.36
-20.14
-22.76
-25.40
-28.43
-32.29
-37.28
-43.32
-49.73
-55.32
-58.56
-58.18
-53.55
-44.98
-33.71
-21.49
-10.05
-0.64
6.16
10.38
12.39
12.64
11.60
9.79
7.80
6.29
5.82
6.68
8.81
11.84
15.26
18.57
21.47
23.83
25.64
26.94
27.78
28.16
28.12
27.71
27.00
26.04
24.90
23.60
22.16
20.60
18.89
17.00
14.90
12.60
10.18
7.81
5.67
3.90
2.46
1.18
-0.26
-2.17
-4.73
-7.91
-11.46
-15.03
-18.30
-21.14
-23.66
-26.16
-29.16
-33.10
-38.21
-44.20
-50.21
-54.91
-56.87
-55.04
-49.16
-39.91
-28.66
-17.06
-6.58
1.84
7.79
11.30
12.65
12.25
10.65
8.47
6.37
4.96
4.65
5.59
7.68
10.57
13.79
16.88
19.47
21.38
22.64
23.44
23.95
24.30
24.39
23.99
22.89
20.97
18.39
15.49
12.72
10.36
8.45
6.69
4.70
2.13
-1.03
-4.53
-7.90
-10.71
-12.79
-14.25
-15.52
-17.09
-19.40
-22.74
-27.18
-32.48
-38.08
-43.07
-46.32
-46.77
-43.74
-37.26
-28.12
-17.65
-7.32
1.62
8.44
12.90
15.18
15.63
14.68
12.80
10.53
8.48
7.25
7.30
8.79
11.48
14.83
18.11
20.75
22.46
23.28
23.52
23.48
23.23
22.60
21.21
18.79
15.36
11.35
7.41
4.19
1.98
0.62
-0.40
-1.75
-3.86
-6.82
-10.29
-13.76
-16.71
-18.87
-20.33
-21.48
-22.95
-25.37
-29.20
-34.56
-41.00
-47.57
-52.95
-55.73
-54.90
-50.12
-41.88
-31.39
-20.23
-9.88
-1.43
4.66
8.47
10.44
11.13
11.11
10.80
10.56
10.66
11.29
12.58
14.54
17.03
19.84
22.72
25.47
27.95
30.05
31.66
32.64
32.86
32.26
30.91
28.99
26.68
24.20
21.66
19.16
16.77
14.55
12.56
10.75
8.96
7.00
4.67
1.93
-1.16
-4.40
-7.58
-10.60
-13.43
-16.14
-18.79
-21.47
-24.26
-27.32
-30.91
-35.34
-40.89
-47.48
-54.57
-61.02
-65.37
-66.24
-62.82
-55.20
-44.43
-32.20
-20.30
-10.17
-2.49
2.73
6.00
7.97
9.23
10.18
11.09
12.14
13.51
15.38
17.85
20.91
24.38
27.91
31.14
33.81
35.82
37.31
38.49
39.57
40.54
41.22
41.28
40.45
38.67
36.15
33.29
30.50
28.09
26.10
24.42
22.86
21.25
19.49
17.55
15.44
13.24
11.04
8.96
7.08
5.33
3.53
1.43
-1.22
-4.52
-8.36
-12.44
-16.43
-20.08
-23.31
-26.24
-29.18
-32.54
-36.77
-42.13
-48.52
-55.30
-61.32
-65.11
-65.40
-61.48
-53.58
-42.75
-30.56
-18.65
-8.31
-0.27
5.30
8.66
10.32
10.90
11.01
11.12
11.59
12.59
14.19
16.38
19.10
22.23
25.59
28.91
31.89
34.29
36.02
37.15
37.82
38.17
38.18
37.70
36.53
34.60
32.02
29.17
26.53
24.47
23.10
22.27
21.62
20.78
19.48
17.62
15.29
12.68
10.04
7.56
5.34
3.31
1.22
-1.24
-4.32
-8.06
-12.20
-16.30
-19.95
-22.93
-25.40
-27.75
-30.53
-34.21
-38.99
-44.70
-50.75
-56.13
-59.60
-59.97
-56.46
-49.07
-38.61
-26.59
-14.67
-4.27
3.81
9.35
12.60
13.97
13.96
13.06
11.79
10.69
10.21
10.62
11.97
14.08
16.67
19.44
22.15
24.65
26.83
28.60
29.92
30.74
31.06
30.88
30.23
29.14
27.67
25.89
23.92
21.90
19.96
18.19
16.61
15.11
13.56
11.85
9.95
7.92
5.90
3.94
2.05
0.14
-1.87
-4.04
-6.38
-8.88
-11.54
-14.38
-17.42
-20.60
-23.85
-27.15
-30.64
-34.55
-39.08
-44.07
-48.85
-52.34
-53.29
-50.82
-44.75
-35.72
-25.07
-14.35
-4.92
2.38
7.28
10.01
11.00
10.72
9.61
8.00
6.23
4.66
3.67
3.53
4.43
6.32
9.03
12.22
15.46
18.34
20.51
21.77
22.14
21.78
20.95
19.90
18.79
17.66
16.51
15.28
13.99
12.65
11.32
10.03
8.78
7.51
6.15
4.58
2.77
0.70
-1.53
-3.83
-6.10
-8.27
-10.34
-12.30
-14.19
-16.11
-18.24
-20.89
-24.42
-29.06
-34.61
-40.38
-45.16
-47.59
-46.56
-41.69
-33.48
-23.18
-12.39
-2.56
5.33
10.94
14.41
16.08
16.31
15.41
13.70
11.60
9.73
8.69
8.96
10.64
13.41
16.62
19.60
21.83
23.19
23.80
23.95
23.76
23.20
22.11
20.34
17.95
15.19
12.42
9.89
7.65
5.56
3.36
0.81
-2.18
-5.52
-8.98
-12.29
-15.21
-17.63
-19.59
-21.32
-23.21
-25.73
-29.31
-34.16
-40.04
-46.13
-51.13
-53.58
-52.36
-47.14
-38.52
-27.87
-16.83
-6.85
1.19
7.03
10.82
12.86
13.47
12.97
11.68
10.05
8.61
7.90
8.28
9.82
12.28
15.17
17.94
20.18
21.72
22.66
23.19
23.43
23.34
22.74
21.47
19.51
17.03
14.30
11.65
9.26
7.17
5.24
3.24
0.90
-1.97
-5.39
-9.26
-13.27
-17.08
-20.39
-23.10
-25.45
-27.93
-31.21
-35.84
-41.91
-48.89
-55.62
-60.54
-62.22
-59.76
-53.15
-43.28
-31.62
-19.82
-9.19
-0.49
6.10
10.82
14.04
16.10
17.28
17.80
17.94
18.09
18.62
19.83
21.81
24.40
27.26
30.05
32.53
34.57
36.19
37.37
38.06
38.18
37.63
36.44
34.74
32.68
30.46
28.19
25.86
23.40
20.73
17.75
14.47
10.99
7.49
4.19
1.27
-1.27
-3.60
-6.03
-8.88
-12.32
-16.26
-20.39
-24.28
-27.66
-30.51
-33.12
-36.03
-39.86
-45.08
-51.77
-59.44
-67.01
-72.96
-75.71
-74.15
-67.97
-57.89
-45.36
-32.17
-19.89
-9.55
-1.48
4.55
9.01
12.43
15.16
17.40
19.28
20.89
22.42
24.13
26.27
28.97
32.15
35.52
38.71
41.35
43.28
44.50
45.18
45.48
45.52
45.29
44.67
43.50
41.75
39.50
36.99
34.55
32.41
30.56
28.78
26.72
24.11
20.94
17.46
14.06
11.11
8.74
6.82
5.01
2.97
0.43
-2.68
-6.29
-10.22
-14.25
-18.18
-21.92
-25.47
-28.96
-32.61
-36.74
-41.67
-47.58
-54.36
-61.40
-67.52
-71.25
-71.19
-66.54
-57.54
-45.36
-31.89
-19.01
-8.10
0.24
6.18
10.24
12.98
14.77
15.80
16.32
16.69
17.46
19.10
21.82
25.44
29.43
33.16
36.21
38.42
39.96
41.08
41.93
42.48
42.54
41.91
40.57
38.62
36.34
34.03
31.91
30.07
28.42
26.76
24.85
22.58
19.98
17.26
14.66
12.34
10.24
8.13
5.69
2.74
-0.72
-4.46
-8.13
-11.49
-14.43
-17.11
-19.79
-22.77
-26.37
-30.82
-36.17
-42.13
-47.95
-52.48
-54.38
-52.63
-46.87
-37.70
-26.54
-15.16
-5.16
2.52
7.66
10.65
12.09
12.47
12.06
11.03
9.58
8.06
6.99
6.87
7.96
10.19
13.20
16.42
19.40
21.80
23.54
24.65
25.20
25.19
24.62
23.49
21.88
19.95
17.88
15.86
13.96
12.16
10.30
8.21
5.76
2.92
-0.22
-3.56
-6.98
-10.39
-13.72
-16.87
-19.74
-22.31
-24.65
-27.03
-29.90
-33.76
-38.90
-45.27
-52.19
-58.53
-62.85
-63.90
-60.97
-54.16
-44.34
-32.93
-21.48
-11.27
-3.07
2.91
6.87
9.25
10.55
11.20
11.56
11.91
12.52
13.59
15.24
17.46
20.15
23.09
26.06
28.86
31.33
33.31
34.64
35.24
35.04
34.15
32.75
31.10
29.35
27.57
25.66
23.45
20.83
17.79
14.51
11.21
8.11
5.27
2.56
-0.23
-3.32
-6.75
-10.37
-13.93
-17.18
-20.00
-22.53
-25.08
-28.07
-31.96
-37.00
-43.24
-50.30
-57.36
-63.20
-66.44
-65.98
-61.30
-52.80
-41.60
-29.30
-17.44
-7.17
0.97
6.98
11.16
13.94
15.68
16.68
17.27
17.82
18.68
20.18
22.44
25.36
28.60
31.75
34.47
36.63
38.25
39.42
40.22
40.55
40.30
39.34
37.75
35.76
33.64
31.62
29.76
27.97
26.07
23.96
21.62
19.17
16.75
14.49
12.38
10.33
8.16
5.66
2.74
-0.62
-4.29
-8.10
-11.93
-15.74
-19.61
-23.65
-27.98
-32.70
-37.89
-43.59
-49.64
-55.50
-60.23
-62.60
-61.52
-56.40
-47.54
-36.08
-23.65
-11.90
-1.96
5.65
11.05
14.64
16.86
18.04
18.36
18.04
17.41
16.95
17.18
18.50
20.97
24.30
27.92
31.18
33.55
34.77
34.86
34.06
32.73
31.19
29.67
28.22
26.79
25.18
23.28
21.06
18.60
16.07
13.61
11.29
9.10
7.00
4.91
2.75
0.48
-1.93
-4.48
-7.07
-9.58
-11.94
-14.20
-16.59
-19.45
-23.13
-27.89
-33.73
-40.26
-46.69
-51.89
-54.59
-53.76
-48.95
-40.53
-29.67
-17.95
-6.98
2.12
8.83
13.22
15.66
16.55
16.21
14.91
12.97
10.90
9.35
8.90
9.95
12.45
15.95
19.67
22.89
25.13
26.33
26.80
26.91
26.96
26.89
26.44
25.26
23.12
20.12
16.62
13.15
10.15
7.86
6.17
4.68
2.92
0.51
-2.68
-6.47
-10.48
-14.31
-17.66
-20.49
-22.97
-25.48
-28.49
-32.47
-37.70
-44.16
-51.29
-58.07
-63.16
-65.29
-63.66
-58.21
-49.65
-39.26
-28.48
-18.59
-10.40
-4.22
0.09
2.90
4.61
5.58
6.06
6.29
6.57
7.29
8.82
11.37
14.83
18.83
22.81
26.29
28.98
30.84
32.01
32.63
32.80
32.46
31.54
30.01
27.89
25.34
22.55
19.74
17.13
14.87
13.04
11.56
10.27
8.91
7.24
5.08
2.41
-0.69
-4.06
-7.50
-10.85
-14.06
-17.17
-20.40
-24.14
-28.79
-34.55
-41.24
-48.05
-53.74
-56.82
-56.14
-51.23
-42.54
-31.32
-19.20
-7.73
2.03
9.60
15.01
18.52
20.46
21.16
20.98
20.39
19.90
19.98
20.87
22.53
24.70
27.06
29.32
31.26
32.78
33.80
34.31
34.35
34.01
33.46
32.77
31.92
30.71
28.92
26.41
23.28
19.80
16.38
13.34
10.79
8.57
6.40
3.96
1.09
-2.17
-5.64
-9.08
-12.32
-15.33
-18.21
-21.13
-24.31
-27.98
-32.35
-37.46
-42.98
-48.11
-51.72
-52.59
-49.94
-43.67
-34.51
-23.76
-12.81
-2.83
5.51
11.94
16.47
19.19
20.24
19.86
18.50
16.72
15.15
14.31
14.45
15.62
17.62
20.12
22.74
25.12
26.93
27.97
28.11
27.38
25.93
23.97
21.70
19.25
16.66
13.92
11.02
7.96
4.79
1.55
-1.74
-5.07
-8.45
-11.80
-15.05
-18.17
-21.28
-24.66
-28.63
-33.25
-38.16
-42.44
-44.92
-44.56
-40.82
-33.91
-24.71
-14.45
-4.37
4.54
11.66
16.71
19.65
20.61
19.86
17.83
15.09
12.36
10.36
9.62
10.33
12.28
14.92
17.62
19.84
21.28
21.94
21.96
21.52
20.69
19.48
17.87
15.82
13.36
10.51
7.34
3.95
0.50
-2.90
-6.14
-9.16
-11.98
-14.66
-17.33
-20.19
-23.47
-27.38
-31.90
-36.63
-40.73
-43.10
-42.65
-38.77
-31.55
-21.82
-10.91
-0.27
8.88
15.76
20.12
22.14
22.23
20.92
18.78
16.36
14.14
12.54
11.89
12.29
13.69
15.83
18.27
20.52
22.17
23.00
23.03
22.44
21.47
20.28
18.94
17.41
15.62
13.55
11.18
8.57
5.72
2.64
-0.64
-4.05
-7.44
-10.63
-13.53
-16.11
-18.51
-20.97
-23.80
-27.28
-31.58
-36.48
-41.33
-45.04
-46.36
-44.31
-38.58
-29.77
-19.18
-8.43
1.06
8.46
13.57
16.65
18.12
18.29
17.35
15.46
12.93
10.29
8.21
7.30
7.84
9.71
12.36
15.11
17.34
18.72
19.27
19.18
18.66
17.77
16.41
14.41
11.67
8.32
4.60
0.84
-2.68
-5.83
-8.68
-11.32
-13.86
-16.38
-18.98
-21.81
-25.11
-29.15
-33.96
-39.23
-44.16
-47.58
-48.28
-45.44
-38.95
-29.54
-18.56
-7.61
1.97
9.41
14.53
17.58
18.98
19.07
18.10
16.29
14.02
11.84
10.34
10.00
10.98
13.06
15.73
18.37
20.49
21.79
22.21
21.83
20.79
19.27
17.39
15.23
12.87
10.32
7.58
4.63
1.41
-2.10
-5.86
-9.73
-13.48
-16.89
-19.82
-22.31
-24.67
-27.40
-31.05
-35.99
-42.16
-48.88
-54.89
-58.69
-58.93
-54.90
-46.83
-35.81
-23.47
-11.49
-1.13
6.92
12.57
16.07
17.84
18.32
17.93
17.11
16.25
15.74
15.85
16.73
18.37
20.59
23.14
25.66
27.87
29.56
30.66
31.22
31.26
30.78
29.68
27.84
25.28
22.19
18.91
15.80
13.04
10.57
8.14
5.42
2.24
-1.35
-5.17
-8.93
-12.46
-15.67
-18.62
-21.43
-24.31
-27.56
-31.55
-36.65
-42.92
-49.93
-56.62
-61.46
-62.91
-59.93
-52.39
-41.16
-27.89
-14.43
-2.35
7.36
14.37
18.89
21.40
22.44
22.53
22.04
21.31
20.63
20.33
20.72
22.02
24.25
27.17
30.31
33.11
35.16
36.24
36.46
36.06
35.28
34.22
32.86
31.12
28.95
26.49
23.96
21.57
19.40
17.37
15.26
12.91
10.30
7.55
4.78
2.10
-0.53
-3.25
-6.14
-9.21
-12.34
-15.35
-18.14
-20.68
-23.12
-25.72
-28.84
-32.83
-37.88
-43.85
-50.07
-55.38
-58.33
-57.60
-52.50
-43.24
-30.99
-17.52
-4.65
6.18
14.27
19.59
22.58
23.80
23.77
22.87
21.49
20.03
18.94
18.63
19.33
21.04
23.48
26.21
28.74
30.69
31.86
32.23
31.96
31.24
30.27
29.17
27.92
26.45
24.63
22.40
19.80
16.98
14.14
11.49
9.14
7.09
5.27
3.52
1.68
-0.38
-2.71
-5.25
-7.89
-10.49
-12.98
-15.37
-17.80
-20.57
-23.99
-28.35
-33.70
-39.71
-45.54
-49.99
-51.74
-49.77
-43.73
-34.16
-22.37
-10.04
1.20
10.21
16.48
20.04
21.22
20.51
18.43
15.52
12.40
9.69
7.95
7.53
8.46
10.46
13.01
15.59
17.80
19.52
20.82
21.80
22.48
22.67
22.09
20.51
17.92
14.58
10.95
7.48
4.44
1.91
-0.27
-2.28
-4.36
-6.61
-9.14
-11.99
-15.11
-18.34
-21.43
-24.17
-26.52
-28.72
-31.31
-34.87
-39.73
-45.64
-51.71
-56.54
-58.65
-56.94
-51.11
-41.67
-29.87
-17.26
-5.35
4.78
12.53
17.83
20.91
22.17
22.03
20.90
19.14
17.18
15.45
14.43
14.49
15.77
18.13
21.11
24.16
26.71
28.45
29.30
29.42
29.01
28.25
27.19
25.74
23.78
21.25
18.23
14.95
11.67
8.64
5.98
3.66
1.47
-0.81
-3.42
-6.46
-9.89
-13.53
-17.13
-20.44
-23.35
-25.91
-28.37
-31.09
-34.45
-38.73
-43.98
-49.87
-55.68
-60.32
-62.50
-61.07
-55.37
-45.58
-32.80
-18.74
-5.28
6.10
14.64
20.34
23.72
25.41
25.90
25.48
24.35
22.85
21.43
20.63
20.82
22.03
23.94
26.02
27.75
28.88
29.44
29.69
29.89
30.17
30.45
30.44
29.82
28.34
25.95
22.82
19.30
15.83
12.80
10.44
8.71
7.38
6.03
4.24
1.75
-1.48
-5.20
-9.05
-12.64
-15.71
-18.21
-20.36
-22.52
-25.17
-28.71
-33.41
-39.19
-45.53
-51.41
-55.48
-56.39
-53.20
-45.76
-34.86
-22.01
-9.03
2.47
11.49
17.74
21.41
23.00
22.98
21.79
19.86
17.67
15.76
14.63
14.56
15.55
17.36
19.58
21.84
23.92
25.70
27.15
28.16
28.60
28.25
26.98
24.77
21.77
18.30
14.79
11.60
8.95
6.83
4.97
2.96
0.45
-2.67
-6.26
-9.89
-13.13
-15.66
-17.52
-19.06
-20.85
-23.45
-27.24
-32.17
-37.70
-42.87
-46.43
-47.23
-44.48
-38.09
-28.72
-17.60
-6.19
4.11
12.33
18.00
21.15
22.14
21.46
19.67
17.22
14.52
11.99
10.06
9.11
9.35
10.70
12.84
15.23
17.39
18.96
19.84
20.08
19.76
18.89
17.48
15.50
13.04
10.23
7.24
4.14
0.93
-2.46
-6.08
-9.86
-13.63
-17.16
-20.27
-22.90
-25.21
-27.56
-30.45
-34.31
-39.28
-44.95
-50.35
-54.15
-55.00
-52.04
-45.21
-35.25
-23.52
-11.55
-0.65
8.28
14.84
18.99
20.91
20.98
19.70
17.69
15.58
13.92
13.04
13.01
13.77
15.12
16.94
19.09
21.44
23.77
25.79
27.22
27.82
27.49
26.25
24.17
21.40
18.15
14.67
11.23
8.00
5.00
2.08
-0.94
-4.16
-7.53
-10.88
-14.06
-17.07
-20.05
-23.25
-26.96
-31.41
-36.68
-42.60
-48.61
-53.69
-56.57
-55.97
-51.23
-42.50
-30.90
-18.11
-5.88
4.52
12.47
18.00
21.48
23.33
23.87
23.36
22.11
20.57
19.28
18.77
19.37
21.11
23.65
26.46
28.98
30.85
31.94
32.40
32.44
32.19
31.61
30.52
28.75
26.27
23.26
20.08
17.07
14.41
12.02
9.62
6.91
3.68
0.00
-3.84
-7.48
-10.60
-13.09
-15.09
-16.92
-19.02
-21.83
-25.70
-30.74
-36.66
-42.67
-47.53
-49.83
-48.40
-42.76
-33.39
-21.61
-9.19
2.18
11.34
17.83
21.78
23.64
23.89
22.95
21.18
19.00
16.92
15.51
15.20
16.12
18.08
20.63
23.19
25.33
26.84
27.71
28.07
27.99
27.45
26.36
24.64
22.37
19.73
16.93
14.17
11.44
8.70
5.81
2.71
-0.54
-3.82
-6.95
-9.79
-12.29
-14.52
-16.66
-19.06
-22.13
-26.23
-31.45
-37.41
-43.16
-47.32
-48.54
-45.89
-39.33
-29.66
-18.34
-6.99
3.04
10.98
16.57
19.91
21.26
20.93
19.26
16.74
13.99
11.66
10.30
10.22
11.38
13.45
15.99
18.55
20.74
22.32
23.12
23.05
22.11
20.32
17.83
14.84
11.61
8.39
5.34
2.49
-0.23
-3.00
-5.94
-9.06
-12.24
-15.28
-18.02
-20.41
-22.58
-24.84
-27.57
-31.16
-35.77
-41.20
-46.81
-51.48
-53.91
-52.98
-48.14
-39.68
-28.70
-16.73
-5.34
4.29
11.59
16.54
19.47
20.86
21.10
20.50
19.37
18.07
16.99
16.55
17.01
18.39
20.38
22.51
24.36
25.71
26.61
27.29
27.90
28.35
28.31
27.38
25.29
22.09
18.16
14.00
10.09
6.68
3.70
0.96
-1.86
-4.97
-8.42
-12.11
-15.84
-19.31
-22.30
-24.71
-26.70
-28.64
-31.08
-34.56
-39.30
-45.03
-50.76
-55.06
-56.37
-53.60
-46.55
-35.99
-23.49
-10.84
0.46
9.55
16.26
20.88
23.82
25.46
26.01
25.65
24.67
23.51
22.69
22.70
23.75
25.71
28.12
30.36
31.89
32.41
31.99
30.99
29.83
28.84
28.04
27.22
26.00
24.13
21.57
18.56
15.50
12.73
10.40
8.41
6.48
4.34
1.86
-0.92
-3.86
-6.80
-9.57
-12.17
-14.63
-17.05
-19.60
-22.51
-26.02
-30.40
-35.72
-41.72
-47.65
-52.32
-54.39
-52.72
-46.91
-37.46
-25.70
-13.40
-2.20
6.84
13.33
17.47
19.67
20.37
19.87
18.48
16.57
14.65
13.27
12.81
13.43
14.94
17.02
19.29
21.48
23.37
24.81
25.61
25.59
24.61
22.71
20.11
17.12
14.11
11.28
8.65
6.07
3.30
0.20
-3.26
-6.95
-10.64
-14.07
-17.07
-19.60
-21.79
-23.93
-26.42
-29.69
-34.02
-39.34
-45.05
-50.08
-53.04
-52.69
-48.36
-40.19
-29.23
-17.04
-5.26
4.82
12.50
17.66
20.56
21.62
21.33
20.16
18.61
17.18
16.29
16.26
17.19
18.95
21.22
23.52
25.41
26.56
26.87
26.52
25.84
25.14
24.55
23.91
22.85
21.01
18.22
14.67
10.84
7.30
4.45
2.39
0.87
-0.57
-2.43
-4.96
-8.14
-11.69
-15.21
-18.39
-21.18
-23.79
-26.59
-30.00
-34.32
-39.67
-45.94
-52.69
-59.11
-64.01
-66.07
-64.15
-57.81
-47.56
-34.78
-21.35
-9.06
0.92
8.15
12.94
15.88
17.62
18.68
19.37
19.90
20.46
21.26
22.47
24.17
26.28
28.63
30.98
33.10
34.86
36.16
37.00
37.36
37.18
36.40
34.97
33.01
30.73
28.46
26.44
24.76
23.28
21.66
19.63
17.07
14.17
11.27
8.69
6.56
4.76
2.96
0.87
-1.65
-4.56
-7.69
-10.83
-13.84
-16.69
-19.41
-22.19
-25.33
-29.22
-34.19
-40.25
-46.88
-52.88
-56.73
-56.92
-52.59
-43.92
-32.09
-18.94
-6.42
4.06
11.83
16.97
19.97
21.40
21.69
21.11
19.94
18.52
17.36
16.92
17.53
19.20
21.68
24.52
27.28
29.62
31.37
32.51
33.12
33.28
33.03
32.28
30.94
28.91
26.23
23.06
19.72
16.51
13.63
11.12
8.85
6.63
4.30
1.81
-0.83
-3.57
-6.32
-8.99
-11.52
-13.83
-15.88
-17.73
-19.60
-21.85
-24.92
-29.18
-34.66
-40.81
-46.54
-50.33
-50.80
-47.15
-39.48
-28.87
-16.95
-5.40
4.49
12.05
17.22
20.27
21.58
21.50
20.37
18.57
16.53
14.79
13.73
13.58
14.35
15.83
17.74
19.76
21.58
22.94
23.67
23.68
23.01
21.85
20.41
18.84
17.15
15.23
12.97
10.37
7.60
4.95
2.68
0.88
-0.63
-2.11
-3.90
-6.21
-9.09
-12.39
-15.86
-19.22
-22.24
-24.84
-27.13
-29.36
-31.89
-35.15
-39.44
-44.83
-50.93
-56.88
-61.36
-62.94
-60.56
-53.91
-43.67
-31.31
-18.64
-7.27
1.82
8.37
12.64
15.12
16.29
16.57
16.31
15.85
15.57
15.81
16.74
18.37
20.54
22.94
25.29
27.38
29.08
30.35
31.19
31.51
31.23
30.30
28.78
26.85
24.78
22.81
21.00
19.24
17.31
14.97
12.16
9.02
5.86
3.04
0.75
-1.03
-2.58
-4.29
-6.48
-9.29
-12.62
-16.18
-19.62
-22.73
-25.52
-28.25
-31.36
-35.33
-40.42
-46.49
-52.87
-58.42
-61.74
-61.58
-57.27
-48.97
-37.68
-24.95
-12.43
-1.43
7.32
13.69
17.96
20.53
21.81
22.11
21.75
21.08
20.49
20.38
20.98
22.37
24.39
26.77
29.20
31.40
33.16
34.39
35.07
35.23
34.92
34.13
32.87
31.12
28.91
26.39
23.78
21.30
19.08
17.09
15.18
13.17
10.95
8.59
6.29
4.27
2.65
1.39
0.22
-1.20
-3.11
-5.61
-8.55
-11.62
-14.51
-17.04
-19.26
-21.48
-24.17
-27.79
-32.60
-38.44
-44.65
-50.09
-53.40
-53.35
-49.27
-41.29
-30.38
-18.06
-5.97
4.51
12.61
18.12
21.27
22.47
22.17
20.77
18.71
16.49
14.66
13.72
13.96
15.37
17.68
20.46
23.24
25.64
27.42
28.53
29.02
29.01
28.63
27.90
26.73
24.99
22.60
19.63
16.33
13.07
10.19
7.83
5.92
4.19
2.32
0.10
-2.54
-5.45
-8.41
-11.15
-13.48
-15.36
-16.89
-18.31
-19.95
-22.23
-25.48
-29.92
-35.34
-41.10
-46.07
-48.88
-48.36
-43.95
-35.97
-25.52
-14.17
-3.46
5.52
12.21
16.55
18.76
19.16
18.13
16.12
13.64
11.30
9.63
9.02
9.59
11.18
13.37
15.67
17.66
19.11
20.06
20.69
21.17
21.56
21.68
21.25
20.01
17.91
15.12
11.98
8.89
6.15
3.84
1.86
-0.02
-2.09
-4.54
-7.43
-10.64
-13.91
-16.96
-19.58
-21.77
-23.72
-25.78
-28.33
-31.75
-36.21
-41.68
-47.66
-53.25
-57.21
-58.27
-55.53
-48.82
-38.87
-27.10
-15.18
-4.57
3.87
9.93
13.88
16.23
17.43
17.80
17.58
16.96
16.23
15.65
15.54
16.11
17.41
19.35
21.67
24.04
26.12
27.66
28.46
28.50
27.82
26.57
24.93
23.08
21.14
19.13
17.02
14.74
12.26
9.67
7.10
4.71
2.58
0.63
-1.34
-3.53
-6.09
-8.99
-12.09
-15.23
-18.27
-21.19
-24.05
-26.98
-30.14
-33.70
-37.82
-42.56
-47.79
-53.05
-57.43
-59.76
-58.87
-54.09
-45.52
-34.13
-21.48
-9.27
1.18
9.11
14.39
17.32
18.42
18.30
17.55
16.74
16.31
16.55
17.54
19.15
21.15
23.31
25.39
27.25
28.73
29.75
30.32
30.53
30.52
30.37
30.02
29.26
27.88
25.82
23.23
20.47
17.90
15.74
13.98
12.42
10.80
8.97
6.93
4.77
2.61
0.45
-1.79
-4.29
-7.16
-10.40
-13.85
-17.22
-20.29
-22.97
-25.44
-28.11
-31.51
-36.05
-41.74
-48.06
-53.89
-57.88
-58.70
-55.55
-48.40
-38.09
-26.03
-13.87
-3.02
5.66
11.91
15.93
18.17
19.14
19.28
18.92
18.37
17.91
17.84
18.38
19.60
21.42
23.61
25.89
28.01
29.81
31.25
32.29
32.86
32.85
32.17
30.83
28.99
26.92
24.87
22.97
21.17
19.33
17.28
14.94
12.35
9.71
7.22
5.06
3.23
1.61
-0.04
-2.01
-4.50
-7.51
-10.88
-14.29
-17.47
-20.27
-22.72
-25.07
-27.68
-30.94
-35.14
-40.31
-46.07
-51.51
-55.34
-56.21
-53.17
-46.12
-35.91
-24.06
-12.28
-1.92
6.25
12.12
15.93
18.03
18.74
18.35
17.20
15.77
14.59
14.08
14.52
15.87
17.91
20.23
22.46
24.33
25.74
26.75
27.48
28.00
28.24
28.03
27.19
25.70
23.72
21.54
19.44
17.54
15.80
13.99
11.96
9.69
7.31
5.05
3.00
1.12
-0.83
-3.10
-5.87
-9.10
-12.59
-16.03
-19.13
-21.73
-23.85
-25.73
-27.73
-30.28
-33.78
-38.37
-43.67
-48.80
-52.42
-53.09
-49.79
-42.34
-31.48
-18.77
-6.05
5.05
13.50
18.96
21.68
22.18
21.10
18.98
16.38
13.81
11.82
10.88
11.28
12.99
15.71
18.86
21.83
24.14
25.56
26.18
26.23
26.01
25.72
25.37
24.84
23.97
22.64
20.85
18.73
16.43
14.08
11.76
9.51
7.34
5.30
3.42
1.62
-0.21
-2.30
-4.82
-7.81
-11.08
-14.35
-17.27
-19.66
-21.61
-23.44
-25.64
-28.72
-32.97
-38.27
-43.99
-48.97
-51.79
-51.19
-46.52
-38.06
-26.95
-14.87
-3.53
5.85
12.75
17.26
19.79
20.83
20.71
19.66
17.92
15.82
13.86
12.58
12.40
13.48
15.60
18.28
20.91
22.99
24.27
24.79
24.74
24.31
23.59
22.54
21.11
19.30
17.20
14.99
12.83
10.83
9.02
7.42
5.99
4.67
3.31
1.72
-0.29
-2.80
-5.74
-8.90
-12.01
-14.86
-17.40
-19.73
-22.05
-24.66
-27.86
-31.87
-36.71
-41.99
-46.89
-50.16
-50.49
-47.00
-39.58
-29.03
-16.88
-4.89
5.50
13.43
18.73
21.68
22.73
22.37
21.01
19.07
16.97
15.15
14.02
13.90
14.88
16.82
19.33
21.84
23.86
25.06
25.44
25.23
24.75
24.16
23.44
22.35
20.64
18.31
15.61
12.99
10.84
9.29
8.10
6.86
5.15
2.87
0.21
-2.44
-4.72
-6.50
-7.97
-9.49
-11.37
-13.77
-16.64
-19.90
-23.57
-27.72
-32.31
-36.96
-40.81
-42.74
-41.71
-37.26
-29.73
-20.13
-9.88
-0.26
7.82
13.91
17.95
20.02
20.35
19.22
17.09
14.53
12.17
10.52
9.87
10.25
11.47
13.18
15.05
16.82
18.31
19.43
20.11
20.28
19.83
18.66
16.76
14.24
11.38
8.45
5.73
3.31
1.10
-1.09
-3.48
-6.17
-9.10
-12.05
-14.79
-17.16
-19.19
-21.10
-23.23
-25.99
-29.65
-34.15
-39.03
-43.30
-45.78
-45.32
-41.29
-33.82
-23.86
-12.85
-2.35
6.53
13.24
17.74
20.32
21.25
20.73
19.00
16.41
13.50
10.91
9.19
8.60
9.10
10.44
12.26
14.26
16.19
17.83
18.99
19.55
19.46
18.73
17.45
15.71
13.56
11.07
8.31
5.38
2.36
-0.74
-3.98
-7.44
-11.04
-14.59
-17.80
-20.43
-22.48
-24.22
-26.15
-28.86
-32.76
-37.95
-43.98
-49.93
-54.46
-56.20
-54.16
-48.07
-38.54
-26.93
-14.93
-4.05
4.74
11.13
15.29
17.61
18.47
18.20
17.11
15.66
14.43
13.96
14.60
16.30
18.68
21.22
23.43
25.13
26.31
27.16
27.80
28.20
28.19
27.59
26.26
24.23
21.62
18.61
15.45
12.36
9.56
7.17
5.21
3.52
1.83
-0.18
-2.75
-5.90
-9.48
-13.13
-16.53
-19.43
-21.84
-23.97
-26.27
-29.26
-33.40
-38.92
-45.66
-52.93
-59.57
-64.12
-65.19
-61.94
-54.39
-43.44
-30.68
-17.88
-6.50
2.62
9.32
13.94
17.00
19.03
20.44
21.51
22.42
23.32
24.33
25.53
26.99
28.73
30.69
32.74
34.69
36.31
37.45
38.05
38.12
37.74
36.93
35.68
33.99
31.90
29.57
27.28
25.28
23.71
22.51
21.44
20.09
18.15
15.54
12.44
9.30
6.59
4.59
3.23
2.14
0.77
-1.37
-4.44
-8.31
-12.59
-16.83
-20.66
-23.96
-26.79
-29.47
-32.49
-36.40
-41.61
-48.17
-55.55
-62.63
-67.86
-69.67
-66.96
-59.51
-48.07
-34.22
-19.99
-7.26
2.68
9.38
13.20
15.01
15.80
16.29
16.87
17.62
18.54
19.67
21.17
23.23
25.83
28.80
31.77
34.38
36.39
37.81
38.81
39.61
40.34
40.89
41.04
40.48
39.06
36.86
34.16
31.34
28.72
26.36
24.14
21.82
19.25
16.40
13.43
10.56
7.96
5.69
3.65
1.68
-0.42
-2.82
-5.56
-8.62
-11.87
-15.14
-18.25
-21.09
-23.64
-25.99
-28.37
-31.02
-34.28
-38.41
-43.50
-49.28
-54.95
-59.32
-61.00
-58.89
-52.61
-42.70
-30.50
-17.76
-6.06
3.54
10.62
15.30
18.00
19.21
19.37
18.89
18.07
17.26
16.76
16.79
17.55
19.08
21.28
23.91
26.62
29.04
30.91
32.11
32.64
32.61
32.06
31.05
29.59
27.76
25.68
23.52
21.41
19.35
17.25
14.97
12.43
9.68
6.87
4.18
1.72
-0.53
-2.71
-4.94
-7.22
-9.44
-11.40
-12.99
-14.27
-15.53
-17.19
-19.64
-23.13
-27.65
-32.96
-38.54
-43.58
-47.10
-48.05
-45.63
-39.63
-30.52
-19.48
-8.08
2.19
10.27
15.75
18.79
19.87
19.55
18.28
16.45
14.40
12.55
11.32
11.03
11.78
13.40
15.49
17.62
19.44
20.77
21.60
22.04
22.15
21.93
21.29
20.09
18.18
15.56
12.38
8.98
5.77
3.08
0.96
-0.78
-2.56
-4.80
-7.69
-11.12
-14.77
-18.19
-21.07
-23.31
-25.02
-26.51
-28.18
-30.44
-33.64
-37.95
-43.20
-48.78
-53.61
-56.36
-55.83
-51.36
-43.10
-32.06
-19.77
-7.90
2.25
9.97
15.17
18.16
19.44
19.45
18.57
17.13
15.49
14.09
13.33
13.52
14.67
16.51
18.61
20.47
21.78
22.49
22.81
23.05
23.44
23.96
24.32
24.10
22.93
20.66
17.52
13.96
10.54
7.72
5.61
4.06
2.67
1.02
-1.18
-3.99
-7.20
-10.47
-13.47
-16.01
-18.11
-20.01
-22.03
-24.49
-27.61
-31.52
-36.20
-41.37
-46.39
-50.28
-51.84
-50.04
-44.43
-35.38
-24.12
-12.30
-1.48
7.28
13.61
17.70
20.03
21.03
21.05
20.29
19.03
17.60
16.51
16.17
16.89
18.67
21.18
23.92
26.38
28.19
29.20
29.53
29.38
28.93
28.30
27.45
26.28
24.74
22.75
20.36
17.68
14.84
12.03
9.38
6.97
4.80
2.83
0.95
-0.99
-3.08
-5.40
-7.92
-10.51
-12.99
-15.27
-17.40
-19.66
-22.45
-26.16
-30.90
-36.35
-41.73
-45.92
-47.78
-46.46
-41.70
-33.88
-24.00
-13.39
-3.29
5.35
12.08
16.86
19.87
21.30
21.35
20.19
18.18
15.90
14.03
13.10
13.35
14.63
16.50
18.48
20.28
21.77
22.99
23.93
24.49
24.46
23.64
21.95
19.50
16.55
13.43
10.48
7.92
5.82
4.06
2.41
0.55
-1.73
-4.49
-7.59
-10.71
-13.55
-15.87
-17.69
-19.27
-21.11
-23.74
-27.55
-32.58
-38.33
-43.83
-47.82
-49.06
-46.74
-40.75
-31.76
-21.03
-10.06
-0.17
7.80
13.51
17.07
18.81
19.11
18.38
17.04
15.54
14.33
13.73
13.91
14.80
16.15
17.64
18.99
20.05
20.84
21.47
22.04
22.50
22.71
22.33
21.09
18.89
15.88
12.48
9.14
6.20
3.71
1.43
-1.00
-3.81
-7.06
-10.51
-13.83
-16.74
-19.11
-21.08
-22.92
-24.98
-27.61
-31.05
-35.45
-40.73
-46.46
-51.75
-55.41
-56.10
-52.88
-45.59
-35.06
-22.88
-10.89
-0.57
7.31
12.76
16.29
18.45
19.62
19.95
19.53
18.60
17.62
17.12
17.52
18.93
21.08
23.48
25.63
27.19
28.12
28.65
29.07
29.54
29.94
29.95
29.15
27.32
24.54
21.19
17.81
14.85
12.51
10.70
9.09
7.28
4.97
2.06
-1.34
-4.95
-8.40
-11.38
-13.80
-15.73
-17.49
-19.47
-22.07
-25.56
-30.06
-35.40
-41.13
-46.44
-50.26
-51.42
-49.04
-42.81
-33.28
-21.68
-9.68
1.22
10.00
16.34
20.44
22.73
23.63
23.37
22.11
20.13
17.87
15.91
14.80
14.85
16.01
17.92
20.10
22.14
23.81
25.08
26.03
26.70
27.05
26.92
26.14
24.61
22.41
19.76
17.04
14.58
12.56
10.90
9.33
7.46
5.01
1.91
-1.65
-5.31
-8.65
-11.35
-13.36
-14.82
-16.13
-17.73
-20.10
-23.59
-28.32
-34.02
-39.97
-45.00
-47.72
-46.99
-42.28
-33.95
-23.18
-11.63
-0.88
7.96
14.43
18.59
20.74
21.24
20.38
18.48
15.97
13.42
11.45
10.57
11.00
12.55
14.71
16.87
18.56
19.63
20.22
20.57
20.84
20.91
20.47
19.23
17.14
14.47
11.65
9.08
6.89
4.89
2.76
0.22
-2.79
-6.07
-9.33
-12.29
-14.78
-16.78
-18.37
-19.76
-21.29
-23.42
-26.65
-31.30
-37.22
-43.58
-49.03
-51.98
-51.21
-46.30
-37.75
-26.82
-15.10
-4.04
5.36
12.58
17.49
20.23
21.10
20.50
18.94
16.99
15.15
13.86
13.38
13.83
15.15
17.11
19.34
21.41
23.00
23.97
24.41
24.54
24.52
24.29
23.63
22.20
19.81
16.59
12.97
9.50
6.66
4.57
3.05
1.66
-0.06
-2.39
-5.35
-8.72
-12.18
-15.45
-18.41
-21.08
-23.62
-26.29
-29.40
-33.26
-38.06
-43.68
-49.55
-54.58
-57.39
-56.75
-51.96
-43.25
-31.65
-18.81
-6.35
4.42
12.83
18.70
22.24
23.84
23.91
22.95
21.46
19.98
18.94
18.70
19.44
21.14
23.58
26.34
28.96
30.96
32.06
32.23
31.65
30.62
29.46
28.30
27.09
25.63
23.66
21.03
17.79
14.21
10.67
7.53
5.00
3.00
1.29
-0.44
-2.47
-4.85
-7.50
-10.23
-12.83
-15.21
-17.40
-19.54
-21.88
-24.73
-28.39
-33.03
-38.57
-44.56
-50.09
-53.94
-54.86
-52.00
-45.20
-35.15
-23.21
-10.97
0.15
9.26
16.03
20.58
23.21
24.30
24.17
23.19
21.76
20.31
19.21
18.71
18.91
19.74
21.01
22.46
23.89
25.11
26.01
26.59
26.87
26.85
26.49
25.65
24.18
22.04
19.32
16.34
13.45
10.91
8.72
6.62
4.23
1.28
-2.20
-5.89
-9.35
-12.18
-14.31
-15.94
-17.45
-19.22
-21.57
-24.73
-28.81
-33.70
-38.94
-43.64
-46.59
-46.67
-43.16
-36.18
-26.55
-15.61
-4.73
5.02
13.05
19.22
23.65
26.57
28.25
28.93
28.92
28.56
28.26
28.43
29.43
31.41
34.34
37.95
41.84
45.54
48.63
50.81
51.99
52.37
52.36
52.53
53.32
54.94
57.19
59.66
61.94
63.87
65.61
67.46
69.64
72.16
74.78
77.15
78.93
79.77
79.23
76.63
71.13
62.05
49.40
34.19
18.27
3.46
-9.32
-20.53
-31.68
-44.20
-58.24
-72.18
-83.20
-88.69
-87.77
-81.95
-74.53
