1520265128.00
64.000000
-0.00
-0.00
-0.00
-0.00
-0.00
-0.00
-0.00
-0.00
-0.00
-0.00
0.00
0.01
0.01
-0.00
-0.03
-0.05
-0.05
0.00
0.13
0.36
0.66
1.01
1.37
1.72
2.06
2.40
2.79
3.24
3.80
4.42
5.06
5.66
6.20
6.68
7.15
7.68
8.31
9.14
10.09
11.04
11.88
12.56
13.14
13.76
14.65
15.96
17.91
20.32
22.90
25.38
27.58
29.57
31.68
34.32
37.81
42.54
48.15
54.10
59.83
64.97
69.58
74.14
79.34
85.71
93.76
103.00
112.62
121.73
129.77
136.75
143.30
150.75
157.77
166.64
177.95
191.79
206.97
220.57
228.25
225.36
208.53
176.87
132.76
80.05
23.07
-34.94
-92.44
-149.16
-205.23
-260.37
-313.74
-363.87
-409.83
-450.91
-486.50
-515.74
-537.23
-549.22
-549.96
-538.37
-514.21
-478.67
-433.88
-382.45
-327.02
-269.84
-212.63
-156.66
-102.95
-52.37
-5.90
35.58
71.43
101.35
125.50
144.38
158.69
169.15
176.37
180.75
182.57
182.07
179.51
175.23
169.65
163.18
156.15
148.81
141.30
133.69
126.02
118.33
110.69
103.16
95.80
88.68
81.83
75.25
68.95
62.95
57.25
51.86
46.78
42.03
37.59
33.45
29.61
26.07
22.81
19.83
17.11
14.67
12.48
10.54
8.83
7.35
6.07
4.97
4.05
3.27
2.62
2.09
1.65
1.30
1.01
0.79
0.62
0.49
0.39
0.31
0.27
0.24
0.23
0.23
0.24
0.26
0.29
0.32
0.36
0.40
0.44
0.49
0.53
0.57
0.63
0.68
0.73
0.79
0.86
0.93
1.01
1.10
1.20
1.31
1.44
1.58
1.74
1.92
2.12
2.33
2.57
2.84
3.14
3.46
3.81
4.20
4.62
5.08
5.57
6.09
6.66
7.27
7.92
8.61
9.35
10.12
10.94
11.80
12.70
13.66
14.68
15.75
16.88
18.06
19.27
20.48
21.61
22.58
23.31
23.66
23.51
22.77
21.36
19.25
16.44
13.04
9.11
4.88
0.51
-3.77
-7.76
-11.26
-14.16
-16.34
-17.77
-18.46
-18.45
-17.83
-16.73
-15.28
-13.62
-11.88
-10.13
-8.41
-6.73
-5.02
-3.30
-1.58
0.11
1.76
3.34
4.86
6.39
7.99
9.82
11.82
13.93
16.06
18.12
20.01
21.72
23.34
25.07
27.19
29.64
32.36
35.24
38.07
40.71
43.15
45.60
48.45
52.25
56.91
62.26
67.86
73.16
77.63
81.07
83.67
85.99
88.82
92.08
95.39
97.87
98.39
95.76
89.08
77.75
61.03
42.36
22.96
3.22
-17.16
-38.88
-62.74
-89.46
-119.42
-152.40
-186.96
-220.94
-250.75
-272.32
-282.53
-280.46
-267.87
-248.53
-226.65
-205.22
-185.60
-167.23
-148.81
-129.64
-110.29
-92.30
-77.12
-65.24
-55.82
-47.50
-38.93
-29.50
-19.59
-10.15
-1.90
5.16
11.72
18.76
26.66
35.12
43.22
49.86
54.35
56.66
57.41
57.44
57.51
57.92
58.54
59.00
58.90
58.10
56.74
55.19
53.85
52.93
52.45
52.13
51.66
50.76
49.26
47.08
44.15
40.46
36.02
31.01
25.79
20.84
16.61
13.30
10.86
8.94
7.07
4.81
1.88
-1.71
-5.65
-9.34
-12.02
-12.95
-11.73
-8.45
-3.72
1.58
6.60
10.81
14.13
16.76
18.97
20.91
22.56
23.88
24.93
25.93
27.16
28.82
30.90
33.17
35.23
36.70
37.40
37.42
37.10
36.86
36.93
37.27
37.53
37.29
36.34
34.89
33.54
32.94
33.48
35.15
37.66
40.78
44.49
48.84
53.53
57.63
59.76
58.83
54.86
49.40
45.06
44.23
47.93
55.23
63.75
71.00
75.66
77.97
79.27
80.89
83.21
85.41
85.99
83.62
77.82
69.17
58.72
47.49
35.88
23.70
10.51
-3.87
-18.99
-33.79
-46.91
-57.26
-64.40
-68.66
-70.92
-72.28
-73.67
-75.85
-79.41
-84.97
-93.07
-103.82
-116.61
-129.93
-141.55
-149.18
-151.21
-147.23
-138.11
-125.62
-111.78
-98.49
-87.16
-78.62
-73.13
-70.30
-69.14
-68.30
-66.61
-63.67
-60.20
-57.88
-58.54
-63.29
-71.84
-82.43
-92.54
-99.63
-101.85
-98.17
-88.28
-72.26
-50.70
-24.96
2.44
27.93
47.75
59.26
62.08
58.32
51.98
47.21
46.69
51.03
59.00
68.48
77.62
85.33
90.72
92.42
88.59
77.94
61.16
41.57
24.16
13.44
11.16
15.46
22.04
26.48
26.49
22.58
16.93
11.50
6.76
1.63
-5.23
-14.17
-24.12
-33.17
-39.74
-43.46
-45.04
-45.68
-46.58
-48.35
-50.81
-53.39
-55.40
-56.20
-55.36
-52.69
-48.25
-42.31
-35.31
-27.83
-20.43
-13.53
-7.33
-1.89
2.72
6.29
8.41
8.62
6.67
2.62
-3.04
-9.48
-15.70
-20.64
-23.43
-23.47
-20.72
-15.62
-9.14
-2.42
3.58
8.35
11.87
14.41
16.31
17.72
18.71
19.25
19.46
19.54
19.72
20.12
20.68
21.28
21.78
22.15
22.40
22.60
22.72
22.73
22.55
22.23
21.93
21.83
22.04
22.42
22.65
22.33
21.13
19.00
16.19
13.14
10.32
7.96
6.01
4.13
1.88
-1.11
-4.96
-9.46
-14.10
-18.17
-20.94
-21.85
-20.62
-17.43
-12.81
-7.51
-2.23
2.51
6.57
10.01
13.02
15.70
17.90
19.39
19.97
19.64
18.64
17.35
16.15
15.31
14.90
14.96
15.49
16.53
18.10
20.08
22.26
24.24
25.58
25.97
25.31
23.77
21.76
19.81
18.40
17.81
18.00
18.68
19.40
19.73
19.44
18.58
17.39
16.19
15.17
14.28
13.38
12.32
11.18
10.28
10.12
11.06
13.21
16.37
20.16
24.25
28.44
32.65
36.77
40.56
43.62
45.54
46.07
45.17
43.05
40.13
36.82
33.39
29.80
25.87
21.43
16.58
11.74
7.45
4.06
1.41
-1.11
-4.25
-8.45
-13.52
-18.83
-23.70
-27.79
-31.29
-34.63
-38.03
-41.36
-44.13
-45.85
-46.42
-46.11
-45.49
-45.12
-45.36
-46.21
-47.48
-48.72
-49.39
-48.84
-46.46
-41.87
-35.09
-26.62
-17.31
-8.07
0.32
7.45
13.22
17.74
21.22
23.92
26.12
28.13
30.19
32.45
34.89
37.39
39.88
42.36
44.94
47.69
50.63
53.60
56.31
58.42
59.55
59.22
56.82
51.67
43.31
31.95
18.60
4.97
-7.15
-16.63
-23.58
-29.33
-35.75
-44.31
-55.16
-66.97
-77.41
-84.12
-85.62
-81.78
-73.55
-62.42
-49.90
-37.18
-25.17
-14.65
-6.29
-0.51
2.75
4.02
4.18
4.00
4.02
4.37
4.98
5.72
6.39
6.75
6.40
4.95
2.20
-1.59
-5.71
-9.13
-10.94
-10.68
-8.42
-4.79
-0.66
3.04
5.55
6.44
5.67
3.59
0.82
-2.05
-4.61
-6.77
-8.73
-10.86
-13.64
-17.60
-23.15
-30.40
-38.83
-47.11
-53.31
-55.52
-52.73
-45.43
-35.65
-26.04
-18.69
-14.15
-11.13
-7.41
-1.01
8.68
20.62
32.79
43.20
50.68
54.98
56.33
54.91
50.74
43.90
34.98
25.26
16.45
10.09
6.98
7.01
9.24
12.39
15.25
16.97
17.16
15.93
13.77
11.48
9.79
9.09
9.16
9.15
7.89
4.35
-1.88
-10.14
-18.79
-25.52
-28.29
-26.11
-19.69
-11.35
-4.35
-1.64
-4.76
-13.16
-24.38
-35.01
-41.92
-43.41
-39.71
-32.88
-26.00
-22.21
-23.75
-31.45
-44.54
-60.83
-77.16
-90.04
-96.54
-95.10
-86.09
-71.89
-56.24
-43.12
-35.51
-34.57
-39.51
-48.14
-57.68
-65.51
-69.75
-69.20
-63.41
-52.55
-37.56
-20.20
-2.87
11.85
21.83
26.07
25.11
20.72
15.27
10.87
8.63
8.51
9.62
10.87
11.53
11.42
10.81
10.11
9.59
9.30
9.17
9.26
9.86
11.61
15.35
21.77
31.05
42.47
54.41
64.62
70.99
72.27
68.51
60.95
51.41
41.55
32.35
24.03
16.40
9.34
2.92
-2.67
-7.41
-11.65
-15.99
-21.05
-27.07
-33.79
-40.50
-46.37
-50.56
-52.42
-51.45
-47.31
-39.79
-29.00
-15.38
0.24
16.66
32.42
45.95
55.84
61.12
61.54
57.64
50.54
41.59
31.93
22.14
12.41
2.70
-6.84
-15.86
-23.79
-30.15
-34.62
-37.10
-37.65
-36.27
-32.92
-27.39
-19.47
-9.03
3.68
17.84
32.04
44.57
53.94
59.36
60.99
59.81
57.07
53.81
50.53
47.32
44.08
40.80
37.67
34.91
32.65
30.82
29.13
27.23
24.70
21.20
16.49
10.46
3.27
-4.68
-12.81
-20.52
-27.43
-33.54
-39.16
-44.77
-50.64
-56.62
-61.94
-65.47
-65.98
-62.60
-55.08
-43.93
-30.19
-15.29
-0.71
12.15
22.29
29.14
32.73
33.65
32.84
31.32
29.93
29.14
29.05
29.58
30.63
32.07
33.80
35.57
37.00
37.72
37.48
36.24
34.15
31.37
27.99
23.96
19.20
13.75
7.75
1.49
-4.68
-10.43
-15.38
-19.06
-20.92
-20.51
-17.70
-12.97
-7.34
-2.16
1.36
2.44
0.96
-2.64
-7.55
-12.81
-17.48
-20.68
-21.73
-20.28
-16.35
-10.43
-3.25
4.39
11.89
18.93
25.54
31.85
38.01
44.18
50.36
56.53
62.47
67.82
72.06
74.49
74.48
71.60
65.87
57.84
48.52
39.18
31.03
24.81
20.59
17.76
15.20
11.60
5.84
-2.76
-14.23
-27.94
-42.72
-57.06
-69.42
-78.45
-83.29
-83.69
-79.93
-72.85
-63.70
-53.96
-45.23
-38.79
-35.36
-34.78
-35.98
-37.37
-37.32
-34.68
-29.04
-20.73
-10.51
0.68
12.01
22.79
32.54
40.95
47.83
53.09
56.59
58.17
57.77
55.64
52.39
48.89
45.92
43.85
42.51
41.34
39.84
37.81
35.46
33.11
30.83
28.22
24.45
18.61
10.05
-1.38
-15.16
-30.03
-44.11
-55.12
-61.00
-60.48
-53.68
-42.23
-28.82
-16.37
-7.10
-1.97
-0.67
-1.99
-4.45
-6.66
-7.46
-5.94
-1.36
6.51
17.20
29.39
40.99
49.72
53.81
52.56
46.50
37.04
25.88
14.57
4.27
-4.11
-9.78
-12.02
-10.41
-5.09
3.09
12.75
22.29
30.33
35.91
38.58
38.29
35.29
30.09
23.46
16.40
10.01
5.28
2.84
2.95
5.37
9.51
14.54
19.55
23.62
25.96
25.97
23.33
18.00
10.28
0.84
-9.25
-18.64
-25.93
-30.03
-30.45
-27.50
-22.12
-15.58
-9.01
-3.03
2.24
7.09
11.98
17.22
22.92
28.98
35.13
40.96
45.94
49.38
50.66
49.20
44.72
37.22
27.03
14.84
1.68
-11.04
-21.87
-29.66
-33.99
-35.40
-35.11
-34.57
-34.79
-36.07
-38.07
-40.33
-42.75
-45.77
-50.16
-56.39
-64.15
-72.10
-78.31
-81.02
-79.42
-74.22
-67.47
-62.03
-60.56
-64.61
-74.22
-87.97
-103.52
-118.35
-130.34
-137.96
-140.39
-137.33
-128.98
-115.97
-99.40
-80.67
-61.36
-42.90
-26.36
-12.33
-0.87
8.38
16.07
22.95
29.65
36.56
43.68
50.67
57.05
62.35
66.35
69.14
70.99
72.20
72.94
73.14
72.65
71.35
69.38
67.11
65.10
63.80
63.35
63.53
63.77
63.31
61.51
58.01
53.03
47.34
42.24
39.12
38.97
42.01
47.35
53.16
57.18
57.53
53.46
45.71
36.19
27.06
19.73
14.19
9.12
2.58
-6.97
-19.89
-35.06
-50.18
-62.44
-69.18
-68.47
-59.60
-43.40
-22.27
0.09
19.61
32.99
38.62
36.89
29.55
18.77
6.29
-6.77
-19.60
-30.99
-39.14
-42.08
-38.66
-29.59
-17.72
-7.36
-2.91
-7.29
-21.06
-42.46
-68.22
-94.62
-118.30
-136.76
-148.39
-152.49
-149.37
-140.39
-127.80
-114.14
-101.46
-90.64
-81.12
-71.51
-60.18
-45.92
-28.06
-6.38
18.98
47.27
76.76
104.52
126.98
140.94
144.68
138.59
124.80
106.20
85.17
62.99
39.96
15.96
-8.86
-33.86
-58.09
-80.67
-100.98
-118.46
-132.28
-141.02
-142.80
-135.82
-119.06
-92.90
-59.30
-21.25
18.08
56.26
92.10
125.40
156.26
184.25
207.98
225.40
234.34
233.36
222.04
201.13
172.23
137.68
100.42
64.01
32.17
7.99
-7.30
-15.42
-21.24
-31.65
-52.87
-87.42
-132.12
-178.34
-214.62
-230.66
-221.00
-186.68
-134.51
-74.34
-15.85
33.87
71.25
95.83
109.13
113.61
112.19
107.88
103.69
102.15
104.63
110.62
117.34
120.19
114.06
95.33
63.45
21.47
-24.96
-69.55
-107.31
-135.55
-153.63
-162.06
-161.52
-152.68
-136.52
-114.86
-90.44
-66.47
-45.78
-30.09
-19.77
-13.98
-11.30
-10.21
-9.47
-8.33
-6.49
-3.94
-0.86
2.60
6.40
10.53
14.90
19.24
23.15
26.25
28.38
29.71
30.62
31.57
32.84
34.45
36.15
37.59
38.54
39.05
39.43
40.16
41.61
43.79
46.30
48.39
49.20
48.09
44.88
39.89
33.89
27.86
22.76
19.29
17.76
18.16
20.21
23.62
28.18
33.96
41.27
50.62
62.36
76.30
91.23
104.62
112.77
111.57
97.77
70.22
30.63
-16.60
-65.47
-110.02
-145.62
-169.86
-182.52
-185.05
-179.79
-169.23
-155.44
-139.76
-122.83
-104.84
-86.08
-67.49
-50.94
-39.21
-35.52
-42.47
-60.69
-87.79
-118.04
-143.33
-155.28
-148.02
-120.29
-76.19
-23.89
27.07
68.71
96.59
110.16
111.60
104.20
91.08
74.64
56.86
39.59
24.62
13.39
6.51
3.48
2.82
2.83
2.36
1.33
0.65
1.60
4.95
10.43
16.78
22.34
25.85
27.12
27.03
27.14
28.88
32.90
38.81
45.29
50.67
53.50
53.00
49.19
42.76
34.77
26.26
17.96
10.12
2.58
-5.04
-13.09
-21.75
-30.95
-40.44
-49.82
-58.43
-65.49
-70.08
-71.38
-68.93
-62.85
-53.86
-43.12
-31.86
-21.02
-11.09
-2.08
6.22
14.01
21.29
27.93
33.84
39.06
43.85
48.52
53.28
58.12
62.83
67.33
71.92
77.44
85.04
95.77
109.91
126.54
143.35
156.84
163.06
158.27
139.75
106.27
58.60
-0.14
-64.68
-128.28
-183.98
-226.28
-252.28
-262.07
-258.07
-243.61
-221.75
-194.79
-164.61
-133.41
-104.02
-79.42
-61.57
-50.33
-43.31
-36.76
-27.23
-13.05
5.18
25.09
43.80
59.09
69.97
76.39
78.59
76.52
69.80
58.13
42.05
23.33
4.81
-10.38
-19.76
-22.31
-18.74
-11.26
-2.96
3.05
4.29
-0.57
-11.41
-26.64
-43.37
-57.89
-66.44
-66.18
-56.16
-37.85
-14.89
7.88
25.97
36.66
39.79
37.48
32.99
29.28
27.99
29.29
32.48
36.83
42.00
47.84
53.61
57.62
57.50
51.29
38.76
22.00
4.85
-8.61
-15.72
-16.26
-12.20
-6.55
-1.97
0.14
-0.22
-2.26
-5.13
-8.40
-12.07
-16.18
-20.40
-23.91
-25.51
-24.04
-18.94
-10.53
-0.04
10.86
20.68
28.63
34.80
39.95
44.89
50.07
55.36
60.27
64.39
67.61
70.16
72.29
73.84
74.08
71.99
66.75
58.36
47.80
36.86
27.43
20.91
17.63
16.97
17.69
18.62
19.06
19.03
18.98
19.40
20.38
21.48
22.05
21.58
20.03
17.96
16.22
15.62
16.59
19.01
22.38
25.97
29.08
31.20
32.07
31.78
30.66
29.24
28.06
27.63
28.28
30.10
32.76
35.29
36.20
33.67
26.42
14.31
-1.32
-17.98
-32.90
-43.88
-49.85
-50.70
-46.88
-38.96
-27.64
-13.87
0.95
15.32
28.13
39.19
48.99
58.08
66.25
72.31
74.64
72.05
64.54
53.38
40.50
27.76
16.59
8.29
4.42
7.02
17.90
37.60
64.43
94.38
122.17
142.89
153.48
153.36
144.11
128.45
109.13
88.23
66.98
46.05
25.99
7.39
-9.12
-23.08
-34.48
-43.79
-51.79
-59.19
-66.15
-72.16
-76.15
-76.98
-74.04
-67.60
-58.80
-49.28
-40.52
-33.38
-27.92
-23.55
-19.40
-14.74
-9.34
-3.52
2.01
6.38
8.87
9.12
7.12
3.13
-2.59
-9.96
-19.20
-30.79
-45.30
-63.07
-84.01
-107.35
-131.55
-154.42
-173.21
-185.14
-187.90
-180.26
-162.25
-135.02
-100.46
-60.85
-18.80
22.66
60.04
89.76
108.85
115.80
111.08
97.11
77.59
56.70
38.51
26.65
24.08
32.37
50.89
76.11
102.00
121.55
129.04
121.88
101.38
71.96
39.45
9.32
-14.53
-30.16
-37.38
-37.44
-32.73
-26.42
-21.83
-21.57
-26.68
-36.30
-48.11
-59.16
-67.02
-70.72
-71.03
-70.16
-71.00
-75.94
-86.03
-100.55
-117.32
-133.43
-146.15
-153.56
-154.70
-149.45
-138.44
-122.85
-104.48
-85.53
-68.15
-53.95
-43.58
-36.71
-32.45
-29.78
-27.95
-26.50
-25.08
-23.38
-21.09
-18.12
-14.69
-11.30
-8.41
-6.22
-4.62
-3.35
-2.32
-1.75
-2.02
-3.42
-5.77
-8.44
-10.60
-11.65
-11.35
-9.79
-7.07
-3.14
2.12
8.57
15.53
21.82
26.31
28.46
28.70
28.24
28.39
29.92
32.67
35.87
38.61
40.42
41.37
41.85
42.23
42.68
43.17
43.69
44.31
45.13
46.18
47.30
48.29
49.06
49.80
50.87
52.61
54.99
57.55
59.53
60.40
60.09
59.20
58.63
59.12
60.85
63.27
65.34
65.84
63.78
58.68
50.65
40.45
29.40
19.24
11.81
8.54
9.82
14.68
20.91
25.73
26.86
23.43
16.34
7.81
0.54
-3.47
-3.49
-0.12
5.27
11.23
16.91
22.05
26.79
31.14
34.79
37.11
37.32
34.65
28.27
16.96
-0.86
-26.85
-61.88
-105.09
-153.24
-201.05
-242.39
-271.87
-286.24
-284.95
-269.89
-244.54
-212.96
-179.05
-146.09
-116.37
-91.04
-70.09
-52.61
-37.28
-22.97
-9.11
4.26
16.81
28.30
38.71
48.32
57.38
65.81
73.24
79.13
83.05
84.95
85.18
84.28
82.75
80.88
78.80
76.74
75.32
75.64
79.07
86.59
98.23
112.80
128.08
141.47
150.70
154.31
151.63
142.45
126.68
104.25
75.39
41.15
3.76
-33.48
-66.82
-92.82
-109.10
-114.77
-110.47
-98.18
-80.90
-62.01
-44.68
-31.17
-22.46
-18.09
-16.31
-14.57
-10.10
-0.81
13.87
32.44
51.46
66.48
73.66
71.40
60.81
45.29
29.06
15.48
6.41
2.53
3.89
10.35
21.29
35.13
49.30
60.94
67.93
69.73
67.28
62.21
55.80
48.52
40.19
30.61
20.04
9.10
-1.57
-11.74
-21.50
-30.88
-39.44
-46.25
-50.36
-51.48
-50.39
-48.59
-47.85
-49.28
-52.70
-56.71
-59.26
-58.28
-52.43
-41.50
-26.49
-9.56
6.34
18.03
22.76
18.94
6.58
-12.64
-35.75
-59.05
-78.81
-91.98
-96.85
-93.67
-84.74
-73.71
-64.06
-57.46
-53.05
-47.98
-39.37
-26.29
-10.67
3.64
13.05
16.31
15.33
14.14
16.81
25.61
40.29
58.47
76.76
91.77
100.53
100.82
91.35
72.30
45.57
14.72
-15.84
-42.06
-61.37
-73.23
-78.75
-79.86
-78.36
-75.43
-71.51
-66.70
-61.11
-55.14
-49.41
-44.64
-41.45
-40.12
-40.50
-41.90
-43.24
-43.30
-41.23
-36.87
-31.00
-24.96
-20.11
-17.06
-15.46
-14.04
-11.23
-5.67
3.32
15.59
30.32
46.06
60.96
73.06
80.66
82.91
80.17
73.94
66.38
59.54
54.81
52.59
52.50
53.61
54.83
54.98
52.99
47.99
39.70
28.61
16.01
3.67
-6.74
-14.16
-18.46
-20.29
-20.82
-21.35
-22.93
-26.16
-31.03
-36.97
-43.03
-48.21
-51.81
-53.65
-54.16
-54.26
-55.01
-57.28
-61.49
-67.42
-74.35
-81.24
-87.23
-91.86
-95.14
-97.45
-99.12
-100.06
-99.63
-96.91
-91.08
-81.96
-70.16
-57.02
-44.13
-32.87
-24.04
-17.75
-13.58
-10.73
-8.39
-5.85
-2.69
1.14
5.36
9.41
12.66
14.62
15.07
14.08
11.89
8.76
4.94
0.66
-3.85
-8.37
-12.68
-16.67
-20.24
-23.25
-25.34
-26.00
-24.78
-21.58
-16.85
-11.41
-6.17
-1.74
1.68
4.23
6.02
7.00
6.95
5.72
3.47
0.64
-2.25
-5.02
-8.00
-11.84
-17.11
-23.82
-31.18
-37.79
-42.16
-43.16
-40.41
-34.37
-26.15
-17.37
-9.82
-5.20
-4.67
-8.40
-15.37
-23.47
-30.18
-33.43
-32.33
-27.35
-19.96
-11.88
-4.39
1.96
7.18
11.49
15.13
18.30
21.37
24.93
29.60
35.75
43.24
51.43
59.43
66.39
71.86
75.86
78.71
80.89
82.77
84.60
86.37
87.94
89.03
89.34
88.66
86.98
84.49
81.55
78.57
75.76
73.18
70.61
67.70
64.22
60.12
55.57
50.96
46.59
42.56
38.71
34.69
30.23
25.21
19.81
14.22
8.62
2.99
-2.78
-8.78
-15.07
-21.62
-28.50
-35.93
-44.18
-53.37
-63.18
-72.86
-81.35
-87.72
-91.50
-92.88
-92.60
-91.62
-90.66
-89.87
-88.77
-86.57
-82.57
-76.46
-68.23
-57.84
-45.06
-29.51
-11.11
9.49
30.86
51.19
68.97
83.52
94.99
103.84
110.06
113.05
111.96
106.54
97.74
87.66
78.69
72.54
69.52
68.53
67.66
64.94
59.03
49.60
37.27
23.39
9.66
-2.22
-10.93
-15.82
-17.04
-15.46
-12.39
-9.15
-6.76
-5.71
-6.01
-7.29
-8.98
-10.42
-11.03
-10.39
-8.31
-4.92
-0.61
4.05
8.51
12.38
15.54
18.12
20.32
22.24
23.81
24.73
24.68
23.45
21.11
18.03
14.74
11.78
9.53
8.09
7.27
6.68
5.81
4.24
1.71
-1.81
-6.06
-10.57
-14.69
-17.79
-19.28
-18.84
-16.48
-12.60
-7.90
-3.24
0.65
3.38
4.95
5.77
6.28
6.83
7.45
8.00
8.29
8.25
8.01
7.75
7.60
7.54
7.44
7.13
6.56
5.83
5.12
4.61
4.27
3.93
3.27
2.06
0.23
-2.03
-4.39
-6.53
-8.29
-9.74
-11.15
-12.82
-14.89
-17.26
-19.61
-21.44
-22.24
-21.59
-19.29
-15.35
-10.10
-4.05
2.15
7.90
12.70
16.29
18.54
19.54
19.56
18.97
18.25
17.84
17.98
18.67
19.71
20.83
21.78
22.44
22.82
22.94
22.83
22.50
22.03
21.51
21.05
20.64
20.12
19.22
17.69
15.45
12.66
9.62
6.60
3.69
0.78
-2.32
-5.68
-9.12
-12.18
-14.27
-14.94
-14.05
-11.88
-9.03
-6.18
-3.83
-2.14
-0.87
0.38
1.99
4.09
6.56
9.09
11.33
13.07
14.22
14.80
14.82
14.31
13.36
12.16
11.01
10.21
9.94
10.12
10.49
10.70
10.46
9.64
8.33
6.70
4.96
3.27
1.66
0.11
-1.47
-3.22
-5.30
-7.84
-10.83
-14.01
-16.90
-18.91
-19.56
-18.60
-16.15
-12.62
-8.58
-4.53
-0.82
2.41
5.15
7.42
9.27
10.77
11.98
12.99
13.86
14.56
15.04
15.28
15.28
15.14
14.98
14.85
14.76
14.69
14.59
14.47
14.34
14.18
13.90
13.32
12.26
10.62
8.43
5.85
3.13
0.47
-2.01
-4.28
-6.39
-8.43
-10.49
-12.59
-14.68
-16.58
-17.97
-18.52
-17.93
-16.09
-13.15
-9.48
-5.58
-1.90
1.26
3.72
5.49
6.64
7.28
7.56
7.65
7.75
7.99
8.47
9.14
9.88
10.52
10.90
10.92
10.64
10.19
9.77
9.55
9.56
9.68
9.70
9.34
8.46
7.05
5.24
3.33
1.58
0.16
-0.92
-1.78
-2.66
-3.78
-5.24
-7.05
-9.06
-11.05
-12.79
-13.96
-14.29
-13.53
-11.62
-8.73
-5.28
-1.82
1.14
3.31
4.67
5.43
5.82
6.05
6.23
6.36
6.43
6.48
6.60
6.85
7.18
7.46
7.52
7.23
6.63
5.84
5.05
4.37
3.75
3.05
2.15
1.00
-0.34
-1.72
-2.97
-4.03
-4.91
-5.68
-6.46
-7.37
-8.49
-9.94
-11.72
-13.71
-15.67
-17.27
-18.18
-18.19
-17.26
-15.50
-13.10
-10.33
-7.52
-4.98
-2.95
-1.53
-0.67
-0.19
0.12
0.41
0.74
1.07
1.37
1.62
1.88
2.16
2.42
2.57
2.49
2.18
1.81
1.54
1.54
1.75
1.99
2.00
1.63
0.93
0.13
-0.50
-0.86
-1.06
-1.38
-2.07
-3.26
-4.86
-6.68
-8.49
-10.12
-11.44
-12.32
-12.59
-12.10
-10.81
-8.79
-6.29
-3.67
-1.22
0.79
2.30
3.32
3.92
4.19
4.14
3.80
3.27
2.73
2.37
2.37
2.73
3.29
3.77
3.95
3.79
3.41
3.02
2.71
2.48
2.18
1.67
0.88
-0.13
-1.26
-2.43
-3.59
-4.78
-6.01
-7.34
-8.82
-10.48
-12.33
-14.24
-15.95
-17.10
-17.35
-16.48
-14.50
-11.68
-8.42
-5.17
-2.30
0.02
1.71
2.82
3.44
3.64
3.54
3.20
2.73
2.20
1.71
1.32
1.08
1.01
1.07
1.15
1.17
1.12
1.08
1.16
1.47
2.03
2.67
3.16
3.22
2.72
1.66
0.22
-1.37
-2.90
-4.28
-5.52
-6.73
-8.03
-9.49
-11.05
-12.51
-13.59
-13.98
-13.47
-12.02
-9.79
-7.10
-4.35
-1.85
0.24
1.92
3.34
4.63
5.85
6.94
7.78
8.27
8.40
8.27
8.00
7.67
7.32
7.00
6.75
6.61
6.60
6.66
6.68
6.56
6.24
5.73
5.06
4.24
3.18
1.81
0.13
-1.79
-3.74
-5.49
-6.92
-8.02
-8.96
-10.02
-11.45
-13.38
-15.69
-17.98
-19.61
-20.01
-18.89
-16.41
-13.07
-9.61
-6.57
-4.13
-2.17
-0.36
1.49
3.43
5.28
6.84
7.95
8.65
9.03
9.21
9.30
9.28
9.14
8.85
8.46
8.06
7.78
7.64
7.55
7.34
6.79
5.80
4.43
2.91
1.51
0.44
-0.26
-0.70
-1.07
-1.55
-2.24
-3.19
-4.39
-5.82
-7.42
-9.20
-11.15
-13.30
-15.65
-18.06
-20.30
-21.93
-22.57
-21.94
-20.09
-17.30
-14.04
-10.73
-7.65
-4.91
-2.51
-0.46
1.21
2.50
3.51
4.44
5.51
6.80
8.19
9.38
10.08
10.24
10.06
9.92
10.11
10.72
11.53
12.21
12.46
12.17
11.39
10.28
9.02
7.71
6.46
5.32
4.37
3.57
2.84
2.01
0.91
-0.57
-2.44
-4.64
-7.02
-9.39
-11.56
-13.44
-15.08
-16.69
-18.54
-20.79
-23.34
-25.82
-27.63
-28.23
-27.31
-24.88
-21.30
-17.06
-12.64
-8.46
-4.74
-1.59
0.99
3.06
4.71
6.06
7.18
8.14
8.98
9.71
10.35
10.92
11.41
11.84
12.20
12.46
12.62
12.66
12.60
12.46
12.27
12.03
11.70
11.22
10.52
9.56
8.37
7.02
5.62
4.24
2.87
1.42
-0.23
-2.14
-4.31
-6.64
-8.94
-11.08
-12.98
-14.78
-16.73
-19.09
-21.98
-25.23
-28.35
-30.68
-31.59
-30.72
-28.15
-24.34
-19.98
-15.70
-11.94
-8.83
-6.30
-4.21
-2.44
-0.98
0.18
1.04
1.66
2.16
2.65
3.22
3.90
4.66
5.46
6.21
6.86
7.38
7.81
8.21
8.61
9.02
9.33
9.44
9.25
8.77
8.14
7.48
6.93
6.42
5.80
4.86
3.46
1.62
-0.49
-2.67
-4.76
-6.69
-8.50
-10.29
-12.19
-14.34
-16.83
-19.68
-22.73
-25.60
-27.72
-28.55
-27.73
-25.23
-21.38
-16.77
-12.01
-7.59
-3.77
-0.59
2.00
4.11
5.80
7.09
7.93
8.28
8.19
7.81
7.46
7.44
8.01
9.17
10.70
12.18
13.19
13.49
13.08
12.21
11.22
10.34
9.63
8.93
7.99
6.62
4.81
2.72
0.58
-1.44
-3.27
-4.99
-6.73
-8.54
-10.41
-12.29
-14.17
-16.07
-18.03
-19.96
-21.59
-22.48
-22.13
-20.20
-16.73
-12.11
-7.04
-2.28
1.62
4.42
6.24
7.32
7.96
8.30
8.40
8.27
8.07
8.05
8.48
9.48
10.92
12.46
13.67
14.22
14.05
13.37
12.47
11.67
11.11
10.74
10.44
10.02
9.34
8.29
6.86
5.10
3.12
1.04
-1.06
-3.18
-5.41
-7.87
-10.65
-13.71
-16.85
-19.72
-21.87
-22.85
-22.34
-20.22
-16.62
-11.99
-6.89
-1.94
2.38
5.78
8.20
9.73
10.50
10.67
10.37
9.74
8.98
8.34
8.07
8.36
9.21
10.43
11.64
12.52
12.88
12.85
12.70
12.77
13.16
13.71
14.02
13.70
12.55
10.67
8.35
5.91
3.61
1.50
-0.51
-2.55
-4.79
-7.37
-10.41
-13.92
-17.72
-21.40
-24.32
-25.81
-25.40
-22.98
-18.91
-13.85
-8.57
-3.74
0.30
3.47
5.93
7.87
9.44
10.64
11.47
11.91
12.08
12.18
12.43
12.95
13.68
14.47
15.12
15.55
15.80
16.00
16.19
16.31
16.13
15.43
14.09
12.12
9.72
7.11
4.49
2.01
-0.22
-2.17
-3.90
-5.56
-7.45
-9.84
-12.91
-16.61
-20.61
-24.30
-26.98
-28.02
-27.05
-24.11
-19.65
-14.40
-9.10
-4.34
-0.36
2.85
5.47
7.72
9.74
11.63
13.42
15.09
16.58
17.74
18.43
18.62
18.43
18.11
17.89
17.86
17.89
17.77
17.34
16.65
15.83
15.04
14.27
13.32
11.95
10.03
7.59
4.87
2.14
-0.42
-2.75
-4.90
-6.98
-9.15
-11.56
-14.34
-17.54
-21.01
-24.41
-27.18
-28.77
-28.74
-26.93
-23.49
-18.84
-13.48
-7.90
-2.52
2.41
6.72
10.34
13.27
15.54
17.24
18.49
19.45
20.27
21.05
21.80
22.51
23.09
23.48
23.63
23.54
23.25
22.81
22.22
21.41
20.26
18.61
16.38
13.56
10.33
6.88
3.42
0.13
-2.91
-5.67
-8.13
-10.31
-12.22
-13.91
-15.53
-17.25
-19.27
-21.70
-24.58
-27.78
-31.01
-33.87
-35.87
-36.55
-35.61
-32.90
-28.57
-22.96
-16.60
-10.11
-4.04
1.14
5.21
8.22
10.40
12.10
13.61
15.05
16.40
17.49
18.21
18.51
18.49
18.26
17.95
17.62
17.29
17.04
16.97
17.17
17.63
18.18
18.54
18.40
17.63
16.35
14.80
13.30
11.98
10.83
9.66
8.26
6.51
4.39
2.00
-0.57
-3.28
-6.12
-9.11
-12.28
-15.65
-19.26
-23.13
-27.21
-31.24
-34.72
-36.96
-37.26
-35.24
-30.97
-25.05
-18.39
-11.91
-6.22
-1.57
2.11
5.07
7.50
9.57
11.36
13.00
14.57
16.12
17.65
19.04
20.19
20.98
21.39
21.44
21.25
20.93
20.65
20.43
20.18
19.74
18.88
17.51
15.72
13.77
11.92
10.31
8.89
7.47
5.84
3.88
1.57
-0.99
-3.72
-6.50
-9.17
-11.58
-13.63
-15.30
-16.82
-18.52
-20.74
-23.63
-27.01
-30.29
-32.71
-33.54
-32.34
-29.10
-24.28
-18.59
-12.81
-7.56
-3.22
0.16
2.71
4.71
6.39
7.95
9.48
10.98
12.40
13.64
14.61
15.28
15.70
15.93
16.07
16.23
16.42
16.65
16.83
16.95
16.93
16.72
16.23
15.31
13.85
11.89
9.64
7.43
5.53
4.00
2.62
1.04
-1.03
-3.65
-6.59
-9.44
-11.85
-13.69
-15.11
-16.47
-18.17
-20.52
-23.56
-27.04
-30.47
-33.18
-34.53
-34.14
-31.97
-28.31
-23.71
-18.76
-13.96
-9.61
-5.86
-2.68
-0.03
2.15
3.90
5.26
6.28
7.00
7.45
7.68
7.71
7.62
7.48
7.44
7.61
8.04
8.66
9.29
9.70
9.72
9.31
8.60
7.77
6.90
5.95
4.76
3.21
1.32
-0.74
-2.70
-4.36
-5.68
-6.79
-7.88
-9.14
-10.66
-12.45
-14.51
-16.75
-19.06
-21.14
-22.53
-22.65
-21.07
-17.69
-12.88
-7.39
-2.08
2.36
5.60
7.73
9.09
10.05
10.82
11.41
11.70
11.61
11.18
10.62
10.18
10.07
10.33
10.85
11.46
12.01
12.38
12.52
12.39
11.93
11.09
9.83
8.17
6.22
4.10
1.96
-0.06
-1.86
-3.44
-4.85
-6.29
-7.99
-10.17
-12.91
-16.03
-19.15
-21.71
-23.18
-23.18
-21.59
-18.63
-14.72
-10.41
-6.20
-2.47
0.62
3.05
4.87
6.10
6.74
6.81
6.46
5.93
5.55
5.50
5.82
6.33
6.80
7.03
7.03
6.94
6.97
7.20
7.59
7.98
8.11
7.82
7.01
5.68
3.89
1.80
-0.38
-2.39
-4.07
-5.43
-6.67
-8.14
-10.16
-12.85
-16.04
-19.24
-21.87
-23.37
-23.39
-21.85
-18.93
-15.01
-10.59
-6.16
-2.13
1.20
3.74
5.54
6.81
7.74
8.46
9.04
9.46
9.74
9.93
10.16
10.53
11.09
11.73
12.30
12.66
12.82
12.88
12.99
13.21
13.40
13.28
12.55
11.05
8.85
6.22
3.55
1.17
-0.75
-2.28
-3.64
-5.13
-7.04
-9.49
-12.39
-15.36
-17.91
-19.52
-19.77
-18.53
-15.92
-12.30
-8.20
-4.18
-0.68
2.05
4.02
5.46
6.70
7.96
9.30
10.57
11.51
11.94
11.82
11.35
10.80
10.46
10.51
10.93
11.60
12.32
12.95
13.35
13.43
13.05
12.12
10.54
8.34
5.69
2.87
0.31
-1.72
-3.10
-3.97
-4.66
-5.58
-7.07
-9.28
-12.19
-15.53
-18.96
-21.98
-24.06
-24.69
-23.58
-20.73
-16.57
-11.80
-7.24
-3.50
-0.85
0.89
2.17
3.50
5.18
7.24
9.44
11.47
13.04
13.98
14.30
14.14
13.71
13.21
12.81
12.53
12.34
12.13
11.83
11.47
11.07
10.70
10.33
9.84
9.07
7.90
6.34
4.52
2.65
0.79
-1.05
-2.95
-4.99
-7.12
-9.24
-11.30
-13.37
-15.62
-18.19
-20.96
-23.53
-25.26
-25.55
-24.08
-20.97
-16.72
-12.03
-7.55
-3.73
-0.75
1.44
3.06
4.34
5.50
6.66
7.86
9.03
10.06
10.85
11.32
11.49
11.40
11.18
10.97
10.94
11.20
11.75
12.43
12.98
13.13
12.70
11.71
10.33
8.78
7.20
5.55
3.78
1.79
-0.37
-2.54
-4.55
-6.33
-7.97
-9.69
-11.75
-14.35
-17.57
-21.36
-25.63
-30.24
-34.95
-39.46
-43.39
-46.34
-47.98
-48.16
-46.96
-44.68
-41.81
-38.87
-36.31
-34.41
-33.30
-32.97
-33.42
-34.66
-36.64
-39.06
-41.31
-42.42
-41.44
-37.73
-31.36
-23.20
-14.62
-7.05
-1.48
1.78
3.02
2.82
1.67
-0.10
-2.30
-4.68
-6.81
-8.15
-8.21
-6.82
-4.25
-1.15
1.66
3.45
3.84
2.88
1.01
-1.07
-2.74
-3.59
-3.60
-3.05
-2.40
-2.08
-2.30
-3.00
-3.84
-4.35
-3.97
-2.29
0.82
5.13
10.09
15.03
19.39
22.93
25.82
28.49
31.39
34.74
38.46
42.19
45.52
48.14
50.02
51.32
52.35
53.35
54.34
55.09
55.22
54.39
52.51
49.84
46.93
44.39
42.67
41.84
