1520265520.00
64.000000
-0.00
-0.00
-0.00
-0.00
-0.00
-0.00
-0.00
-0.00
-0.00
-0.00
0.00
0.01
0.01
-0.00
-0.03
-0.05
-0.05
0.00
0.13
0.36
0.66
1.01
1.37
1.72
2.06
2.40
2.79
3.24
3.80
4.42
5.06
5.66
6.20
6.68
7.15
7.68
8.31
9.14
10.09
11.04
11.88
12.56
13.14
13.76
14.65
15.96
17.91
20.32
22.90
25.38
27.58
29.57
31.68
34.32
37.81
42.54
48.15
54.10
59.83
64.97
69.58
74.14
79.34
85.71
93.76
103.00
112.62
121.73
129.77
136.75
143.30
150.75
157.77
166.64
177.95
191.79
206.97
220.57
228.25
225.36
208.53
176.87
132.76
80.05
23.07
-34.94
-92.44
-149.16
-205.23
-260.37
-313.74
-363.87
-409.83
-450.91
-486.50
-515.74
-537.23
-549.22
-549.96
-538.37
-514.21
-478.67
-433.88
-382.45
-327.02
-269.84
-212.63
-156.66
-102.95
-52.37
-5.90
35.58
71.43
101.35
125.50
144.38
158.69
169.15
176.37
180.75
182.57
182.07
179.51
175.23
169.65
163.18
156.15
148.81
141.30
133.69
126.02
118.33
110.69
103.16
95.80
88.68
81.83
75.25
68.95
62.95
57.25
51.86
46.78
42.03
37.59
33.45
29.61
26.07
22.81
19.83
17.11
14.67
12.48
10.54
8.83
7.35
6.07
4.97
4.05
3.27
2.62
2.09
1.65
1.30
1.01
0.79
0.61
0.47
0.37
0.29
0.23
0.19
0.16
0.15
0.14
0.15
0.17
0.19
0.22
0.25
0.29
0.33
0.37
0.41
0.46
0.51
0.55
0.60
0.66
0.72
0.78
0.84
0.92
0.99
1.08
1.18
1.29
1.41
1.55
1.70
1.87
2.06
2.27
2.51
2.77
3.05
3.37
3.71
4.09
4.50
4.95
5.44
5.96
6.52
7.13
7.77
8.46
9.19
9.97
10.80
11.67
12.58
13.55
14.57
15.65
16.80
18.01
19.26
20.55
21.81
22.98
23.97
24.66
24.94
24.67
23.79
22.19
19.88
16.88
13.25
9.15
4.76
0.27
-4.10
-8.14
-11.68
-14.60
-16.80
-18.25
-18.96
-19.00
-18.49
-17.56
-16.34
-14.97
-13.53
-12.05
-10.54
-8.95
-7.28
-5.56
-3.83
-2.11
-0.45
1.16
2.78
4.50
6.44
8.55
10.78
13.05
15.29
17.41
19.42
21.42
23.63
26.33
29.41
32.74
36.11
39.28
42.03
44.35
46.43
48.73
51.78
55.50
59.65
63.81
67.40
69.94
71.30
71.78
72.06
73.00
74.54
76.28
77.36
76.59
72.79
65.08
52.88
35.42
16.48
-2.61
-21.36
-40.04
-59.38
-80.39
-104.13
-131.37
-161.99
-194.29
-225.41
-250.86
-265.88
-267.24
-254.59
-230.73
-200.50
-168.94
-139.52
-114.02
-92.25
-73.30
-56.54
-41.96
-29.86
-20.24
-12.45
-5.34
1.83
9.38
17.01
23.83
29.04
32.25
33.72
34.23
34.74
35.75
37.33
39.05
40.23
40.33
39.07
36.61
33.39
30.02
26.92
24.38
22.43
20.83
19.21
17.08
14.02
9.80
4.55
-1.23
-6.67
-10.80
-12.82
-12.35
-9.62
-5.34
-0.48
4.14
7.99
11.00
13.35
15.33
17.13
18.78
20.29
21.66
22.92
24.11
25.16
25.89
26.10
25.70
24.79
23.64
22.60
21.85
21.36
20.97
20.47
19.76
18.87
17.85
16.69
15.25
13.34
10.89
8.01
4.99
2.15
-0.25
-2.15
-3.63
-4.88
-6.06
-7.32
-8.75
-10.53
-12.85
-15.89
-19.62
-23.69
-27.36
-29.68
-29.78
-27.24
-22.35
-15.98
-9.31
-3.37
1.28
4.70
7.32
9.67
12.01
14.36
16.52
18.30
19.69
20.79
21.72
22.50
22.98
22.98
22.40
21.39
20.27
19.35
18.81
18.55
18.29
17.69
16.60
15.08
13.30
11.50
9.77
8.14
6.52
4.84
3.11
1.33
-0.46
-2.25
-4.02
-5.76
-7.39
-8.90
-10.28
-11.68
-13.33
-15.48
-18.24
-21.44
-24.56
-26.84
-27.56
-26.27
-23.00
-18.24
-12.82
-7.53
-2.94
0.71
3.46
5.56
7.31
9.00
10.79
12.71
14.64
16.31
17.49
18.05
18.07
17.71
17.23
16.76
16.40
16.13
15.96
15.86
15.74
15.44
14.76
13.56
11.83
9.80
7.80
6.14
4.95
4.17
3.51
2.65
1.35
-0.48
-2.73
-5.19
-7.60
-9.78
-11.69
-13.41
-15.17
-17.28
-19.99
-23.33
-27.09
-30.70
-33.43
-34.50
-33.47
-30.30
-25.46
-19.73
-13.95
-8.76
-4.46
-1.00
1.82
4.30
6.63
8.89
11.11
13.29
15.32
17.06
18.32
18.92
18.77
17.96
16.71
15.34
14.12
13.18
12.59
12.29
12.25
12.41
12.64
12.76
12.56
11.91
10.80
9.39
7.89
6.43
5.00
3.48
1.74
-0.22
-2.24
-4.15
-5.83
-7.36
-8.94
-10.86
-13.30
-16.36
-19.95
-23.89
-27.83
-31.31
-33.75
-34.63
-33.65
-30.91
-26.84
-22.15
-17.53
-13.43
-10.09
-7.44
-5.31
-3.50
-1.83
-0.24
1.30
2.73
4.01
5.09
5.99
6.79
7.60
8.49
9.48
10.54
11.59
12.61
13.55
14.40
15.10
15.50
15.47
14.88
13.76
12.27
10.61
8.97
7.39
5.75
3.86
1.64
-0.85
-3.33
-5.53
-7.31
-8.76
-10.22
-12.10
-14.67
-17.97
-21.78
-25.73
-29.30
-31.93
-33.08
-32.34
-29.54
-24.95
-19.24
-13.35
-8.18
-4.32
-1.81
-0.24
1.03
2.56
4.58
6.89
9.00
10.28
10.29
8.80
5.87
1.67
-3.54
-9.43
-15.54
-21.26
-25.86
-28.85
-30.14
-30.22
-30.02
-30.55
-32.48
-35.88
-40.29
-44.91
-48.92
-51.67
-52.73
-51.91
-49.19
-44.81
-39.17
-32.86
-26.60
-21.13
-17.11
-14.98
-14.80
-16.11
-18.02
-19.36
-19.12
-16.72
-12.28
-6.48
-0.35
5.19
9.58
12.78
15.18
17.29
19.58
22.21
25.11
28.08
30.88
33.40
35.50
36.92
37.26
36.08
33.18
28.89
24.06
19.74
16.74
15.20
14.53
13.74
11.94
8.83
4.83
0.75
-2.59
-4.76
-5.83
-6.12
-5.89
-5.09
-3.41
-0.60
3.14
7.01
9.78
10.35
8.20
3.68
-2.07
-7.54
-11.32
-12.46
-10.61
-6.11
0.22
7.18
13.51
18.14
20.44
20.33
18.19
14.69
10.63
6.85
4.16
3.20
4.35
7.53
12.26
17.72
23.09
27.83
31.77
35.05
37.85
40.26
42.12
43.18
43.24
42.27
40.47
38.16
35.73
33.41
31.31
29.31
27.18
24.65
21.48
17.59
13.06
8.08
2.85
-2.46
-7.84
-13.35
-19.04
-24.84
-30.46
-35.51
-39.53
-42.13
-43.14
-42.57
-40.61
-37.51
-33.57
-29.05
-24.31
-19.76
-15.80
-12.86
-11.17
-10.68
-11.00
-11.41
-11.08
-9.20
-5.27
0.77
8.42
16.57
23.67
28.05
28.41
24.39
16.80
7.52
-1.16
-7.31
-10.04
-9.70
-7.51
-4.93
-3.02
-2.13
-2.02
-2.21
-2.37
-2.47
-2.69
-3.22
-4.15
-5.48
-7.17
-9.33
-12.19
-16.02
-20.90
-26.49
-31.96
-36.16
-37.96
-36.64
-32.21
-25.40
-17.38
-9.42
-2.45
3.09
7.27
10.43
13.02
15.33
17.53
19.62
21.61
23.55
25.53
27.68
30.04
32.55
35.05
37.35
39.32
41.01
42.60
44.32
46.31
48.54
50.79
52.66
53.65
53.28
51.22
47.40
42.08
35.75
29.01
22.31
15.78
9.26
2.44
-4.85
-12.49
-20.03
-26.82
-32.23
-35.76
-37.21
-36.65
-34.34
-30.81
-26.70
-22.75
-19.61
-17.75
-17.43
-18.64
-21.23
-24.87
-29.10
-33.26
-36.52
-38.07
-37.35
-34.33
-29.60
-24.12
-18.92
-14.67
-11.50
-9.10
-7.01
-5.00
-3.16
-1.85
-1.44
-2.01
-3.29
-4.70
-5.62
-5.62
-4.62
-2.95
-1.16
0.13
0.49
-0.19
-1.64
-3.33
-4.71
-5.35
-5.01
-3.59
-1.03
2.69
7.49
13.12
19.01
24.44
28.70
31.41
32.60
32.75
32.49
32.38
32.75
33.63
34.86
36.18
37.27
37.81
37.55
36.43
34.72
32.99
32.02
32.45
34.47
37.66
41.14
43.84
44.99
44.30
42.00
38.67
34.94
31.34
28.15
25.45
23.14
20.93
18.38
15.00
10.48
4.93
-0.94
-5.93
-8.74
-8.42
-4.81
1.45
9.13
16.84
23.42
28.12
30.60
30.81
29.01
25.75
21.86
18.19
15.40
13.65
12.68
12.08
11.58
11.34
11.68
12.89
14.88
17.23
19.35
20.76
21.26
20.87
19.67
17.73
15.09
11.83
8.09
4.00
-0.37
-5.08
-10.22
-15.77
-21.55
-27.17
-32.11
-35.82
-37.81
-37.79
-35.71
-31.96
-27.22
-22.39
-18.27
-15.30
-13.42
-12.20
-11.16
-9.90
-8.47
-7.10
-6.16
-5.84
-6.10
-6.64
-7.06
-7.05
-6.49
-5.48
-4.30
-3.33
-2.87
-3.06
-3.81
-4.88
-5.96
-6.79
-7.31
-7.62
-7.98
-8.67
-9.91
-11.82
-14.44
-17.78
-21.72
-26.01
-30.17
-33.53
-35.39
-35.26
-33.04
-29.12
-24.27
-19.31
-14.94
-11.50
-8.92
-6.95
-5.25
-3.61
-1.99
-0.46
0.88
1.98
2.85
3.54
4.05
4.33
4.32
4.02
3.55
3.16
3.11
3.52
4.28
5.07
5.49
5.29
4.46
3.24
1.99
0.91
0.02
-0.95
-2.35
-4.60
-7.85
-12.04
-16.73
-21.22
-24.71
-26.50
-26.25
-24.01
-20.19
-15.40
-10.21
-5.09
-0.37
3.77
7.24
10.03
12.22
13.97
15.43
16.71
17.82
18.74
19.45
19.99
20.39
20.70
20.90
20.98
20.93
20.79
20.60
20.38
20.03
19.36
18.20
16.41
14.04
11.28
8.45
5.88
3.80
2.24
1.04
-0.08
-1.51
-3.56
-6.41
-9.93
-13.67
-16.84
-18.62
-18.41
-16.13
-12.33
-7.90
-3.78
-0.54
1.75
3.40
4.88
6.46
8.10
9.57
10.60
11.09
11.14
10.97
10.83
10.86
11.02
11.23
11.37
11.42
11.39
11.32
11.21
10.96
10.44
9.50
8.15
6.56
4.99
3.64
2.58
1.68
0.72
-0.42
-1.77
-3.20
-4.60
-5.90
-7.22
-8.75
-10.66
-12.96
-15.46
-17.78
-19.48
-20.14
-19.51
-17.59
-14.64
-11.10
-7.49
-4.28
-1.72
0.14
1.46
2.47
3.40
4.40
5.48
6.57
7.57
8.39
9.00
9.40
9.64
9.72
9.65
9.40
8.98
8.45
7.97
7.67
7.61
7.73
7.81
7.64
7.09
6.12
4.81
3.31
1.69
0.01
-1.70
-3.36
-4.86
-6.08
-6.97
-7.57
-8.04
-8.61
-9.53
-10.93
-12.82
-14.97
-16.99
-18.40
-18.73
-17.76
-15.61
-12.66
-9.46
-6.47
-3.95
-1.93
-0.31
1.03
2.12
3.02
3.75
4.39
5.00
5.54
5.90
5.87
5.35
4.41
3.29
2.29
1.62
1.35
1.35
1.46
1.53
1.50
1.39
1.22
0.99
0.65
0.19
-0.42
-1.17
-2.08
-3.19
-4.49
-5.92
-7.34
-8.57
-9.50
-10.14
-10.63
-11.14
-11.83
-12.74
-13.80
-14.79
-15.52
-15.73
-15.23
-13.90
-11.74
-8.95
-5.86
-2.93
-0.53
1.11
1.96
2.15
1.89
1.41
0.94
0.65
0.65
0.99
1.57
2.17
2.60
2.70
2.46
1.96
1.39
0.88
0.54
0.43
0.55
0.84
1.15
1.32
1.14
0.48
-0.64
-2.06
-3.56
-4.93
-6.02
-6.85
-7.49
-8.05
-8.62
-9.24
-9.98
-10.88
-11.91
-12.94
-13.66
-13.64
-12.55
-10.30
-7.17
-3.71
-0.53
1.91
3.48
4.30
4.59
4.52
4.14
3.46
2.60
1.78
1.22
1.07
1.30
1.71
2.05
2.14
1.93
1.47
0.86
0.22
-0.36
-0.77
-0.93
-0.80
-0.45
-0.08
0.07
-0.21
-0.98
-2.19
-3.66
-5.20
-6.70
-8.04
-9.22
-10.23
-11.12
-11.98
-12.85
-13.70
-14.34
-14.49
-13.86
-12.29
-9.86
-6.94
-4.03
-1.56
0.21
1.29
1.91
2.32
2.69
3.08
3.41
3.61
3.64
3.56
3.42
3.27
3.03
2.64
2.07
1.39
0.80
0.44
0.34
0.37
0.31
-0.05
-0.79
-1.81
-2.92
-3.94
-4.75
-5.37
-5.86
-6.34
-6.87
-7.51
-8.32
-9.33
-10.57
-12.04
-13.70
-15.45
-17.11
-18.37
-18.94
-18.60
-17.30
-15.17
-12.54
-9.78
-7.17
-4.84
-2.78
-0.90
0.83
2.31
3.38
3.88
3.80
3.32
2.73
2.36
2.41
2.93
3.78
4.76
5.66
6.34
6.71
6.71
6.38
5.81
5.18
4.65
4.32
4.14
3.93
3.42
2.43
0.91
-0.97
-2.94
-4.73
-6.20
-7.41
-8.55
-9.93
-11.88
-14.54
-17.86
-21.47
-24.77
-27.11
-27.97
-27.13
-24.76
-21.29
-17.27
-13.13
-9.19
-5.59
-2.45
0.12
2.03
3.24
3.87
4.18
4.44
4.89
5.63
6.62
7.73
8.82
9.81
10.58
11.06
11.14
10.78
10.06
9.18
8.38
7.87
7.69
7.69
7.62
7.20
6.25
4.77
2.89
0.82
-1.19
-2.96
-4.43
-5.66
-6.82
-8.17
-9.97
-12.44
-15.63
-19.34
-23.12
-26.32
-28.22
-28.33
-26.55
-23.22
-18.97
-14.51
-10.36
-6.73
-3.59
-0.84
1.64
3.87
5.88
7.73
9.48
11.12
12.58
13.71
14.43
14.74
14.80
14.84
15.03
15.44
16.00
16.59
17.05
17.28
17.17
16.68
15.78
14.55
13.15
11.71
10.30
8.83
7.16
5.18
2.91
0.53
-1.74
-3.76
-5.60
-7.49
-9.73
-12.54
-15.96
-19.80
-23.65
-26.99
-29.21
-29.83
-28.57
-25.48
-20.94
-15.56
-10.01
-4.83
-0.33
3.39
6.36
8.69
10.47
11.88
13.09
14.26
15.49
16.71
17.77
18.50
18.85
18.91
18.86
18.92
19.22
19.74
20.31
20.70
20.71
20.26
19.35
18.10
16.63
15.04
13.34
11.48
9.39
7.01
4.40
1.70
-0.90
-3.28
-5.38
-7.31
-9.26
-11.53
-14.33
-17.76
-21.66
-25.58
-28.84
-30.72
-30.64
-28.41
-24.28
-18.90
-13.04
-7.40
-2.47
1.60
4.85
7.42
9.49
11.22
12.72
14.07
15.29
16.38
17.30
18.05
18.65
19.11
19.48
19.75
19.89
19.86
19.62
19.18
18.55
17.76
16.79
15.66
14.36
12.94
11.45
9.94
8.40
6.78
5.02
3.05
0.91
-1.33
-3.52
-5.57
-7.48
-9.42
-11.70
-14.61
-18.25
-22.42
-26.56
-29.89
-31.64
-31.34
-28.92
-24.77
-19.52
-13.86
-8.35
-3.35
0.91
4.35
7.00
8.99
10.50
11.78
12.98
14.16
15.25
16.17
16.89
17.46
18.02
18.64
19.27
19.75
19.87
19.49
18.66
17.55
16.40
15.38
14.49
13.59
12.50
11.08
9.30
7.25
5.11
3.03
1.10
-0.72
-2.50
-4.35
-6.31
-8.39
-10.64
-13.21
-16.28
-19.92
-23.88
-27.50
-29.84
-30.04
-27.71
-23.15
-17.25
-11.11
-5.66
-1.35
1.86
4.23
6.03
7.43
8.52
9.34
9.99
10.64
11.43
12.39
13.42
14.37
15.06
15.41
15.46
15.37
15.35
15.55
15.93
16.28
16.32
15.80
14.75
13.34
11.82
10.33
8.84
7.18
5.20
2.98
0.74
-1.17
-2.57
-3.50
-4.27
-5.35
-7.08
-9.62
-12.84
-16.33
-19.56
-21.94
-23.00
-22.49
-20.41
-17.09
-12.97
-8.62
-4.50
-0.96
1.91
4.15
5.92
7.37
8.59
9.53
10.13
10.35
10.29
10.12
10.08
10.29
10.72
11.20
11.51
11.53
11.26
10.83
10.39
9.97
9.56
9.07
8.39
7.51
6.44
5.21
3.90
2.58
1.32
0.15
-0.97
-2.16
-3.61
-5.50
-7.92
-10.80
-13.89
-16.82
-19.10
-20.25
-19.93
-18.02
-14.72
-10.47
-5.90
-1.58
2.06
4.86
6.84
8.13
8.89
9.24
9.31
9.31
9.43
9.84
10.57
11.48
12.27
12.70
12.65
12.19
11.55
10.97
10.57
10.29
9.97
9.49
8.76
7.80
6.61
5.22
3.62
1.90
0.21
-1.28
-2.48
-3.44
-4.32
-5.29
-6.50
-7.96
-9.67
-11.67
-14.02
-16.70
-19.47
-21.87
-23.27
-23.17
-21.33
-18.00
-13.75
-9.28
-5.18
-1.82
0.67
2.37
3.45
4.16
4.73
5.35
6.12
7.03
7.97
8.78
9.37
9.73
9.96
10.15
10.37
10.56
10.62
10.46
10.05
9.44
8.69
7.89
7.08
6.30
5.55
4.81
4.06
3.22
2.20
0.96
-0.51
-2.15
-3.86
-5.51
-7.00
-8.29
-9.50
-10.75
-12.18
-13.84
-15.56
-17.01
-17.75
-17.44
-15.95
-13.44
-10.29
-6.97
-3.90
-1.32
0.71
2.28
3.56
4.71
5.80
6.82
7.70
8.32
8.61
8.54
8.20
7.74
7.36
7.25
7.48
7.97
8.50
8.81
8.74
8.27
7.52
6.68
5.82
4.95
4.00
2.96
1.89
0.89
0.03
-0.73
-1.55
-2.56
-3.79
-5.14
-6.46
-7.63
-8.69
-9.76
-10.96
-12.34
-13.79
-15.06
-15.85
-15.91
-15.08
-13.36
-10.93
-8.10
-5.26
-2.77
-0.83
0.50
1.36
1.95
2.47
3.01
3.53
3.89
4.00
3.83
3.51
3.25
3.24
3.60
4.30
5.19
6.08
6.73
7.01
6.86
6.31
5.51
4.62
3.77
3.01
2.30
1.51
0.61
-0.38
-1.34
-2.14
-2.73
-3.20
-3.69
-4.31
-5.10
-6.02
-7.05
-8.25
-9.65
-11.22
-12.71
-13.72
-13.82
-12.78
-10.63
-7.71
-4.55
-1.67
0.61
2.16
3.09
3.57
3.80
3.95
4.09
4.27
4.48
4.73
4.99
5.24
5.45
5.54
5.51
5.35
5.06
4.70
4.23
3.67
3.03
2.36
1.75
1.24
0.84
0.50
0.12
-0.42
-1.16
-2.14
-3.32
-4.63
-5.94
-7.11
-7.96
-8.41
-8.49
-8.38
-8.38
-8.80
-9.79
-11.26
-12.85
-14.03
-14.29
-13.36
-11.30
-8.49
-5.44
-2.68
-0.52
0.97
1.93
2.59
3.15
3.73
4.34
4.92
5.41
5.74
5.92
5.96
5.95
5.92
5.88
5.77
5.55
5.21
4.83
4.51
4.33
4.23
4.05
3.57
2.64
1.27
-0.32
-1.83
-2.95
-3.53
-3.58
-3.30
-2.96
-2.85
-3.15
-3.93
-5.09
-6.44
-7.74
-8.85
-9.68
-10.32
-10.91
-11.56
-12.32
-13.04
-13.50
-13.44
-12.65
-11.11
-8.94
-6.43
-3.88
-1.58
0.34
1.88
3.07
3.96
4.50
4.62
4.36
3.85
3.40
3.28
3.64
4.39
5.23
5.81
5.92
5.61
5.13
4.76
4.70
4.87
5.08
5.03
4.56
3.65
2.47
1.28
0.33
-0.26
-0.49
-0.55
-0.68
-1.08
-1.83
-2.89
-4.04
-5.09
-5.87
-6.35
-6.56
-6.65
-6.76
-7.06
-7.70
-8.82
-10.46
-12.50
-14.63
-16.37
-17.21
-16.85
-15.26
-12.75
-9.83
-7.00
-4.61
-2.79
-1.43
-0.37
0.59
1.53
2.44
3.30
4.09
4.81
5.48
6.08
6.57
6.89
7.00
6.85
6.48
5.96
5.40
4.91
4.58
4.45
4.51
4.69
4.90
5.06
5.06
4.86
4.40
3.62
2.57
1.35
0.12
-0.96
-1.82
-2.53
-3.24
-4.07
-5.07
-6.16
-7.26
-8.33
-9.48
-10.80
-12.39
-14.17
-15.92
-17.39
-18.34
-18.60
-18.10
-16.80
-14.70
-11.96
-8.81
-5.62
-2.76
-0.49
1.08
2.02
2.50
2.73
2.90
3.17
3.64
4.34
5.21
6.14
7.00
7.68
8.15
8.45
8.64
8.79
8.92
8.99
8.94
8.67
8.11
7.24
6.09
4.79
3.53
2.47
1.72
1.28
1.00
0.67
0.05
-0.97
-2.37
-3.95
-5.48
-6.78
-7.82
-8.72
-9.70
-10.99
-12.74
-14.90
-17.21
-19.28
-20.65
-20.88
-19.76
-17.35
-14.01
-10.29
-6.72
-3.71
-1.42
0.20
1.32
2.12
2.71
3.18
3.56
3.95
4.41
4.95
5.53
6.02
6.25
6.18
5.86
5.47
5.28
5.47
6.06
6.85
7.53
7.79
7.48
6.63
5.40
3.97
2.51
1.12
-0.14
-1.23
-2.14
-2.95
-3.72
-4.59
-5.61
-6.85
-8.31
-9.97
-11.88
-14.08
-16.54
-19.05
-21.24
-22.53
-22.44
-20.75
-17.62
-13.63
-9.51
-5.95
-3.28
-1.50
-0.30
0.66
1.64
2.70
3.83
5.00
6.18
7.35
8.45
9.33
9.90
10.17
10.26
10.36
10.61
10.98
11.36
11.54
11.41
10.99
10.34
9.58
8.73
7.79
6.74
5.65
4.64
3.79
3.11
2.43
1.55
0.28
-1.43
-3.47
-5.65
-7.80
-9.84
-11.86
-14.03
-16.57
-19.58
-22.93
-26.21
-28.81
-30.00
-29.30
-26.60
-22.32
-17.18
-11.97
-7.30
-3.49
-0.55
1.66
3.30
4.55
5.56
6.51
7.56
8.83
10.30
11.81
13.17
14.16
14.77
15.07
15.26
15.56
16.06
16.76
17.55
18.24
18.62
18.54
17.92
16.73
15.05
13.05
10.98
9.08
7.51
6.27
5.27
4.31
3.29
2.18
1.04
-0.10
-1.26
-2.55
-4.15
-6.22
-8.87
-12.10
-15.81
-19.82
-23.82
-27.41
-30.11
-31.46
-31.18
-29.18
-25.68
-21.12
-16.02
-10.92
-6.21
-2.11
1.32
4.16
6.55
8.62
10.47
12.14
13.60
14.84
15.87
16.79
17.69
18.60
19.45
20.10
20.42
20.43
20.25
20.11
20.15
20.37
20.58
20.55
20.10
19.24
18.07
16.74
15.34
13.88
12.26
10.45
8.43
6.21
3.84
1.39
-1.00
-3.17
-4.98
-6.39
-7.56
-8.82
-10.54
-12.98
-16.15
-19.77
-23.32
-26.13
-27.54
-27.08
-24.65
-20.52
-15.31
-9.84
-4.80
-0.61
2.66
5.27
7.52
9.66
11.75
13.69
15.35
16.62
17.52
18.11
18.48
18.73
18.90
19.07
19.30
19.63
20.08
20.60
21.08
21.39
21.41
21.08
20.43
19.51
18.38
17.07
15.64
14.16
12.73
11.43
10.26
9.10
7.78
6.16
4.23
2.17
0.23
-1.38
-2.67
-3.80
-5.09
-6.83
-9.17
-12.09
-15.42
-18.88
-22.09
-24.61
-25.94
-25.64
-23.56
-19.86
-15.11
-10.07
-5.47
-1.74
1.02
3.02
4.59
6.00
7.44
8.95
10.51
12.04
13.45
14.63
15.51
16.11
16.50
16.86
17.26
17.74
18.18
18.49
18.59
18.55
18.45
18.40
18.35
18.17
17.68
16.77
15.45
13.91
12.38
11.00
9.76
8.55
7.19
5.59
3.81
2.00
0.35
-1.01
-2.10
-2.99
-3.80
-4.61
-5.49
-6.53
-7.89
-9.78
-12.32
-15.41
-18.66
-21.45
-23.14
-23.20
-21.52
-18.37
-14.33
-10.12
-6.32
-3.25
-0.97
0.70
2.07
3.38
4.78
6.27
7.70
8.89
9.79
10.41
10.91
11.44
12.06
12.71
13.27
13.58
13.59
13.40
13.18
13.05
13.04
13.03
12.83
12.33
11.50
10.47
9.48
8.71
8.22
7.91
7.55
6.96
6.05
4.89
3.71
2.71
1.96
1.36
0.71
-0.21
-1.48
-3.04
-4.70
-6.25
-7.57
-8.71
-9.86
-11.26
-13.10
-15.34
-17.67
-19.54
-20.33
-19.67
-17.54
-14.37
-10.84
-7.63
-5.14
-3.41
-2.24
-1.33
-0.46
0.43
1.31
2.07
2.65
3.06
3.36
3.60
3.87
4.20
4.53
4.76
4.79
4.55
4.13
3.76
3.64
3.89
4.44
5.03
5.37
5.28
4.75
3.95
3.12
2.47
2.11
2.02
2.03
1.97
1.68
1.09
0.26
-0.65
-1.50
-2.25
-3.02
-4.00
-5.33
-6.98
-8.75
-10.36
-11.60
-12.35
-12.58
-12.25
-11.30
-9.72
-7.63
-5.31
-3.14
-1.45
-0.32
0.35
0.81
1.27
1.81
2.39
2.89
3.24
3.40
3.42
3.38
3.36
3.39
3.50
3.60
3.59
3.37
2.92
2.27
1.58
1.00
0.64
0.54
0.64
0.80
0.88
0.71
0.25
-0.50
-1.42
-2.43
-3.46
-4.53
-5.65
-6.80
-7.85
-8.67
-9.19
-9.54
-9.94
-10.56
-11.38
-12.11
-12.35
-11.74
-10.21
-8.02
-5.60
-3.39
-1.66
-0.44
0.35
0.88
1.28
1.59
1.83
1.96
1.96
1.83
1.62
1.42
1.32
1.35
1.47
1.58
1.60
1.47
1.28
1.08
0.94
0.86
0.83
0.79
0.70
0.55
0.25
-0.28
-1.16
-2.39
-3.88
-5.40
-6.68
-7.52
-7.87
-7.89
-7.86
-8.11
-8.87
-10.16
-11.76
-13.28
-14.31
-14.50
-13.72
-12.00
-9.59
-6.83
-4.05
-1.58
0.34
1.57
2.16
2.30
2.30
2.40
2.74
3.27
3.82
4.18
4.25
4.02
3.60
3.14
2.74
2.47
2.35
2.39
2.57
2.80
2.99
3.01
2.76
2.21
1.43
0.49
-0.46
-1.30
-1.94
-2.36
-2.64
-2.92
-3.36
-4.06
-5.01
-6.15
-7.34
-8.53
-9.73
-11.04
-12.53
-14.19
-15.79
-17.01
-17.44
-16.78
-15.00
-12.34
-9.33
-6.51
-4.29
-2.79
-1.88
-1.32
-0.88
-0.48
-0.11
0.23
0.57
1.05
1.77
2.72
3.78
4.71
5.29
5.42
5.18
4.76
4.41
4.30
4.44
4.65
4.72
4.46
3.82
2.92
1.96
1.08
0.37
-0.23
-0.85
-1.55
-2.34
-3.12
-3.74
-4.14
-4.40
-4.77
-5.54
-7.02
-9.29
-12.22
-15.42
-18.38
-20.57
-21.61
-21.35
-19.89
-17.52
-14.62
-11.58
-8.72
-6.23
-4.24
-2.72
-1.59
-0.71
0.09
0.98
2.03
3.22
4.38
5.33
5.92
6.15
6.13
6.09
6.18
6.48
6.87
7.20
7.38
7.40
7.37
7.40
7.49
7.50
7.22
6.49
5.38
4.14
3.14
2.62
2.56
2.68
2.57
1.89
0.55
-1.27
-3.20
-4.86
-6.02
-6.68
-7.07
-7.54
-8.40
-9.84
-11.89
-14.45
-17.24
-19.95
-22.17
-23.49
-23.55
-22.21
-19.60
-16.13
-12.40
-8.96
-6.17
-4.10
-2.62
-1.47
-0.46
0.55
1.63
2.82
4.15
5.59
7.07
8.46
9.66
10.59
11.23
11.61
11.79
11.80
11.72
11.62
11.55
11.53
11.57
11.65
11.80
12.06
12.48
13.00
13.41
13.42
12.78
11.48
9.78
8.11
6.82
6.00
5.41
4.69
3.55
1.93
0.01
-1.93
-3.67
-5.14
-6.43
-7.68
-9.03
-10.59
-12.48
-14.69
-17.18
-19.70
-21.87
-23.27
-23.56
-22.61
-20.53
-17.65
-14.33
-10.96
-7.79
-4.95
-2.49
-0.37
1.45
3.02
4.42
5.70
6.88
7.94
8.83
9.52
10.09
10.68
11.45
12.38
13.33
14.07
14.43
14.47
14.41
14.51
14.91
15.52
16.04
16.19
15.78
14.84
13.56
12.20
10.97
9.98
9.20
8.52
7.74
6.65
5.14
3.27
1.23
-0.69
-2.29
-3.57
-4.74
-6.08
-7.81
-9.98
-12.52
-15.33
-18.29
-21.33
-24.24
-26.66
-28.09
-28.03
-26.27
-22.97
-18.69
-14.14
-9.94
-6.43
-3.65
-1.43
0.40
1.92
3.06
3.62
3.39
2.20
0.01
-3.12
-7.07
-11.80
-17.28
-23.43
-30.05
-36.75
-43.10
-48.79
-53.80
-58.38
-62.76
-66.72
-69.22
-68.59
-62.95
-51.19
-33.52
-11.59
11.87
34.01
52.57
66.38
75.39
80.39
82.55
83.03
82.83
82.63
82.92
83.98
85.97
88.94
92.85
97.47
102.49
107.57
112.58
117.80
123.84
131.54
141.63
154.48
169.91
187.09
204.64
220.54
232.38
237.63
234.32
221.76
200.96
174.59
146.21
119.16
95.55
75.87
59.33
44.68
31.06
18.34
6.88
-2.92
-11.20
-18.67
-26.31
-34.88
-44.47
-54.57
-64.34
-73.05
-80.45
-86.79
-92.73
-99.12
-106.58
-115.45
-125.59
-136.61
-148.01
-159.48
-171.11
-183.33
-196.71
-211.65
-228.06
-245.30
-262.29
-277.66
-289.78
-296.84
-297.02
-288.86
-271.84
-246.81
-216.09
-182.84
-150.13
-120.07
-93.35
-69.50
-47.69
-27.41
-8.88
7.09
19.64
28.34
33.41
35.68
36.15
35.73
34.98
34.16
33.37
32.73
32.46
32.71
33.49
34.55
35.36
35.44
34.47
32.56
30.15
27.84
26.05
24.87
24.02
23.08
21.65
19.60
17.02
14.18
11.30
8.44
5.46
2.18
-1.55
-5.70
-10.01
-14.03
-17.26
-19.25
-19.66
-18.42
-15.65
-11.74
-7.19
-2.59
1.56
4.90
7.33
8.97
10.10
11.04
12.05
13.31
14.85
16.61
18.43
20.11
21.40
22.20
22.47
22.35
22.09
21.95
22.08
22.46
22.92
23.17
22.96
22.16
20.84
19.21
17.57
16.09
14.81
13.61
12.35
10.93
9.30
7.52
5.62
3.62
1.50
-0.71
-3.01
-5.38
-7.86
-10.55
-13.49
-16.48
-19.08
-20.69
-20.78
-19.11
-15.89
-11.69
-7.15
-2.83
1.00
4.34
7.25
9.87
12.26
14.45
16.43
18.21
19.73
21.01
22.04
22.92
23.71
24.47
25.17
25.69
25.95
25.93
25.76
25.61
25.56
25.55
25.37
24.81
23.76
22.34
20.76
19.25
17.86
16.48
14.92
13.07
10.95
8.78
6.80
5.15
3.85
2.73
1.63
0.36
-1.27
-3.42
-6.18
-9.52
-13.21
-16.74
-19.49
-20.84
-20.46
-18.41
-15.11
-11.22
-7.42
-4.25
-2.11
-1.19
-1.50
-2.85
-4.77
-6.58
-7.50
-6.93
-4.71
-1.13
3.08
7.15
10.58
13.29
15.58
17.86
20.31
22.78
24.90
26.21
26.50
25.81
24.37
22.44
20.16
17.55
14.60
11.37
8.08
5.00
2.46
0.64
-0.41
-0.87
-1.05
-1.38
-2.18
-3.58
-5.40
-7.21
-8.55
-9.15
-9.01
-8.31
-7.22
-5.66
-3.26
0.39
5.50
11.76
18.37
24.30
28.67
31.10
31.75
31.19
30.20
29.56
29.87
31.52
34.61
38.86
43.53
47.62
50.12
50.47
48.83
46.02
43.12
41.02
40.01
39.77
39.62
38.94
37.40
35.06
32.26
29.33
26.49
23.67
20.40
15.88
9.15
-0.43
-12.69
-26.34
-39.23
-49.04
-54.18
-54.43
-50.87
-45.37
-39.78
-35.36
-32.51
-30.95
-30.01
-28.81
-26.49
-22.29
-15.82
-7.18
2.89
13.28
22.83
30.68
36.46
40.20
42.22
42.92
42.71
41.94
40.92
39.88
38.86
37.74
36.25
34.07
31.01
27.05
22.45
17.59
13.02
9.13
6.15
3.97
2.22
0.45
-1.68
-4.25
-7.02
-9.63
-11.75
-13.20
-14.08
-14.59
-14.99
-15.45
-16.11
-17.07
-18.43
-20.27
-22.56
-25.21
-28.04
-30.81
-33.23
-34.99
-35.75
-35.26
-33.49
-30.62
-27.10
-23.44
-20.05
-17.11
-14.60
-12.42
-10.52
-8.97
-7.82
-7.13
-6.70
-6.26
-5.50
-4.29
-2.69
-0.93
0.75
2.22
3.47
4.56
5.47
6.10
6.27
5.83
4.82
3.44
2.06
0.98
0.37
0.23
0.42
0.73
1.04
1.22
1.23
0.99
0.38
-0.71
-2.31
-4.36
-6.71
-9.13
-11.39
-13.26
-14.55
-15.12
-14.92
-14.04
-12.71
-11.24
-9.89
-8.78
-7.87
-7.03
-6.16
-5.26
-4.40
-3.66
-3.08
-2.62
-2.20
-1.76
-1.26
-0.65
0.12
1.09
2.25
3.51
4.74
5.77
6.49
6.86
6.92
6.73
6.39
6.01
5.72
5.59
5.65
5.84
6.01
6.01
5.71
5.08
4.16
3.03
1.81
0.62
-0.43
-1.26
-1.84
-2.30
-2.86
-3.73
-4.96
-6.39
-7.62
-8.22
-7.91
-6.72
-4.90
-2.79
-0.68
1.28
3.03
4.49
5.57
6.16
6.29
6.08
5.72
5.36
5.09
4.92
4.84
4.90
5.14
5.55
6.05
6.49
6.71
6.65
6.35
5.92
5.49
5.14
4.84
4.55
4.15
3.59
2.86
1.98
1.02
0.05
-0.92
-1.88
-2.85
-3.83
-4.80
-5.73
-6.61
-7.44
-8.24
-8.97
-9.49
-9.61
-9.16
-8.03
-6.31
-4.20
-2.01
0.03
1.74
3.09
4.10
4.80
5.24
5.46
5.54
5.59
5.69
5.88
6.16
6.47
6.80
7.15
7.54
7.99
8.48
8.93
9.26
9.34
9.11
8.52
7.62
6.51
5.33
4.17
3.07
2.03
1.06
0.16
-0.63
-1.31
-1.98
-2.80
-3.95
-5.50
-7.35
-9.21
-10.66
-11.37
-11.17
-10.11
-8.43
-6.51
-4.71
-3.33
-2.49
-2.14
-2.07
-2.02
-1.77
-1.22
-0.40
0.50
1.25
1.62
1.51
0.99
0.24
-0.47
-0.91
-0.99
-0.77
-0.41
-0.10
0.03
-0.08
-0.42
-1.01
-1.81
-2.83
-4.02
-5.29
-6.52
-7.59
-8.40
-8.90
-9.16
-9.29
-9.49
-9.91
-10.64
-11.67
-12.86
-14.01
-14.88
-15.31
-15.14
-14.37
-12.99
-11.11
-8.88
-6.49
-4.17
-2.09
-0.36
1.06
2.31
3.54
4.87
6.27
7.61
8.68
9.30
9.51
9.45
9.41
9.57
9.99
10.47
10.81
10.79
10.39
9.77
9.09
8.44
7.80
7.02
6.03
4.84
3.62
2.56
1.78
1.28
0.93
0.60
0.18
-0.32
-0.83
-1.30
-1.72
-2.16
-2.75
-3.61
-4.81
-6.33
-8.03
-9.69
-10.99
-11.67
-11.55
-10.65
-9.16
-7.37
-5.55
-3.90
-2.46
-1.17
0.04
1.26
2.50
3.70
4.78
5.66
6.28
6.65
6.82
6.89
6.87
6.81
6.72
6.64
6.65
6.81
7.13
7.51
7.74
7.65
7.15
6.37
5.55
4.95
4.71
4.74
4.80
4.63
4.08
3.18
2.11
1.09
0.19
-0.62
-1.50
-2.60
-4.00
-5.64
-7.44
-9.30
-11.12
-12.80
-14.14
-14.92
-14.95
-14.16
-12.67
-10.74
-8.69
-6.80
-5.15
-3.71
-2.31
-0.81
0.84
2.55
4.13
5.38
6.13
6.35
6.13
5.70
5.32
5.20
5.40
5.86
6.38
6.78
6.92
6.83
6.64
6.47
6.40
6.39
6.36
6.27
6.15
6.06
6.00
5.91
5.64
5.11
4.30
3.30
2.24
1.20
0.20
-0.79
-1.77
-2.72
-3.67
-4.66
-5.80
-7.25
-9.08
-11.24
-13.53
-15.64
-17.22
-18.00
-17.87
-16.87
-15.20
-13.17
-11.06
-9.05
-7.21
-5.51
-3.88
-2.32
-0.84
0.54
1.84
3.16
4.59
6.17
7.84
9.39
10.60
11.28
11.38
11.01
10.34
9.60
8.88
8.25
7.68
7.19
6.76
6.36
5.89
5.27
4.44
3.44
2.41
1.55
1.03
0.87
0.96
1.12
1.19
1.03
0.58
-0.19
-1.28
-2.62
-4.10
-5.54
-6.81
-7.92
-9.01
-10.28
-11.84
-13.56
-15.18
-16.25
-16.48
-15.75
-14.19
-12.12
-9.89
-7.79
-5.97
-4.45
-3.13
-1.93
-0.75
0.45
1.63
2.75
3.75
4.60
5.27
5.78
6.12
6.34
6.52
6.70
6.94
7.18
7.36
7.34
7.10
6.69
6.29
6.04
5.97
5.95
5.74
5.15
4.17
2.92
1.62
0.44
-0.63
-1.72
-3.02
-4.63
-6.50
-8.40
-10.07
-11.32
-12.09
-12.52
-12.87
-13.44
-14.49
-16.12
-18.14
-20.14
-21.51
-21.70
-20.40
-17.73
-14.18
-10.44
-7.10
-4.47
-2.51
-0.95
0.46
1.83
3.08
4.05
4.69
5.08
5.45
6.03
6.93
8.09
9.37
10.60
11.69
12.57
13.23
13.65
13.85
13.81
13.57
13.16
12.57
11.71
10.55
9.08
7.42
5.75
4.26
3.07
2.12
1.27
0.33
-0.83
-2.19
-3.67
-5.15
-6.52
-7.74
-8.90
-10.11
-11.52
-13.20
-15.09
-16.96
-18.46
-19.24
-19.03
-17.79
-15.72
-13.13
-10.38
-7.74
-5.35
-3.24
-1.41
0.09
1.26
2.09
2.64
3.03
3.45
3.99
4.74
5.65
6.62
7.48
8.08
8.29
8.09
7.53
6.77
6.02
5.42
5.03
4.76
4.43
3.89
3.07
2.03
0.89
-0.16
-1.05
-1.82
-2.60
-3.54
-4.70
-6.06
-7.52
-8.95
-10.28
-11.57
-12.93
-14.49
-16.28
-18.13
-19.67
-20.42
-20.07
-18.54
-16.07
-13.08
-9.97
-7.00
-4.23
-1.64
0.77
2.94
4.71
5.99
6.83
7.42
7.99
8.73
9.62
10.48
11.14
11.48
11.60
11.70
11.99
12.56
13.27
13.82
13.92
13.38
12.29
10.89
9.50
8.30
7.30
6.31
5.12
3.61
1.83
-0.00
-1.64
-2.93
-3.87
-4.60
-5.36
-6.40
-7.86
-9.77
-12.01
-14.34
-16.37
-17.71
-17.98
-17.00
-14.85
-11.87
-8.57
-5.48
-2.91
-0.94
0.59
1.94
3.27
4.61
5.85
6.86
7.61
8.18
8.74
9.42
10.21
11.03
11.73
12.23
12.50
12.60
12.58
12.46
12.27
12.04
11.83
11.67
11.47
11.07
10.25
8.90
7.06
4.99
2.96
1.22
-0.20
-1.40
-2.59
-3.95
-5.54
-7.37
-9.34
-11.35
-13.22
-14.69
-15.48
-15.29
-13.99
-11.66
-8.64
-5.38
-2.34
0.16
2.06
3.46
4.58
5.62
6.65
7.64
8.47
9.09
9.56
10.01
10.56
11.26
12.03
12.72
13.18
13.37
13.34
13.19
13.01
12.78
12.44
11.91
11.11
10.02
8.68
7.18
5.66
4.31
3.24
2.51
2.00
1.51
0.80
-0.27
-1.71
-3.43
-5.30
-7.25
-9.23
-11.16
-12.86
-14.05
-14.41
-13.74
-12.02
-9.51
-6.67
-3.95
-1.72
-0.08
1.10
2.06
3.01
4.04
5.11
6.12
7.01
7.83
8.68
9.61
10.55
11.31
11.70
11.62
11.19
10.70
10.48
10.71
11.35
12.14
12.75
12.91
12.56
11.80
10.79
9.68
8.51
7.31
6.09
4.90
3.83
2.91
2.12
1.34
0.41
-0.81
-2.39
-4.28
-6.39
-8.59
-10.80
-12.98
-15.03
-16.78
-17.97
-18.29
-17.51
-15.56
-12.62
-9.13
-5.60
-2.50
-0.13
1.47
2.43
2.98
3.32
3.57
3.81
4.05
4.32
4.71
5.31
6.16
7.24
8.42
9.52
10.41
11.01
11.34
11.47
11.43
11.21
10.82
10.27
9.61
8.94
8.35
7.86
7.46
7.02
6.45
5.63
4.56
3.27
1.91
0.63
-0.46
-1.35
-2.18
-3.10
-4.23
-5.52
-6.82
-7.93
-8.70
-9.04
-8.97
-8.46
-7.52
-6.17
-4.46
-2.60
-0.81
0.68
1.78
2.54
3.07
3.42
3.60
3.55
3.27
2.88
2.61
2.61
2.93
3.44
3.89
4.05
3.84
3.39
2.94
2.73
2.89
3.35
3.94
4.41
4.53
4.20
3.42
2.31
1.08
-0.07
-1.02
-1.75
-2.32
-2.81
-3.34
-3.97
-4.80
-5.84
-7.05
-8.25
-9.16
-9.49
-9.04
-7.81
-5.99
-3.89
-1.83
-0.07
1.22
1.97
2.20
2.04
1.67
1.34
1.18
1.22
1.34
1.35
1.16
0.78
0.35
-0.01
-0.26
-0.47
-0.75
-1.08
-1.37
-1.41
-1.08
-0.42
0.35
0.88
0.88
0.24
-0.91
-2.25
-3.44
-4.22
-4.51
-4.38
-4.01
-3.64
-3.44
-3.54
-4.01
-4.80
-5.87
-7.06
-8.19
-9.04
-9.37
-9.00
-7.92
-6.27
-4.30
-2.34
-0.63
0.67
1.51
1.93
2.01
1.84
1.49
1.07
0.68
0.44
0.44
0.69
1.20
1.89
2.63
3.28
3.70
3.83
3.70
3.44
3.24
3.20
3.35
3.56
3.58
3.22
2.42
1.28
0.02
-1.11
-1.99
-2.60
-3.00
-3.34
-3.73
-4.28
-5.09
-6.22
-7.63
-9.16
-10.55
-11.51
-11.82
-11.41
-10.32
-8.71
-6.75
-4.67
-2.66
-0.93
0.45
1.47
2.26
2.97
3.74
4.58
5.37
5.96
6.27
6.33
6.26
6.23
6.29
6.36
6.32
6.07
5.62
5.10
4.70
4.46
4.31
4.01
3.33
2.19
0.69
-0.86
-2.14
-2.89
-3.10
-2.99
-2.83
-2.91
-3.32
-3.98
-4.70
-5.34
-5.85
-6.34
-6.97
-7.87
-9.01
-10.27
-11.49
-12.50
-13.24
-13.64
-13.68
-13.26
-12.33
-10.89
-9.09
-7.18
-5.45
-4.13
-3.27
-2.78
-2.41
-1.94
-1.22
-0.25
0.83
1.85
2.67
3.26
3.64
3.91
4.12
4.29
4.41
4.48
4.57
4.75
5.04
5.37
5.59
5.51
5.04
4.21
3.20
2.21
1.37
0.76
0.33
-0.01
-0.34
-0.69
-1.03
-1.30
-1.47
-1.56
-1.66
-1.92
-2.51
-3.50
-4.88
-6.46
-8.03
-9.45
-10.66
-11.74
-12.73
-13.55
-14.05
-14.04
-13.46
-12.38
-11.03
-9.60
-8.21
-6.86
-5.50
-4.12
-2.76
-1.55
-0.57
0.19
0.83
1.52
2.34
3.26
4.16
4.87
5.28
5.40
5.34
5.23
5.13
5.06
5.01
4.97
4.99
5.13
5.30
5.36
5.06
4.29
3.10
1.74
0.54
-0.24
-0.53
-0.49
-0.40
-0.52
-0.97
-1.69
-2.50
-3.22
-3.78
-4.21
-4.65
-5.23
-5.99
-6.85
-7.68
-8.42
-9.15
-10.03
-11.24
-12.75
-14.29
-15.40
-15.63
-14.75
-12.91
-10.56
-8.29
-6.51
-5.40
-4.83
-4.54
-4.27
-3.87
-3.31
-2.57
-1.62
-0.45
0.91
2.34
3.62
4.53
4.97
4.97
4.71
4.39
4.19
4.20
4.42
4.81
5.25
5.64
5.87
5.92
5.82
5.65
5.48
5.33
5.12
4.75
4.14
3.26
2.13
0.86
-0.46
-1.71
-2.84
-3.88
-4.86
-5.92
-7.16
-8.66
-10.42
-12.35
-14.28
-15.94
-17.07
-17.40
-16.77
-15.23
-12.99
-10.44
-7.98
-5.89
-4.26
-3.04
-2.08
-1.27
-0.54
0.15
0.81
1.47
2.16
2.85
3.52
4.15
4.71
5.25
5.79
6.32
6.82
7.25
7.58
7.83
7.99
8.07
7.97
7.63
6.97
5.96
4.70
3.31
1.99
0.82
-0.19
-1.12
-2.04
-3.02
-4.00
-4.99
-5.98
-7.03
-8.24
-9.70
-11.37
-13.08
-14.58
-15.58
-15.86
-15.29
-13.88
-11.82
-9.40
-6.97
-4.82
-3.13
-1.87
-0.86
0.09
1.15
2.32
3.46
4.40
4.98
5.19
5.17
5.17
5.43
6.01
6.85
7.74
8.45
8.86
8.97
8.82
8.52
8.10
7.54
6.81
5.92
4.92
3.86
2.82
1.76
0.65
-0.56
-1.86
-3.18
-4.45
-5.68
-6.98
-8.51
-10.47
-12.85
-15.43
-17.78
-19.39
-19.86
-19.01
-16.99
-14.21
-11.19
-8.36
-5.99
-4.09
-2.48
-0.92
0.72
2.43
4.10
5.54
6.64
7.42
7.96
8.40
8.82
9.24
9.63
9.98
10.35
10.82
11.47
12.25
12.99
13.45
13.43
12.85
11.79
10.41
8.93
7.49
6.11
4.72
3.19
1.43
-0.59
-2.78
-5.01
-7.10
-8.92
-10.45
-11.83
-13.29
-15.03
-17.11
-19.34
-21.32
-22.59
-22.80
-21.83
-19.76
-16.93
-13.69
-10.41
-7.37
-4.77
-2.66
-0.95
0.54
2.01
3.58
5.29
7.03
8.69
10.17
11.41
12.46
13.38
14.24
15.05
15.81
16.49
16.99
17.25
17.22
16.90
16.34
15.62
14.79
13.88
12.87
11.75
10.52
9.18
7.69
6.03
4.18
2.23
0.34
-1.34
-2.76
-4.05
-5.54
-7.51
-10.11
-13.14
-16.11
-18.40
-19.44
-19.01
-17.20
-14.41
-11.15
-7.83
-4.72
-1.91
0.62
2.90
4.92
6.72
8.30
9.71
11.02
12.24
13.35
14.30
15.04
15.56
15.90
16.14
16.31
16.42
16.45
16.39
16.20
15.87
15.33
14.55
13.47
12.18
10.81
9.59
8.69
8.14
7.82
7.52
7.02
6.19
4.99
3.45
1.59
-0.52
-2.82
-5.19
-7.53
-9.81
-12.13
-14.65
-17.53
-20.74
-23.96
-26.62
-28.00
-27.63
-25.39
-21.62
-17.01
-12.36
-8.33
-5.20
-2.91
-1.10
0.65
2.64
4.94
7.41
9.76
11.73
13.17
14.07
14.59
14.98
15.44
16.06
16.83
17.62
18.33
18.88
19.28
19.57
19.74
19.64
19.12
18.03
16.42
14.58
12.90
11.69
10.98
10.47
9.67
8.21
6.00
3.29
0.53
-1.88
-3.73
-5.08
-6.15
-7.19
-8.41
-10.01
-12.10
-14.67
-17.55
-20.30
-22.31
-23.02
-22.12
-19.70
-16.25
-12.42
-8.81
-5.76
-3.29
-1.23
0.63
2.42
4.18
5.86
7.45
8.94
10.34
11.61
12.66
13.40
13.77
13.83
13.75
13.76
14.02
14.59
15.36
16.11
16.61
16.65
16.17
15.23
14.01
12.72
11.56
10.62
9.90
9.31
8.66
7.77
6.52
4.91
3.06
1.15
-0.67
-2.33
-3.90
-5.50
-7.24
-9.17
-11.27
-13.42
-15.53
-17.42
-18.82
-19.43
-18.97
-17.34
-14.69
-11.45
-8.11
-5.13
-2.68
-0.72
0.96
2.54
4.12
5.63
6.96
8.05
8.84
9.37
9.71
9.92
10.09
10.27
10.52
10.83
11.22
11.61
11.93
12.06
11.91
11.43
10.66
9.71
8.70
7.78
7.03
6.48
6.14
5.89
5.56
4.94
3.90
2.40
0.63
-1.17
-2.76
-4.05
-5.16
-6.31
-7.71
-9.45
-11.48
-13.60
-15.57
-17.11
-17.90
-17.67
-16.23
-13.65
-10.27
-6.68
-3.49
-1.07
0.59
1.75
2.75
3.79
4.82
5.67
6.19
6.42
6.59
6.93
7.63
8.60
9.63
10.48
11.02
11.30
11.43
11.48
11.43
11.19
10.72
10.04
9.29
8.63
8.11
7.68
7.18
6.47
5.48
4.24
2.89
1.54
0.31
-0.74
-1.59
-2.26
-2.81
-3.34
-4.03
-4.98
-6.26
-7.83
-9.55
-11.29
-12.95
-14.45
-15.63
-16.31
-16.23
-15.24
-13.40
-11.01
-8.52
-6.34
-4.65
-3.36
-2.21
-0.93
0.56
2.14
3.58
4.66
5.35
5.72
5.93
6.11
6.31
6.55
6.83
7.16
7.60
8.13
8.69
9.15
9.37
9.26
8.83
8.11
7.21
6.22
5.25
4.39
3.74
3.33
3.11
2.97
2.75
2.34
1.65
0.69
-0.48
-1.78
-3.13
-4.48
-5.76
-6.98
-8.19
-9.49
-10.99
-12.71
-14.54
-16.21
-17.40
-17.80
-17.26
-15.88
-13.88
-11.54
-9.14
-6.85
-4.80
-3.06
-1.69
-0.73
-0.11
0.26
0.56
0.92
1.41
2.02
2.65
3.20
3.61
3.82
3.86
3.74
3.59
3.55
3.77
4.34
5.19
6.06
6.58
6.48
5.73
4.54
3.31
2.39
1.90
1.72
1.56
1.14
0.37
-0.65
-1.73
-2.69
-3.43
-3.98
-4.43
-4.88
-5.47
-6.28
-7.39
-8.77
-10.29
-11.71
-12.72
-13.06
-12.59
-11.31
-9.44
-7.28
-5.18
-3.44
-2.17
-1.36
-0.86
-0.44
0.10
0.84
1.73
2.63
3.36
3.80
3.93
3.82
3.56
3.27
3.02
2.89
2.90
3.10
3.47
3.97
4.48
4.90
5.10
5.04
4.72
4.20
3.56
2.83
2.06
1.27
0.50
-0.20
-0.77
-1.18
-1.47
-1.74
-2.13
-2.80
-3.86
-5.33
-7.14
-9.14
-11.05
-12.59
-13.43
-13.42
-12.51
-10.89
-8.87
-6.80
-4.97
-3.54
-2.48
-1.69
-1.04
-0.44
0.16
0.78
1.43
2.10
2.76
3.35
3.75
3.89
3.76
3.48
3.22
3.15
3.29
3.55
3.70
3.58
3.08
2.33
1.50
0.82
0.35
0.06
-0.22
-0.66
-1.36
-2.29
-3.30
-4.20
-4.85
-5.22
-5.43
-5.70
-6.24
-7.21
-8.57
-10.14
-11.69
-12.94
-13.70
-13.84
-13.33
-12.23
-10.70
-8.96
-7.24
-5.76
-4.66
-3.96
-3.59
-3.46
-3.44
-3.44
-3.41
-3.27
-2.96
-2.47
-1.81
-1.06
-0.34
0.23
0.63
0.86
1.02
1.19
1.46
1.82
2.20
2.51
2.67
2.67
2.58
2.45
2.35
2.21
1.92
1.36
0.45
-0.77
-2.16
-3.54
-4.74
-5.69
-6.41
-7.06
-7.81
-8.79
-9.94
-11.04
-11.70
-11.48
-10.10
-7.54
-4.10
-0.27
3.40
6.54
8.92
10.53
11.48
11.96
12.19
12.40
12.71
13.13
13.57
13.83
13.76
13.32
12.59
11.77
11.06
10.61
10.41
10.41
10.44
10.44
10.33
10.14
9.95
9.86
9.93
10.10
10.19
9.94
9.09
7.56
5.53
3.46
1.89
1.21
1.43
2.14
2.69
2.41
0.82
-2.24
-6.65
-12.08
-18.06
-24.04
-29.41
-33.56
-36.05
-36.71
-35.69
-33.44
-30.55
-27.58
-24.98
-22.96
-21.49
-20.33
-19.17
-17.68
-15.63
-12.97
-9.77
-6.21
-2.57
0.84
3.74
5.94
7.40
8.26
8.82
9.38
10.07
10.87
11.55
11.85
11.64
10.97
10.04
9.05
8.11
7.24
6.35
5.35
4.18
2.81
1.24
-0.48
-2.25
-4.00
-5.68
-7.37
-9.15
-11.15
-13.29
-15.34
-16.92
-17.66
-17.38
-16.14
-14.19
-11.79
-9.17
-6.44
-3.66
-0.91
1.74
4.21
6.46
8.53
10.47
12.28
13.92
15.27
16.23
16.70
16.68
16.23
15.45
14.51
13.60
12.85
12.33
11.98
11.68
11.24
10.53
9.46
8.05
6.36
4.48
2.53
0.61
-1.19
-2.84
-4.34
-5.74
-7.13
-8.60
-10.22
-12.05
-14.11
-16.38
-18.74
-20.98
-22.79
-23.80
-23.76
-22.58
-20.37
-17.41
-14.06
-10.66
-7.52
-4.82
-2.71
-1.19
-0.14
0.64
1.41
2.36
3.54
4.85
6.10
7.12
7.89
8.52
9.14
9.81
10.42
10.79
10.76
10.35
9.76
9.27
9.10
9.27
9.61
9.84
9.71
9.11
8.09
6.86
5.60
4.45
3.45
2.56
1.65
0.59
-0.71
-2.33
-4.29
-6.60
-9.25
-12.10
-14.90
-17.26
-18.71
-18.88
-17.62
-15.09
-11.77
-8.24
-5.05
-2.58
-0.94
0.00
0.56
1.10
1.91
3.09
4.53
5.98
7.17
7.98
8.44
8.66
8.77
8.83
8.85
8.89
9.01
9.29
9.75
10.29
10.68
10.71
10.27
9.41
8.36
7.36
6.58
6.03
5.59
5.11
4.48
3.67
2.71
1.61
0.33
-1.29
-3.38
-5.95
-8.90
-11.94
-14.71
-16.89
-18.25
-18.67
-18.16
-16.79
-14.69
-12.05
-9.08
-6.05
-3.21
-0.79
1.08
2.40
3.35
4.22
5.30
6.74
8.45
10.16
11.52
12.33
12.56
12.42
12.18
12.03
11.98
11.95
11.80
11.54
11.21
10.95
10.82
10.81
10.80
10.66
10.30
9.67
8.81
7.74
6.55
5.32
4.12
3.00
1.98
1.07
0.20
-0.69
-1.67
-2.86
-4.33
-6.12
-8.14
-10.18
-11.93
-13.05
-13.29
-12.53
-10.85
-8.47
-5.70
-2.86
-0.22
1.99
3.68
4.82
5.53
5.96
6.26
6.54
6.86
7.26
7.75
8.34
9.03
9.76
10.44
10.95
11.19
11.07
10.60
9.80
8.79
7.68
6.62
5.74
5.15
4.88
4.81
4.73
4.37
3.56
2.28
0.72
-0.79
-1.95
-2.60
-2.81
-2.85
-3.08
-3.86
-5.42
-7.74
-10.56
-13.41
-15.71
-16.95
-16.82
-15.35
-12.84
-9.79
-6.76
-4.17
-2.27
-1.08
-0.45
-0.10
0.25
0.88
1.96
3.48
5.30
7.15
8.74
9.87
10.47
10.64
10.58
10.54
10.68
11.05
11.51
11.88
12.01
11.82
11.38
10.84
10.32
9.83
9.27
8.50
7.40
6.03
4.50
2.98
1.58
0.32
-0.84
-1.93
-2.96
-3.92
-4.89
-6.00
-7.38
-9.04
-10.81
-12.38
-13.41
-13.64
-12.98
-11.51
-9.44
-7.06
-4.70
-2.65
-1.04
0.17
1.22
2.34
3.66
5.12
6.52
7.66
8.49
9.08
9.57
10.07
10.55
10.97
11.35
11.80
12.41
13.25
14.24
15.22
16.02
16.55
16.85
17.02
17.16
17.32
17.53
17.75
17.89
17.84
17.45
16.61
15.30
13.61
11.62
9.41
6.96
4.16
0.95
-2.59
-6.26
-9.70
-12.57
-14.59
-15.62
-15.63
-14.70
-13.00
-10.80
-8.35
-5.93
-3.60
-1.29
1.25
4.25
7.88
12.10
16.72
21.45
25.98
30.01
33.30
35.73
37.29
38.15
38.51
38.49
38.06
36.99
35.08
32.31
28.95
25.38
21.88
18.45
14.78
10.53
5.54
0.09
-5.20
-9.73
-13.14
-15.59
-17.55
-19.62
-22.15
-25.19
-28.43
-31.49
-34.08
-36.09
-37.58
-38.65
-39.30
-39.37
-38.63
-36.94
-34.38
-31.33
-28.30
-25.73
-23.86
-22.69
-22.10
-21.97
-22.28
-23.02
-24.09
-25.16
-25.75
-25.41
-23.87
-21.20
-17.82
-14.25
-11.05
-8.52
-6.72
-5.51
-4.65
-3.94
-3.31
-2.84
-2.68
-2.99
-3.80
-4.98
-6.33
-7.67
-8.88
-9.89
-10.66
-11.11
-11.22
-11.03
-10.78
-10.80
-11.41
-12.74
-14.57
-16.38
-17.49
-17.39
-15.91
-13.36
-10.28
-7.26
-4.68
-2.60
-0.88
0.72
2.30
3.85
5.24
6.36
7.16
7.70
8.06
8.30
8.46
8.62
8.79
9.06
9.44
9.83
10.05
9.92
9.30
8.25
6.97
5.78
4.97
4.65
4.72
4.87
4.84
4.44
3.69
2.75
1.86
1.16
0.63
0.13
-0.54
-1.53
-2.90
-4.58
-6.45
-8.32
-10.02
-11.42
-12.41
-12.93
-12.88
-12.16
-10.67
-8.41
-5.57
-2.50
0.36
2.68
4.38
5.59
6.52
7.29
7.84
7.99
7.64
6.87
6.01
5.40
5.28
5.62
6.17
6.62
6.81
6.78
6.69
6.71
6.86
7.03
6.97
6.51
5.63
4.46
3.26
2.23
1.46
0.88
0.31
-0.42
-1.39
-2.52
-3.70
-4.77
-5.69
-6.42
-7.03
-7.59
-8.20
-8.89
-9.57
-10.01
-9.89
-8.93
-7.05
-4.48
-1.69
0.77
2.55
3.58
4.13
4.55
5.12
5.87
6.65
7.26
7.60
7.71
7.69
7.62
7.49
7.18
6.61
5.80
4.96
4.34
4.14
4.35
4.75
5.03
4.92
4.36
3.49
2.61
1.94
1.58
1.41
1.24
0.95
0.48
-0.07
-0.60
-1.04
-1.47
-1.99
-2.62
-3.35
-4.08
-4.77
-5.45
-6.25
-7.29
-8.54
-9.85
-10.92
-11.49
-11.36
-10.55
-9.18
-7.48
-5.64
-3.82
-2.16
-0.78
0.26
0.94
1.35
1.61
1.89
2.26
2.72
3.14
3.38
3.36
3.14
2.95
2.99
3.40
4.10
4.87
5.39
5.51
5.24
4.78
4.39
4.19
4.17
4.17
4.03
3.67
3.16
2.65
2.22
1.86
1.47
0.92
0.21
-0.55
-1.22
-1.70
-2.06
-2.45
-3.06
-4.00
-5.21
-6.50
-7.63
-8.38
-8.62
-8.29
-7.47
-6.25
-4.81
-3.32
-1.94
-0.80
0.08
0.72
1.20
1.63
2.08
2.55
3.06
3.56
3.98
4.32
4.60
4.91
5.34
5.88
6.47
6.99
7.32
7.44
7.36
7.13
6.78
6.28
5.63
4.83
3.96
3.11
2.35
1.70
1.16
0.78
0.56
0.53
0.60
0.58
0.24
-0.51
-1.63
-2.88
-3.97
-4.71
-5.11
-5.37
-5.76
-6.45
-7.46
-8.65
-9.77
-10.53
-10.72
-10.24
-9.15
-7.65
-6.01
-4.45
-3.15
-2.10
-1.18
-0.31
0.56
1.37
2.00
2.39
2.60
2.73
2.93
3.30
3.85
4.49
5.14
5.68
6.08
6.37
6.58
6.76
6.89
6.93
6.81
6.53
6.10
5.60
5.08
4.54
3.92
3.19
2.36
1.54
0.83
0.28
-0.21
-0.75
-1.48
-2.39
-3.38
-4.27
-4.94
-5.37
-5.64
-5.84
-6.06
-6.36
-6.79
-7.43
-8.36
-9.57
-10.89
-11.99
-12.47
-12.04
-10.66
-8.57
-6.24
-4.10
-2.45
-1.35
-0.68
-0.27
0.04
0.34
0.69
1.13
1.66
2.26
2.86
3.40
3.88
4.32
4.72
5.06
5.23
5.15
4.83
4.42
4.14
4.22
4.71
5.50
6.36
7.01
7.27
7.09
6.56
5.80
4.94
4.08
3.30
2.67
2.20
1.82
1.42
0.83
-0.02
-1.10
-2.28
-3.38
-4.30
-5.06
-5.79
-6.66
-7.77
-9.15
-10.80
-12.67
-14.68
-16.61
-18.08
-18.60
-17.84
-15.75
-12.72
-9.39
-6.46
-4.31
-2.99
-2.19
-1.56
-0.84
-0.00
0.88
1.69
2.39
3.03
3.71
4.46
5.29
6.10
6.78
7.21
7.34
7.24
7.05
6.96
7.09
7.46
7.92
8.23
8.19
7.72
6.88
5.82
4.76
3.89
3.27
2.88
2.61
2.29
1.80
1.07
0.19
-0.73
-1.64
-2.55
-3.58
-4.85
-6.38
-8.07
-9.81
-11.45
-12.95
-14.21
-15.13
-15.45
-14.94
-13.45
-11.03
-8.06
-5.00
-2.32
-0.32
0.96
1.67
2.07
2.45
2.98
3.69
4.46
5.14
5.58
5.78
5.89
6.11
6.56
7.26
8.06
8.75
9.20
9.40
9.47
9.55
9.69
9.79
9.75
9.45
8.90
8.24
7.54
6.84
6.02
4.97
3.64
2.08
0.56
-0.69
-1.50
-1.94
-2.28
-2.87
-3.99
-5.66
-7.61
-9.37
-10.48
-10.60
-9.75
-8.16
-6.28
-4.50
-3.04
-1.94
-1.13
-0.50
-0.03
0.31
0.52
0.64
0.77
0.96
1.26
1.66
2.16
2.77
3.51
4.37
5.26
6.02
6.48
6.55
6.27
5.79
5.26
4.72
4.12
3.38
2.50
1.56
0.72
0.09
-0.36
-0.79
-1.37
-2.23
-3.37
-4.71
-6.20
-7.86
-9.71
-11.73
-13.66
-15.08
-15.58
-14.90
-13.13
-10.65
-7.96
-5.48
-3.45
-1.87
-0.60
0.50
1.51
2.43
3.21
3.81
4.24
4.57
4.92
5.40
6.08
6.92
7.78
8.46
8.83
8.87
8.71
8.53
8.47
8.50
8.43
8.02
7.07
5.59
3.76
1.91
0.31
-0.89
-1.76
-2.49
-3.29
-4.32
-5.63
-7.22
-9.14
-11.39
-13.91
-16.53
-18.81
-20.27
-20.50
-19.32
-16.95
-13.84
-10.55
-7.54
-5.05
-3.12
-1.65
-0.51
0.43
1.30
2.21
3.27
4.57
6.09
7.70
9.20
10.36
11.09
11.40
11.47
11.52
11.76
12.23
12.82
13.29
13.39
12.97
12.11
11.06
10.16
9.64
9.48
9.44
9.16
8.39
7.06
5.33
3.47
1.71
0.13
-1.25
-2.49
-3.64
-4.75
-5.90
-7.22
-8.86
-10.88
-13.18
-15.46
-17.27
-18.16
-17.79
-16.07
-13.21
-9.65
-6.02
-2.85
-0.50
1.04
2.02
2.81
3.74
4.91
6.23
7.56
8.80
9.99
11.19
12.43
13.60
14.47
14.85
14.67
14.09
13.37
12.83
12.64
12.81
13.14
13.43
13.48
13.22
12.73
12.11
11.52
11.03
10.66
10.34
9.97
9.50
8.86
8.04
7.05
5.86
4.51
3.00
1.41
-0.19
-1.71
-3.11
-4.38
-5.55
-6.74
-8.11
-9.78
-11.80
-14.00
-16.02
-17.42
-17.80
-17.02
-15.27
-12.87
-10.23
-7.63
-5.18
-2.95
-1.02
0.50
1.53
2.17
2.63
3.17
4.01
5.16
6.49
7.80
8.97
9.94
10.74
11.35
11.73
11.82
11.66
11.36
11.13
11.11
11.32
11.59
11.70
11.45
10.86
10.11
9.49
9.17
9.14
9.16
8.94
8.31
7.28
6.07
4.92
4.02
3.40
2.99
2.64
2.25
1.73
1.05
0.19
-0.85
-2.01
-3.22
-4.41
-5.53
-6.56
-7.47
-8.23
-8.87
-9.50
-10.31
-11.49
-13.10
-14.96
-16.60
-17.45
-17.08
-15.38
-12.67
-9.52
-6.57
-4.23
-2.62
-1.57
-0.81
-0.10
0.67
1.53
2.47
3.50
4.58
5.65
6.56
7.10
7.17
6.84
6.36
6.06
6.19
6.76
7.48
7.97
7.89
7.20
6.15
5.18
4.68
4.72
5.10
5.42
5.34
4.75
3.82
2.91
2.27
1.98
1.89
1.75
1.37
0.76
0.07
-0.55
-1.04
-1.52
-2.17
-3.10
-4.23
-5.35
-6.19
-6.66
-6.89
-7.21
-7.98
-9.36
-11.20
-13.05
-14.36
-14.69
-13.84
-12.01
-9.62
-7.14
-4.99
-3.37
-2.29
-1.65
-1.26
-0.98
-0.72
-0.38
0.06
0.65
1.40
2.28
3.17
3.92
4.36
4.40
4.15
3.79
3.59
3.73
4.19
4.79
5.27
5.44
5.22
4.74
4.13
3.50
2.89
2.28
1.63
0.98
0.44
0.06
-0.10
-0.12
-0.10
-0.21
-0.58
-1.23
-2.13
-3.15
-4.15
-5.01
-5.66
-6.09
-6.34
-6.50
-6.68
-7.04
-7.74
-8.87
-10.31
-11.77
-12.76
-12.82
-11.75
-9.71
-7.18
-4.75
-2.86
-1.66
-1.01
-0.66
-0.36
-0.07
0.14
0.22
0.21
0.28
0.58
1.14
1.85
2.47
2.83
2.93
2.91
3.02
3.40
4.03
4.73
5.25
5.45
5.35
5.12
4.90
4.74
4.53
4.09
3.33
2.23
0.92
-0.41
-1.59
-2.49
-3.08
-3.38
-3.47
-3.48
-3.58
-3.90
-4.50
-5.32
-6.29
-7.29
-8.32
-9.44
-10.73
-12.17
-13.60
-14.74
-15.30
-15.05
-14.01
-12.40
-10.55
-8.80
-7.37
-6.27
-5.39
-4.59
-3.79
-2.96
-2.16
-1.38
-0.61
0.23
1.11
1.93
2.55
2.89
3.00
3.06
3.28
3.80
4.60
5.52
6.38
7.01
7.30
7.20
6.72
5.84
4.63
3.18
1.69
0.39
-0.53
-0.95
-0.88
-0.47
0.01
0.24
-0.04
-0.93
-2.34
-3.99
-5.58
-6.89
-7.84
-8.50
-9.00
-9.49
-10.03
-10.66
-11.42
-12.33
-13.32
-14.24
-14.75
-14.53
-13.39
-11.40
-8.89
-6.30
-3.96
-2.06
-0.57
0.64
1.72
2.76
3.79
4.78
5.68
6.44
6.99
7.30
7.40
7.42
7.46
7.60
7.85
8.12
8.39
8.64
8.93
9.25
9.52
9.55
9.19
8.39
7.28
6.13
5.21
4.68
4.49
4.45
4.29
3.81
2.92
1.66
0.16
-1.42
-2.92
-4.28
-5.55
-6.88
-8.50
-10.54
-12.95
-15.45
-17.58
-18.90
-19.10
-18.17
-16.36
-14.04
-11.54
-9.06
-6.64
-4.30
-2.11
-0.19
1.31
2.39
3.16
3.80
4.52
5.34
6.20
6.93
7.46
7.78
7.98
8.16
8.35
8.54
8.71
8.87
9.05
9.28
9.49
9.53
9.23
8.46
7.30
5.96
4.75
3.91
3.48
3.29
3.00
2.32
1.06
-0.69
-2.67
-4.55
-6.10
-7.22
-8.02
-8.78
-9.77
-11.21
-13.12
-15.28
-17.30
-18.67
-19.00
-18.11
-16.08
-13.26
-10.04
-6.84
-3.92
-1.44
0.53
1.97
2.91
3.44
3.70
3.89
4.21
4.77
5.61
6.68
7.85
9.02
10.02
10.76
11.17
11.29
11.21
11.07
10.95
10.87
10.78
10.59
10.20
9.64
8.93
8.13
7.25
6.20
4.87
3.18
1.18
-0.92
-2.89
-4.53
-5.75
-6.63
-7.39
-8.27
-9.51
-11.23
-13.40
-15.78
-18.02
-19.66
-20.36
-19.94
-18.45
-16.17
-13.44
-10.60
-7.92
-5.54
-3.47
-1.69
-0.12
1.38
2.87
4.37
5.86
7.26
8.55
9.70
10.72
11.62
12.38
12.95
13.30
13.45
13.48
13.47
13.47
13.51
13.50
13.35
13.00
12.43
11.75
11.03
10.37
9.74
9.07
8.28
7.28
6.09
4.73
3.25
1.67
0.03
-1.62
-3.27
-4.91
-6.61
-8.50
-10.70
-13.27
-16.08
-18.81
-20.99
-22.16
-22.01
-20.47
-17.76
-14.35
-10.73
-7.35
-4.47
-2.10
-0.10
1.70
3.41
5.07
6.62
7.99
9.15
10.09
10.81
11.33
11.65
11.83
11.93
12.03
12.18
12.44
12.80
13.21
13.59
13.86
13.91
13.67
13.13
12.34
11.39
10.37
9.34
8.30
7.24
6.14
5.00
3.86
2.74
1.66
0.61
-0.51
-1.88
-3.69
-6.11
-9.12
-12.52
-15.89
-18.68
-20.42
-20.76
-19.66
-17.31
-14.13
-10.60
-7.18
-4.20
-1.80
0.12
1.77
3.43
5.31
7.47
9.75
11.90
13.62
14.72
15.17
15.11
14.81
14.52
14.39
14.46
14.65
14.86
15.03
15.12
15.17
15.19
15.16
15.00
14.62
13.96
12.98
11.74
10.34
8.89
7.46
6.05
4.60
3.11
1.58
0.10
-1.28
-2.51
-3.66
-4.87
-6.28
-8.00
-10.04
-12.34
-14.74
-17.05
-19.00
-20.30
-20.70
-20.05
-18.38
-15.94
-13.09
-10.16
-7.42
-4.99
-2.82
-0.82
1.13
3.06
4.94
6.69
8.19
9.40
10.35
11.10
11.72
12.26
12.75
13.21
13.67
14.16
14.69
15.20
15.63
15.88
15.88
15.61
15.09
14.31
13.32
12.13
10.79
9.40
8.02
6.68
5.41
4.14
2.87
1.58
0.27
-1.02
-2.28
-3.50
-4.72
-5.98
-7.38
-9.06
-11.14
-13.64
-16.42
-19.18
-21.40
-22.61
-22.41
-20.74
-17.80
-14.07
-10.13
-6.51
-3.54
-1.34
0.19
1.30
2.23
3.17
4.23
5.41
6.62
7.76
8.70
9.39
9.85
10.15
10.38
10.59
10.77
10.91
10.99
11.08
11.20
11.40
11.61
11.69
11.47
10.85
9.90
8.83
7.94
7.47
7.46
7.71
7.87
7.51
6.37
4.48
2.11
-0.27
-2.35
-3.99
-5.41
-6.90
-8.72
-10.93
-13.36
-15.75
-17.83
-19.40
-20.28
-20.34
-19.41
-17.45
-14.65
-11.37
-8.12
-5.31
-3.11
-1.41
0.01
1.38
2.79
4.13
5.26
6.06
6.52
6.79
7.04
7.44
8.02
8.74
9.50
10.20
10.77
11.18
11.44
11.52
11.42
11.17
10.78
10.28
9.71
9.05
8.35
7.63
6.93
6.32
5.81
5.37
4.84
4.09
2.98
1.49
-0.26
-2.08
-3.74
-5.14
-6.26
-7.22
-8.16
-9.21
-10.37
-11.62
-12.93
-14.31
-15.74
-17.17
-18.39
-19.09
-18.96
-17.84
-15.78
-13.07
-10.10
-7.27
-4.88
-3.06
-1.76
-0.83
-0.03
0.84
1.84
2.96
4.02
4.88
5.46
5.81
6.04
6.28
6.56
6.81
7.01
7.12
7.20
7.31
7.47
7.60
7.53
7.15
6.45
5.61
4.92
4.61
4.70
4.97
5.08
4.71
3.80
2.50
1.11
-0.09
-1.04
-1.89
-2.82
-3.95
-5.22
-6.45
-7.52
-8.52
-9.65
-11.09
-12.82
-14.51
-15.67
-15.88
-15.01
-13.24
-10.96
-8.56
-6.34
-4.40
-2.73
-1.28
-0.01
1.09
1.97
2.65
3.12
3.41
3.53
3.56
3.56
3.58
3.68
3.84
4.06
4.33
4.64
4.96
5.24
5.45
5.55
5.57
5.55
5.52
5.46
5.27
4.86
4.14
3.09
1.78
0.34
-1.06
-2.30
-3.28
-3.98
-4.45
-4.82
-5.27
-6.04
-7.27
-8.93
-10.80
-12.45
-13.48
-13.59
-12.70
-10.97
-8.70
-6.24
-3.89
-1.90
-0.38
0.65
1.23
1.53
1.72
1.98
2.41
2.98
3.65
4.31
4.89
5.35
5.66
5.81
5.82
5.74
5.58
5.35
4.99
4.43
3.59
2.50
1.28
0.13
-0.71
-1.13
-1.19
-1.09
-1.12
-1.51
-2.34
-3.45
-4.62
-5.61
-6.32
-6.89
-7.58
-8.66
-10.24
-12.22
-14.20
-15.75
-16.50
-16.27
-15.12
-13.25
-10.95
-8.49
-6.15
-4.17
-2.67
-1.64
-0.90
-0.18
0.71
1.78
2.88
3.75
4.28
4.53
4.71
4.99
5.32
5.55
5.51
5.20
4.84
4.68
4.86
5.24
5.52
5.37
4.69
3.62
2.44
1.43
0.69
0.13
-0.44
-1.18
-2.11
-3.18
-4.22
-5.09
-5.77
-6.34
-6.97
-7.90
-9.32
-11.25
-13.57
-15.99
-18.07
-19.41
-19.68
-18.79
-16.88
-14.32
-11.54
-8.89
-6.59
-4.65
-3.03
-1.63
-0.36
0.80
1.90
2.97
4.02
5.01
5.93
6.71
7.33
7.76
7.98
7.94
7.67
7.25
6.88
6.74
6.95
7.40
7.86
8.03
7.73
6.94
5.89
4.88
4.13
3.71
3.47
3.20
2.67
1.78
0.54
-0.91
-2.40
-3.76
-4.92
-5.95
-6.97
-8.21
-9.84
-11.90
-14.27
-16.63
-18.51
-19.44
-19.16
-17.64
-15.21
-12.34
-9.58
-7.30
-5.63
-4.44
-3.41
-2.28
-0.84
0.84
2.58
4.11
5.28
6.05
6.59
7.08
7.69
8.53
9.55
10.67
11.74
12.61
13.12
13.19
12.84
12.19
11.47
10.87
10.47
10.24
10.00
9.60
8.98
8.17
7.28
6.40
5.57
4.76
3.95
3.09
2.13
1.03
-0.28
-1.86
-3.68
-5.62
-7.52
-9.21
-10.66
-11.94
-13.21
-14.62
-16.14
-17.58
-18.61
-18.88
-18.18
-16.54
-14.22
-11.59
-9.00
-6.67
-4.68
-3.03
-1.68
-0.58
0.34
1.12
1.85
2.64
3.54
4.60
5.77
6.99
8.17
9.21
10.07
10.69
11.09
11.32
11.45
11.54
11.61
11.62
11.51
11.22
10.70
9.97
9.12
8.26
7.46
6.75
6.07
5.36
4.56
3.64
2.62
1.47
0.18
-1.24
-2.69
-4.02
-5.10
-5.89
-6.54
-7.30
-8.47
-10.19
-12.46
-15.04
-17.57
-19.61
-20.80
-20.87
-19.77
-17.70
-15.02
-12.18
-9.59
-7.46
-5.79
-4.40
-3.11
-1.74
-0.23
1.42
3.15
4.88
6.53
7.98
9.16
10.04
10.70
11.26
11.83
12.43
13.02
13.46
13.63
13.54
13.26
12.93
12.59
12.20
11.63
10.77
9.62
8.33
7.10
6.11
5.39
4.87
4.32
3.56
2.48
1.11
-0.41
-1.91
-3.31
-4.59
-5.81
-7.08
-8.47
-9.99
-11.65
-13.41
-15.19
-16.77
-17.86
-18.08
-17.18
-15.13
-12.21
-8.89
-5.73
-3.09
-1.06
0.49
1.80
3.06
4.32
5.60
6.82
7.93
8.91
9.74
10.43
10.97
11.39
11.68
11.88
12.00
12.06
12.11
12.16
12.19
12.15
11.95
11.49
10.78
9.85
8.82
7.80
6.88
6.08
5.40
4.81
4.30
3.81
3.23
2.48
1.46
0.14
-1.43
-3.14
-4.84
-6.41
-7.76
-8.90
-9.88
-10.82
-11.92
-13.30
-15.01
-16.92
-18.72
-19.95
-20.23
-19.34
-17.34
-14.64
-11.73
-9.13
-7.11
-5.65
-4.51
-3.37
-2.05
-0.53
1.06
2.53
3.75
4.74
5.63
6.54
7.51
8.52
9.46
10.22
10.77
11.13
11.39
11.61
11.81
11.97
12.08
12.08
11.90
11.45
10.65
9.49
8.03
6.45
4.96
3.70
2.74
2.00
1.37
0.73
0.00
-0.84
-1.79
-2.84
-4.01
-5.28
-6.66
-8.12
-9.73
-11.54
-13.58
-15.76
-17.84
-19.46
-20.21
-19.83
-18.28
-15.80
-12.84
-9.87
-7.25
-5.13
-3.45
-2.06
-0.80
0.44
1.70
2.97
4.19
5.29
6.23
6.99
7.62
8.16
8.68
9.24
9.81
10.37
10.87
11.32
11.72
12.08
12.32
12.35
12.11
11.54
10.75
9.89
9.13
8.56
8.20
7.93
7.61
7.09
6.25
5.06
3.57
1.94
0.29
-1.19
-2.47
-3.57
-4.57
-5.61
-6.74
-8.03
-9.49
-11.14
-12.93
-14.77
-16.40
-17.47
-17.68
-16.83
-15.00
-12.49
-9.71
-7.05
-4.80
-3.01
-1.65
-0.55
0.44
1.42
2.44
3.46
4.40
5.17
5.74
6.16
6.49
6.88
7.36
7.93
8.48
8.90
9.13
9.15
9.03
8.82
8.57
8.23
7.79
7.23
6.55
5.87
5.28
4.90
4.76
4.81
4.93
4.95
4.71
4.13
3.19
1.97
0.62
-0.68
-1.79
-2.65
-3.35
-4.12
-5.21
-6.85
-9.07
-11.67
-14.22
-16.22
-17.21
-16.97
-15.54
-13.20
-10.37
-7.51
-4.98
-3.01
-1.64
-0.77
-0.17
0.39
1.15
2.19
3.44
4.70
5.74
6.38
6.57
6.47
6.32
6.34
6.63
7.14
7.69
8.10
8.34
8.45
8.56
8.72
8.82
8.70
8.16
7.18
5.91
4.62
3.56
2.86
2.44
2.07
1.51
0.54
-0.85
-2.57
-4.39
-6.08
-7.42
-8.35
-8.92
-9.27
-9.56
-9.93
-10.43
-11.13
-12.04
-13.17
-14.41
-15.50
-16.09
-15.84
-14.59
-12.40
-9.60
-6.61
-3.86
-1.61
0.04
1.15
1.88
2.44
2.98
3.57
4.21
4.83
5.39
5.93
6.50
7.18
7.92
8.59
9.03
9.21
9.25
9.34
9.65
10.10
10.44
10.34
9.58
8.22
6.52
4.84
3.42
2.31
1.47
0.81
0.34
0.08
0.02
0.04
-0.09
-0.59
-1.56
-2.92
-4.43
-5.87
-7.07
-8.00
-8.76
-9.51
-10.42
-11.58
-12.93
-14.25
-15.16
-15.31
-14.46
-12.63
-10.10
-7.27
-4.58
-2.32
-0.63
0.53
1.30
1.88
2.45
3.17
4.07
5.12
6.18
7.13
7.89
8.40
8.66
8.68
8.47
8.09
7.64
7.25
7.02
7.00
7.10
7.18
7.04
6.55
5.69
4.51
3.15
1.75
0.40
-0.84
-1.97
-3.01
-4.04
-5.07
-6.13
-7.17
-8.13
-8.88
-9.35
-9.55
-9.60
-9.73
-10.19
-11.13
-12.58
-14.34
-16.02
-17.17
-17.39
-16.47
-14.45
-11.65
-8.54
-5.57
-3.05
-1.05
0.56
1.94
3.23
4.41
5.43
6.24
6.89
7.49
8.16
8.96
9.81
10.61
11.26
11.72
12.05
12.34
12.60
12.83
12.93
12.81
12.47
11.93
11.29
10.68
10.17
9.74
9.30
8.70
7.79
6.58
5.13
3.60
2.12
0.77
-0.48
-1.61
-2.64
-3.54
-4.28
-4.93
-5.66
-6.66
-8.14
-10.09
-12.34
-14.51
-16.13
-16.84
-16.42
-14.93
-12.67
-10.11
-7.68
-5.71
-4.29
-3.31
-2.57
-1.88
-1.14
-0.30
0.57
1.45
2.32
3.21
4.18
5.21
6.24
7.14
7.74
7.95
7.79
7.43
7.12
7.07
7.35
7.89
8.44
8.78
8.78
8.41
7.77
7.02
6.32
5.77
5.43
5.25
5.09
4.76
4.11
3.09
1.82
0.56
-0.46
-1.11
-1.51
-1.94
-2.71
-4.05
-6.01
-8.42
-10.95
-13.19
-14.72
-15.23
-14.59
-12.90
-10.53
-7.93
-5.49
-3.42
-1.71
-0.23
1.06
2.13
2.84
3.15
3.20
3.32
3.81
4.78
6.04
7.22
7.96
8.18
8.08
8.04
8.33
8.97
9.70
10.20
10.25
9.89
9.37
8.91
8.62
8.36
7.93
7.18
6.14
5.01
4.03
3.34
2.85
2.39
1.73
0.76
-0.49
-1.90
-3.31
-4.61
-5.72
-6.63
-7.36
-8.04
-8.83
-9.86
-11.18
-12.66
-14.01
-14.87
-14.96
-14.18
-12.64
-10.62
-8.40
-6.24
-4.29
-2.61
-1.17
0.08
1.21
2.33
3.46
4.56
5.52
6.21
6.53
6.54
6.38
6.27
6.37
6.71
7.20
7.66
7.97
8.09
8.04
7.93
7.83
7.75
7.62
7.39
6.99
6.43
5.74
4.93
4.06
3.17
2.31
1.57
0.98
0.57
0.25
-0.10
-0.56
-1.14
-1.72
-2.19
-2.48
-2.62
-2.78
-3.17
-3.92
-5.13
-6.78
-8.77
-10.95
-13.04
-14.74
-15.65
-15.53
-14.30
-12.17
-9.54
-6.91
-4.64
-2.90
-1.67
-0.77
-0.04
0.65
1.38
2.13
2.88
3.60
4.27
4.82
5.24
5.48
5.54
5.46
5.32
5.17
5.08
5.05
5.07
5.06
4.97
4.76
4.43
4.05
3.75
3.61
3.71
4.01
4.41
4.77
4.94
4.84
4.43
3.71
2.75
1.62
0.47
-0.55
-1.27
-1.63
-1.68
-1.62
-1.72
-2.17
-3.09
-4.42
-6.04
-7.78
-9.48
-10.99
-12.13
-12.73
-12.61
-11.67
-9.94
-7.62
-5.05
-2.63
-0.68
0.63
1.33
1.61
1.73
1.95
2.40
3.13
4.00
4.86
5.57
6.05
6.34
6.50
6.63
6.74
6.77
6.69
6.54
6.39
6.35
6.41
6.48
6.35
5.89
5.05
3.98
2.92
2.06
1.52
1.21
0.96
0.54
-0.14
-1.11
-2.21
-3.25
-4.04
-4.52
-4.81
-5.11
-5.64
-6.52
-7.70
-8.96
-10.02
-10.64
-10.70
-10.14
-8.99
-7.33
-5.32
-3.17
-1.24
0.20
0.98
1.19
1.08
1.01
1.19
1.65
2.26
2.84
3.31
3.78
4.42
5.32
6.37
7.25
7.62
7.26
6.22
4.80
3.41
2.37
1.80
1.63
1.64
1.68
1.64
1.53
1.38
1.16
0.78
0.18
-0.67
-1.68
-2.73
-3.73
-4.63
-5.50
-6.41
-7.40
-8.40
-9.30
-9.92
-10.15
-9.95
-9.34
-8.41
-7.30
-6.09
-4.89
-3.76
-2.70
-1.73
-0.84
-0.05
0.66
1.26
1.74
2.13
2.47
2.82
3.26
3.83
4.52
5.24
5.86
6.24
6.31
6.10
5.72
5.29
4.93
4.63
4.33
3.88
3.16
2.14
0.92
-0.31
-1.35
-2.12
-2.72
-3.37
-4.32
-5.66
-7.35
-9.18
-10.93
-12.47
-13.73
-14.66
-15.13
-14.99
-14.11
-12.49
-10.42
-8.30
-6.53
-5.28
-4.43
-3.66
-2.65
-1.25
0.47
2.23
3.74
4.86
5.60
6.08
6.46
6.78
7.02
7.15
7.23
7.37
7.69
8.24
8.94
9.55
9.78
9.42
8.38
6.80
4.98
3.31
2.10
1.46
1.29
1.32
1.21
0.72
-0.22
-1.52
-3.01
-4.56
-6.10
-7.64
-9.18
-10.73
-12.23
-13.64
-14.94
-16.06
-16.92
-17.31
-17.04
-15.93
-14.05
-11.63
-9.12
-6.93
-5.32
-4.27
-3.52
-2.74
-1.70
-0.36
1.11
2.50
3.62
4.40
4.92
5.36
5.87
6.56
7.36
8.08
8.51
8.51
8.14
7.63
7.24
7.13
7.22
7.25
6.92
6.10
4.94
3.75
2.82
2.26
1.91
1.47
0.70
-0.43
-1.77
-3.09
-4.20
-5.04
-5.71
-6.30
-6.89
-7.50
-8.13
-8.80
-9.58
-10.53
-11.67
-12.84
-13.72
-13.94
-13.24
-11.65
-9.48
-7.20
-5.24
-3.74
-2.56
-1.40
0.01
1.74
3.59
5.30
6.70
7.78
8.72
9.70
10.80
11.89
12.79
13.29
13.36
13.08
12.69
12.43
12.46
12.81
13.36
13.93
14.33
14.37
14.00
13.23
12.20
11.07
9.99
9.04
8.23
7.48
6.66
5.70
4.55
3.25
1.86
0.49
-0.79
-1.93
-2.97
-4.05
-5.41
-7.26
-9.70
-12.59
-15.55
-18.04
-19.53
-19.75
-18.72
-16.74
-14.24
-11.61
-9.14
-6.93
-4.98
-3.26
-1.71
-0.31
0.97
2.16
3.30
4.38
5.35
6.20
6.85
7.33
7.65
7.85
7.94
7.89
7.64
7.18
6.59
6.01
5.66
5.64
5.87
6.18
6.27
6.00
5.36
4.57
3.87
3.52
3.54
3.80
4.02
3.96
3.49
2.64
1.55
0.34
-0.86
-2.06
-3.28
-4.54
-5.87
-7.26
-8.74
-10.34
-11.99
-13.52
-14.60
-14.93
-14.29
-12.76
-10.60
-8.21
-5.89
-3.81
-1.92
-0.17
1.46
2.89
3.97
4.64
4.96
5.12
5.36
5.83
6.59
7.54
8.55
9.42
9.99
10.21
10.17
10.06
10.12
10.55
11.31
12.20
12.86
13.00
12.46
11.34
9.90
8.41
7.12
6.06
5.17
4.33
3.44
2.45
1.38
0.27
-0.82
-1.78
-2.57
-3.22
-3.78
-4.38
-5.17
-6.27
-7.74
-9.58
-11.63
-13.61
-15.12
-15.73
-15.17
-13.40
-10.76
-7.78
-5.04
-2.92
-1.48
-0.49
0.36
1.27
2.27
3.26
4.15
4.97
5.82
6.79
7.86
8.86
9.58
9.94
10.01
9.99
10.12
10.43
10.83
11.07
10.95
10.41
9.58
8.66
7.85
7.23
6.76
6.33
5.83
5.22
4.55
3.92
3.41
3.08
2.83
2.50
1.89
0.87
-0.54
-2.18
-3.78
-5.14
-6.18
-6.96
-7.63
-8.37
-9.24
-10.27
-11.42
-12.64
-13.89
-15.04
-15.90
-16.15
-15.52
-13.86
-11.34
-8.39
-5.57
-3.37
-2.02
-1.44
-1.30
-1.20
-0.88
-0.29
0.45
1.17
1.70
2.01
2.17
2.26
2.35
2.49
2.68
2.98
3.43
4.08
4.93
5.86
6.63
6.96
6.67
5.77
4.49
3.25
2.37
1.98
1.97
2.01
1.80
1.20
0.29
-0.73
-1.64
-2.41
-3.10
-3.89
-4.97
-6.36
-7.97
-9.60
-10.95
-11.76
-11.80
-11.01
-9.51
-7.57
-5.49
-3.50
-1.72
-0.11
1.38
2.76
3.96
4.88
5.50
5.91
6.30
6.80
7.47
8.16
8.70
8.94
8.84
8.51
8.12
7.81
7.61
7.50
7.45
7.40
7.34
7.21
6.96
6.55
5.94
5.12
4.14
3.06
1.92
0.79
-0.27
-1.22
-2.08
-2.90
-3.82
-4.89
-6.07
-7.23
-8.18
-8.85
-9.32
-9.81
-10.47
-11.28
-11.94
-12.04
-11.22
-9.48
-7.12
-4.65
-2.54
-1.03
-0.08
0.51
0.97
1.41
1.84
2.24
2.59
2.93
3.30
3.75
4.27
4.85
5.44
5.94
6.26
6.29
6.01
5.50
4.90
4.38
4.04
3.88
3.82
3.77
3.70
3.62
3.57
3.51
3.32
2.84
1.96
0.70
-0.79
-2.21
-3.31
-3.97
-4.25
-4.40
-4.79
-5.79
-7.50
-9.75
-12.09
-13.86
-14.50
-13.76
-11.74
-8.91
-5.86
-3.13
-1.04
0.35
1.12
1.48
1.65
1.80
2.07
2.52
3.12
3.77
4.36
4.81
5.08
5.17
5.12
4.97
4.80
4.73
4.90
5.36
6.01
6.57
6.73
6.26
5.21
3.86
2.59
1.69
1.19
0.96
0.77
0.48
0.04
-0.47
-1.03
-1.61
-2.31
-3.17
-4.21
-5.40
-6.76
-8.33
-10.13
-12.09
-14.00
-15.51
-16.24
-15.93
-14.57
-12.37
-9.75
-7.13
-4.88
-3.22
-2.15
-1.53
-1.15
-0.76
-0.21
0.59
1.56
2.55
3.44
4.14
4.68
5.13
5.60
6.12
6.61
6.96
7.07
6.93
6.60
6.22
5.86
5.56
5.26
4.88
4.36
3.68
2.84
1.88
0.84
-0.25
-1.30
-2.23
-2.94
-3.42
-3.77
-4.15
-4.75
-5.64
-6.75
-7.92
-8.95
-9.63
-9.79
-9.32
-8.19
-6.51
-4.48
-2.45
-0.71
0.57
1.43
2.06
2.67
3.38
4.11
4.73
5.06
5.09
4.89
4.61
4.41
4.39
4.56
4.82
5.08
5.19
5.09
4.77
4.29
3.77
3.28
2.86
2.48
2.09
1.60
0.97
0.20
-0.67
-1.57
-2.42
-3.18
-3.83
-4.46
-5.20
-6.19
-7.53
-9.14
-10.81
-12.22
-13.00
-12.93
-11.97
-10.31
-8.33
-6.40
-4.80
-3.59
-2.65
-1.80
-0.90
0.09
1.13
2.19
3.28
4.45
5.71
6.92
7.89
8.39
8.31
7.75
6.97
6.29
5.92
5.92
6.17
6.41
6.43
6.10
5.47
4.66
3.82
3.00
2.16
1.23
0.14
-1.02
-2.14
-3.10
-3.83
-4.43
-5.03
-5.77
-6.72
-7.93
-9.34
-10.87
-12.36
-13.55
-14.13
-13.86
-12.67
-10.71
-8.36
-6.04
-4.08
-2.59
-1.50
-0.66
0.14
0.98
1.88
2.80
3.65
4.39
5.03
5.62
6.22
6.86
7.53
8.15
8.62
8.88
8.86
8.59
8.15
7.67
7.29
7.05
6.90
6.68
6.19
5.35
4.22
3.00
1.92
1.15
0.64
0.18
-0.46
-1.46
-2.82
-4.41
-6.08
-7.70
-9.28
-10.87
-12.53
-14.27
-15.97
-17.42
-18.33
-18.42
-17.55
-15.78
-13.37
-10.72
-8.22
-6.11
-4.41
-3.02
-1.75
-0.49
0.74
1.89
2.96
3.98
5.04
6.16
7.28
8.28
9.04
9.56
9.96
10.43
11.11
11.98
12.84
13.44
13.57
13.18
12.38
11.34
10.22
9.16
8.18
7.33
6.65
6.13
5.74
5.36
4.78
3.88
2.59
1.03
-0.60
-2.08
-3.22
-3.98
-4.39
-4.67
-5.08
-5.91
-7.33
-9.40
-11.93
-14.55
-16.79
-18.14
-18.30
-17.23
-15.14
-12.48
-9.72
-7.24
-5.29
-3.87
-2.89
-2.20
-1.62
-1.00
-0.20
0.88
2.25
3.83
5.45
6.92
8.13
9.06
9.82
10.51
11.19
11.85
12.37
12.66
12.68
12.47
12.11
11.71
11.25
10.73
10.10
9.37
8.59
7.83
7.19
6.70
6.33
5.95
5.38
4.44
3.08
1.39
-0.44
-2.18
-3.66
-4.85
-5.86
-6.86
-8.04
-9.53
-11.39
-13.53
-15.75
-17.72
-19.03
-19.32
-18.44
-16.49
-13.78
-10.73
-7.69
-4.86
-2.26
0.08
2.14
3.88
5.25
6.27
7.05
7.69
8.26
8.77
9.18
9.53
9.90
10.38
11.00
11.65
12.12
12.27
12.06
11.66
11.30
11.17
11.28
11.47
11.55
11.36
10.89
10.24
9.46
8.60
7.63
6.52
5.27
3.99
2.76
1.64
0.63
-0.37
-1.49
-2.82
-4.42
-6.27
-8.34
-10.57
-12.93
-15.36
-17.72
-19.80
-21.31
-21.92
-21.42
-19.75
-17.08
-13.80
-10.42
-7.39
-4.97
-3.20
-1.88
-0.69
0.59
2.03
3.53
4.88
5.93
6.69
7.27
7.82
8.40
9.02
9.68
10.38
11.14
11.97
12.78
13.42
13.71
13.57
13.06
12.34
11.55
10.74
9.82
8.70
7.36
5.95
4.64
3.60
2.82
2.16
1.43
0.49
-0.67
-1.95
-3.24
-4.47
-5.67
-6.99
-8.53
-10.40
-12.60
-15.02
-17.53
-19.92
-21.94
-23.27
-23.65
-22.88
-20.98
-18.19
-14.93
-11.71
-8.91
-6.66
-4.84
-3.21
-1.54
0.22
1.95
3.47
4.63
5.50
6.23
7.04
8.05
9.23
10.41
11.42
12.16
12.67
13.06
13.42
13.77
14.08
14.28
14.31
14.17
13.87
13.36
12.61
11.53
10.11
8.45
6.74
5.18
3.90
2.87
1.99
1.08
0.03
-1.23
-2.63
-4.09
-5.51
-6.83
-8.11
-9.47
-11.03
-12.92
-15.12
-17.45
-19.63
-21.27
-22.02
-21.67
-20.18
-17.72
-14.62
-11.31
-8.19
-5.54
-3.49
-1.97
-0.81
0.21
1.24
2.37
3.63
4.97
6.32
7.56
8.55
9.21
9.55
9.71
9.89
10.27
10.89
11.62
12.25
12.54
12.35
11.69
10.64
9.38
8.11
6.99
6.16
5.67
5.47
5.40
5.21
4.75
3.92
2.78
1.41
-0.07
-1.60
-3.17
-4.79
-6.44
-8.11
-9.77
-11.46
-13.21
-15.06
-16.93
-18.57
-19.55
-19.47
-18.10
-15.52
-12.12
-8.48
-5.09
-2.16
0.30
2.49
4.53
6.41
7.97
9.02
9.50
9.53
9.40
9.39
9.72
10.44
11.45
12.54
13.54
14.30
14.79
15.04
15.07
14.87
14.41
13.68
12.72
11.64
10.54
9.43
8.24
6.88
5.29
3.50
1.65
-0.13
-1.79
-3.32
-4.77
-6.14
-7.45
-8.74
-10.13
-11.83
-13.94
-16.38
-18.83
-20.74
-21.55
-20.93
-18.88
-15.76
-12.13
-8.57
-5.50
-3.08
-1.28
0.07
1.23
2.37
3.60
4.93
6.30
7.61
8.78
9.74
10.48
11.04
11.44
11.75
12.04
12.33
12.62
12.89
13.09
13.14
13.01
12.65
12.05
11.23
10.25
9.19
8.15
7.16
6.21
5.21
4.03
2.65
1.09
-0.53
-2.08
-3.47
-4.76
-6.14
-7.73
-9.68
-11.97
-14.52
-17.15
-19.59
-21.55
-22.66
-22.66
-21.42
-19.07
-15.99
-12.68
-9.62
-7.05
-5.00
-3.31
-1.78
-0.27
1.22
2.66
3.96
5.11
6.18
7.26
8.42
9.65
10.89
12.04
12.98
13.65
14.05
14.24
14.34
14.44
14.56
14.66
14.59
14.21
13.41
12.21
10.72
9.10
7.48
5.92
4.43
3.03
1.74
0.58
-0.50
-1.54
-2.64
-3.82
-5.04
-6.24
-7.41
-8.62
-10.06
-11.87
-14.15
-16.81
-19.60
-22.12
-23.91
-24.54
-23.72
-21.45
-18.08
-14.22
-10.53
-7.54
-5.39
-3.86
-2.54
-1.00
0.94
3.20
5.53
7.65
9.37
10.63
11.46
11.95
12.17
12.24
12.29
12.44
12.78
13.30
13.88
14.31
14.36
13.93
13.06
11.93
10.82
9.90
9.28
8.86
8.50
8.06
7.46
6.69
5.77
4.68
3.39
1.89
0.21
-1.50
-3.05
-4.31
-5.27
-6.09
-6.97
-8.10
-9.55
-11.30
-13.25
-15.33
-17.38
-19.18
-20.46
-20.95
-20.44
-18.91
-16.54
-13.61
-10.46
-7.38
-4.58
-2.19
-0.27
1.23
2.41
3.38
4.28
5.18
6.08
7.00
7.98
9.03
10.19
11.45
12.74
13.96
15.00
15.76
16.15
16.14
15.74
14.98
13.88
12.47
10.80
8.98
7.15
5.52
4.26
3.47
3.11
3.02
2.96
2.68
1.99
0.81
-0.82
-2.72
-4.65
-6.37
-7.73
-8.75
-9.60
-10.57
-11.91
-13.72
-15.91
-18.17
-20.05
-21.05
-20.81
-19.22
-16.44
-12.89
-9.08
-5.51
-2.48
-0.13
1.55
2.72
3.52
4.16
4.80
5.58
6.53
7.55
8.42
8.97
9.12
9.00
8.87
8.96
9.36
9.98
10.60
11.04
11.23
11.22
11.13
11.03
10.85
10.50
9.89
9.04
8.07
7.12
6.27
5.49
4.67
3.71
2.57
1.29
-0.00
-1.21
-2.32
-3.36
-4.44
-5.65
-7.03
-8.58
-10.31
-12.17
-14.12
-16.01
-17.59
-18.54
-18.59
-17.58
-15.59
-12.91
-9.98
-7.20
-4.89
-3.18
-2.02
-1.24
-0.63
-0.01
0.74
1.61
2.49
3.26
3.84
4.25
4.58
4.95
5.42
5.97
6.55
7.07
7.48
7.75
7.86
7.82
7.65
7.38
7.08
6.77
6.47
6.10
5.62
5.03
4.34
3.59
2.78
1.86
0.75
-0.57
-2.03
-3.50
-4.88
-6.17
-7.50
-8.99
-10.68
-12.39
-13.75
-14.33
-13.85
-12.27
-9.89
-7.19
-4.70
-2.78
-1.52
-0.72
-0.02
0.89
2.21
3.81
5.40
6.62
7.21
7.16
6.65
5.94
5.31
4.87
4.64
4.62
4.77
5.09
5.51
5.96
6.28
6.31
5.96
5.22
4.21
3.11
2.10
1.27
0.60
0.01
-0.67
-1.54
-2.65
-3.93
-5.23
-6.44
-7.51
-8.49
-9.53
-10.75
-12.18
-13.67
-14.91
-15.53
-15.23
-13.92
-11.80
-9.28
-6.82
-4.79
-3.30
-2.22
-1.32
-0.37
0.72
1.90
3.04
4.02
4.79
5.37
5.81
6.13
6.30
6.29
6.07
5.71
5.35
5.15
5.21
5.54
5.98
6.30
6.33
5.95
5.19
4.17
3.03
1.91
0.88
-0.03
-0.87
-1.72
-2.68
-3.82
-5.16
-6.63
-8.16
-9.65
-11.09
-12.51
-13.94
-15.32
-16.46
-17.12
-17.09
-16.26
-14.74
-12.77
-10.63
-8.56
-6.69
-5.03
-3.54
-2.17
-0.89
0.31
1.41
2.40
3.22
3.83
4.26
4.57
4.91
5.39
6.02
6.71
7.29
7.57
7.50
7.15
6.72
6.39
6.21
6.09
5.86
5.41
4.80
4.21
3.87
3.89
4.15
4.39
4.29
3.61
2.33
0.61
-1.29
-3.12
-4.64
-5.75
-6.45
-6.88
-7.35
-8.21
-9.72
-11.90
-14.47
-16.93
-18.72
-19.45
-18.98
-17.43
-15.09
-12.32
-9.45
-6.75
-4.42
-2.57
-1.18
-0.11
0.87
1.96
3.21
4.52
5.64
6.34
6.55
6.39
6.13
6.05
6.31
6.91
7.67
8.41
8.96
9.28
9.45
9.57
9.67
9.70
9.54
9.11
8.46
7.75
7.20
6.92
6.83
6.67
6.11
4.95
3.22
1.23
-0.65
-2.14
-3.17
-3.84
-4.36
-4.86
-5.46
-6.20
-7.11
-8.29
-9.82
-11.75
-14.01
-16.30
-18.21
-19.24
-19.05
-17.54
-14.99
-11.87
-8.80
-6.25
-4.38
-3.14
-2.26
-1.45
-0.49
0.68
2.04
3.49
4.91
6.22
7.34
8.24
8.90
9.33
9.50
9.47
9.29
9.10
9.03
9.15
9.43
9.74
9.93
9.85
9.51
8.96
8.30
7.64
6.96
6.23
5.39
4.43
3.40
2.37
1.46
0.69
0.04
-0.58
-1.30
-2.14
-3.09
-4.07
-5.00
-5.91
-6.87
-8.00
-9.39
-11.08
-13.04
-15.17
-17.27
-19.12
-20.39
-20.83
-20.28
-18.87
-16.87
-14.66
-12.57
-10.71
-9.03
-7.38
-5.63
-3.73
-1.69
0.42
2.55
4.59
6.45
7.97
9.10
9.84
10.29
10.59
10.83
11.06
11.22
11.29
11.26
11.15
10.98
10.75
10.46
10.08
9.65
9.22
8.85
8.54
8.28
7.95
7.47
6.75
5.76
4.53
3.13
1.67
0.27
-0.98
-2.08
-3.08
-4.13
-5.39
-6.96
-8.89
-11.07
-13.30
-15.29
-16.75
-17.44
-17.22
-16.13
-14.32
-12.06
-9.65
-7.34
-5.30
-3.59
-2.21
-1.06
-0.04
0.92
1.93
3.01
4.10
5.15
6.08
6.87
7.60
8.37
9.22
10.14
11.06
11.82
12.34
12.59
12.59
12.31
11.75
10.88
9.76
8.49
7.21
6.05
5.09
4.32
3.67
3.07
2.47
1.79
0.95
-0.09
-1.35
-2.72
-4.02
-5.06
-5.77
-6.27
-6.82
-7.74
-9.21
-11.20
-13.50
-15.78
-17.74
-19.18
-19.98
-20.02
-19.23
-17.61
-15.30
-12.62
-9.98
-7.74
-6.05
-4.85
-3.86
-2.81
-1.56
-0.13
1.35
2.70
3.82
4.71
5.43
6.05
6.63
7.14
7.60
7.99
8.40
8.90
9.51
10.16
10.71
10.96
10.81
10.28
9.54
8.80
8.24
7.94
7.81
7.69
7.41
6.84
5.91
4.69
3.29
1.89
0.66
-0.32
-1.07
-1.74
-2.52
-3.66
-5.33
-7.61
-10.40
-13.41
-16.13
-17.96
-18.38
-17.15
-14.42
-10.74
-6.86
-3.49
-1.06
0.41
1.19
1.67
2.14
2.73
3.43
4.11
4.70
5.16
5.53
5.86
6.21
6.61
7.10
7.65
8.26
8.86
9.37
9.68
9.68
9.30
8.59
7.65
6.66
5.76
5.00
4.33
3.64
2.81
1.82
0.76
-0.27
-1.12
-1.73
-2.05
-2.14
-2.06
-1.96
-1.99
-2.27
-2.80
-3.37
-3.67
-3.36
-2.25
-0.36
2.10
4.88
7.73
10.42
12.77
14.60
15.70
16.00
15.56
14.62
13.52
12.59
11.98
11.70
11.62
11.59
11.54
11.42
11.20
10.83
10.30
9.59
8.79
7.96
7.12
6.20
5.06
3.62
1.93
0.15
-1.50
-2.84
-3.89
-4.85
-5.91
-7.23
-8.77
-10.38
-11.88
-13.18
-14.30
-15.31
-16.21
-16.87
-17.01
-16.38
-14.92
-12.77
-10.27
-7.75
-5.41
-3.33
-1.49
0.07
1.26
2.00
2.38
2.62
3.03
3.81
4.95
6.19
7.19
7.74
7.85
7.63
7.24
6.71
5.92
4.80
3.41
1.97
0.76
-0.13
-0.81
-1.52
-2.53
-3.89
-5.42
-6.89
-8.15
-9.29
-10.57
-12.25
-14.44
-16.98
-19.55
-21.74
-23.18
-23.66
-23.13
-21.67
-19.48
-16.92
-14.40
-12.29
-10.84
-10.01
-9.53
-8.97
-7.94
-6.29
-4.22
-2.20
-0.75
-0.16
-0.40
-1.11
-1.80
-2.10
-1.93
-1.41
-0.82
-0.38
-0.21
-0.36
-0.85
-1.75
-3.11
-4.92
-7.03
-9.11
-10.88
-12.05
-12.55
-12.44
-11.94
-11.35
-11.03
-11.24
-12.06
-13.39
-14.84
-15.93
-16.14
-15.19
-13.10
-10.16
-6.84
-3.57
-0.66
1.79
3.83
5.57
7.10
8.47
9.70
10.78
11.72
12.56
13.33
14.01
14.60
15.07
15.40
15.64
15.86
16.14
16.48
16.79
16.91
16.71
16.09
15.08
13.83
12.47
11.10
9.78
8.55
7.44
6.47
5.63
4.83
3.91
2.68
1.01
-1.14
-3.68
-6.42
-9.10
-11.39
-12.90
-13.29
-12.38
-10.28
-7.37
-4.20
-1.27
1.15
3.07
4.69
6.22
7.78
9.39
10.98
12.49
13.86
15.07
16.06
16.80
17.26
17.46
17.50
17.48
17.46
17.44
17.39
17.26
17.02
16.62
16.04
15.24
14.23
13.04
11.75
10.42
9.12
7.90
6.78
5.77
4.84
3.96
3.06
2.04
0.84
-0.60
-2.28
-4.18
-6.28
-8.49
-10.67
-12.56
-13.80
-14.09
-13.26
-11.42
-8.94
-6.34
-4.07
-2.37
-1.18
-0.24
0.70
1.79
2.96
4.08
4.99
5.68
6.26
6.86
7.55
8.29
8.88
9.17
9.13
8.85
8.56
8.42
8.51
8.72
8.87
8.79
8.34
7.56
6.53
5.42
4.34
3.41
2.62
1.93
1.24
0.46
-0.46
-1.46
-2.46
-3.38
-4.21
-5.08
-6.18
-7.65
-9.48
-11.45
-13.14
-14.08
-13.97
-12.72
-10.54
-7.79
-4.90
-2.20
0.06
1.78
2.98
3.72
4.14
4.39
4.59
4.82
5.09
5.35
5.49
5.48
5.36
5.22
5.16
5.22
5.39
5.61
5.77
5.87
5.85
5.64
5.22
4.57
3.80
3.09
2.66
2.62
2.92
3.29
3.43
3.15
2.43
1.43
0.36
-0.63
-1.52
-2.37
-3.28
-4.34
-5.60
-7.05
-8.62
-10.18
-11.48
-12.24
-12.23
-11.35
-9.72
-7.64
-5.52
-3.71
-2.38
-1.52
-0.93
-0.31
0.57
1.83
3.37
4.89
6.04
6.54
6.31
5.51
4.51
3.67
3.26
3.32
3.68
4.16
4.55
4.79
4.84
4.71
4.34
3.74
2.93
2.05
1.31
0.86
0.73
0.81
0.83
0.56
-0.18
-1.31
-2.63
-3.81
-4.63
-5.06
-5.34
-5.80
-6.71
-8.12
-9.75
-11.12
-11.74
-11.37
-10.07
-8.18
-6.15
-4.34
-2.95
-2.00
-1.41
-1.10
-0.97
-0.95
-0.94
-0.84
-0.57
-0.11
0.46
1.05
1.54
1.91
2.18
2.41
2.63
2.82
2.91
2.83
2.55
2.12
1.61
1.15
0.78
0.52
0.29
-0.03
-0.58
-1.42
-2.57
-3.88
-5.10
-5.98
-6.35
-6.26
-5.97
-5.85
-6.23
-7.22
-8.62
-10.00
-10.88
-10.93
-10.07
-8.52
-6.65
-4.81
-3.23
-1.95
-0.95
-0.17
0.38
0.69
0.76
0.62
0.38
0.15
0.06
0.16
0.39
0.67
0.90
0.99
0.96
0.91
1.01
1.40
2.15
3.16
4.21
5.00
5.32
5.05
4.26
3.14
1.92
0.74
-0.32
-1.32
-2.36
-3.49
-4.66
-5.72
-6.57
-7.21
-7.78
-8.53
-9.65
-11.19
-12.94
-14.56
-15.67
-15.98
-15.38
-13.88
-11.66
-9.02
-6.31
-3.92
-2.11
-0.99
-0.44
-0.21
-0.04
0.28
0.79
1.43
2.13
2.80
3.41
3.93
4.36
4.67
4.83
4.82
4.66
4.43
4.23
4.13
4.17
4.27
4.26
4.02
3.51
2.81
2.10
1.52
1.10
0.74
0.26
-0.46
-1.41
-2.43
-3.36
-4.08
-4.61
-5.07
-5.64
-6.48
-7.68
-9.22
-11.01
-12.84
-14.40
-15.36
-15.43
-14.48
-12.60
-10.12
-7.45
-5.00
-3.02
-1.59
-0.62
-0.03
0.31
0.47
0.57
0.74
1.07
1.60
2.25
2.89
3.45
3.93
4.45
5.07
5.75
6.31
6.55
6.37
5.83
5.11
4.38
3.71
2.98
2.04
0.83
-0.52
-1.78
-2.71
-3.25
-3.58
-4.00
-4.73
-5.79
-6.97
-7.97
-8.61
-8.96
-9.33
-10.07
-11.35
-13.06
-14.79
-16.07
-16.51
-15.99
-14.65
-12.68
-10.37
-7.90
-5.46
-3.26
-1.49
-0.27
0.42
0.78
1.11
1.65
2.52
3.63
4.83
5.91
6.76
7.37
7.77
8.04
8.22
8.32
8.33
8.19
7.86
7.33
6.63
5.83
5.04
4.31
3.65
2.97
2.18
1.17
-0.07
-1.46
-2.87
-4.17
-5.27
-6.24
-7.23
-8.45
-10.08
-12.16
-14.56
-17.00
-19.04
-20.28
-20.44
-19.44
-17.39
-14.58
-11.38
-8.21
-5.42
-3.19
-1.60
-0.52
0.26
1.03
1.99
3.22
4.68
6.23
7.70
8.95
9.97
10.73
11.24
11.52
11.59
11.51
11.36
11.26
11.24
11.28
11.30
11.19
10.88
10.38
9.72
8.92
7.90
6.56
4.81
2.70
0.43
-1.72
-3.55
-5.02
-6.25
-7.46
-8.87
-10.58
-12.64
-15.06
-17.81
-20.77
-23.63
-25.90
-27.04
-26.67
-24.76
-21.62
-17.78
-13.80
-10.05
-6.69
-3.76
-1.21
1.00
2.92
4.59
6.08
7.42
8.65
9.76
10.75
11.64
12.46
13.22
13.93
14.54
14.94
15.08
14.94
14.61
14.21
13.87
13.67
13.55
13.40
13.12
12.69
12.15
11.59
11.01
10.31
9.33
7.93
6.10
3.97
1.69
-0.56
-2.68
-4.56
-6.13
-7.39
-8.51
-9.82
-11.78
-14.63
-18.26
-22.04
-25.06
-26.49
-25.89
-23.42
-19.68
-15.47
-11.41
-7.86
-4.86
-2.33
-0.11
1.95
3.92
5.89
7.89
9.90
11.81
13.47
14.70
15.41
15.61
15.44
15.13
14.96
15.12
15.75
16.78
18.03
19.19
19.93
20.03
19.42
18.25
16.79
15.40
14.31
13.60
13.13
12.61
11.75
10.38
8.50
6.33
4.12
2.10
0.30
-1.43
-3.33
-5.61
-8.34
-11.44
-14.71
-17.87
-20.65
-22.79
-24.00
-24.07
-22.85
-20.44
-17.12
-13.34
-9.58
-6.18
-3.29
-0.85
1.26
3.16
4.88
6.40
7.67
8.69
9.49
10.16
10.77
11.41
12.10
12.87
13.71
14.62
15.54
16.37
16.98
17.27
17.21
16.84
16.27
15.59
14.84
14.04
13.15
12.11
10.88
9.37
7.50
5.22
2.59
-0.19
-2.83
-5.04
-6.73
-8.04
-9.35
-11.07
-13.45
-16.34
-19.26
-21.48
-22.34
-21.49
-18.98
-15.33
-11.19
-7.22
-3.82
-1.08
1.14
3.03
4.74
6.33
7.74
8.94
9.93
10.74
11.41
11.95
12.36
12.66
12.87
13.06
13.31
13.65
14.05
14.42
14.63
14.54
14.10
13.32
12.34
11.30
10.27
9.23
8.03
6.57
4.80
2.84
0.89
-0.91
-2.51
-3.99
-5.50
-7.18
-9.11
-11.37
-13.93
-16.64
-19.16
-21.00
-21.65
-20.75
-18.29
-14.61
-10.26
-5.87
-1.91
1.35
3.76
5.36
6.27
6.75
7.14
7.81
8.97
10.56
12.29
13.78
14.77
15.28
15.52
15.78
16.23
16.82
17.31
17.49
17.26
16.68
15.92
15.07
14.16
13.10
11.84
10.43
9.02
7.78
6.76
5.85
4.81
3.43
1.59
-0.63
-3.03
-5.36
-7.47
-9.39
-11.33
-13.53
-16.08
-18.85
-21.39
-23.12
-23.55
-22.44
-19.99
-16.63
-12.97
-9.46
-6.34
-3.66
-1.33
0.72
2.52
4.08
5.49
6.84
8.28
9.86
11.53
13.12
14.43
15.32
15.75
15.80
15.65
15.50
15.51
15.74
16.13
16.49
16.62
16.30
15.46
14.14
12.56
10.95
9.53
8.42
7.60
6.91
6.13
5.05
3.57
1.73
-0.24
-2.10
-3.72
-5.12
-6.54
-8.25
-10.40
-12.92
-15.51
-17.74
-19.24
-19.80
-19.38
-18.10
-16.14
-13.72
-11.07
-8.43
-6.00
-3.87
-2.08
-0.52
0.96
2.49
4.13
5.86
7.57
9.10
10.26
11.02
11.38
11.49
11.53
11.62
11.81
12.09
12.39
12.66
12.86
12.96
12.86
12.47
11.74
10.68
9.48
8.30
7.26
6.39
5.61
4.77
3.77
2.59
1.24
-0.21
-1.68
-3.11
-4.41
-5.51
-6.44
-7.28
-8.24
-9.53
-11.28
-13.46
-15.84
-18.08
-19.76
-20.53
-20.16
-18.65
-16.21
-13.20
-10.05
-7.13
-4.63
-2.61
-0.98
0.41
1.66
2.86
4.02
5.13
6.14
7.00
7.67
8.19
8.62
9.02
9.43
9.80
10.06
10.19
10.27
10.38
10.56
10.72
10.63
10.11
9.11
7.83
6.56
5.61
5.08
4.87
4.72
4.35
3.63
2.54
1.18
-0.31
-1.80
-3.18
-4.38
-5.35
-6.12
-6.78
-7.50
-8.46
-9.74
-11.38
-13.27
-15.21
-16.91
-18.06
-18.34
-17.52
-15.60
-12.85
-9.76
-6.91
-4.70
-3.22
-2.27
-1.51
-0.62
0.52
1.87
3.29
4.62
5.76
6.66
7.26
7.56
7.60
7.50
7.38
7.35
7.42
7.51
7.56
7.56
7.54
7.50
7.35
6.94
6.15
5.03
3.80
2.73
2.00
1.57
1.20
0.64
-0.22
-1.30
-2.38
-3.30
-4.07
-4.81
-5.64
-6.55
-7.44
-8.12
-8.58
-9.01
-9.73
-11.08
-13.14
-15.66
-18.07
-19.70
-19.98
-18.70
-16.11
-12.75
-9.29
-6.32
-4.14
-2.72
-1.86
-1.22
-0.55
0.31
1.35
2.47
3.56
4.51
5.30
5.99
6.61
7.16
7.60
7.88
8.00
8.00
7.93
7.85
7.80
7.71
7.56
7.30
6.94
6.47
5.90
5.18
4.32
3.34
2.37
1.53
0.95
0.64
0.48
0.27
-0.19
-0.96
-1.94
-2.90
-3.66
-4.16
-4.52
-4.94
-5.61
-6.57
-7.80
-9.25
-10.91
-12.74
-14.57
-16.09
-16.82
-16.44
-14.86
-12.38
-9.55
-6.93
-4.89
-3.55
-2.77
-2.32
-1.96
-1.52
-0.88
0.03
1.21
2.55
3.83
4.79
5.22
5.08
4.53
3.92
3.60
3.78
4.45
5.40
6.31
6.93
7.17
7.05
6.64
6.01
5.20
4.29
3.41
2.73
2.35
2.27
2.33
2.32
2.07
1.53
0.71
-0.35
-1.58
-2.93
-4.29
-5.55
-6.55
-7.24
-7.65
-7.93
-8.27
-8.81
-9.62
-10.69
-12.00
-13.39
-14.64
-15.46
-15.57
-14.75
-12.97
-10.41
-7.43
-4.50
-2.03
-0.33
0.52
0.71
0.59
0.58
0.96
1.73
2.67
3.46
3.90
4.00
4.01
4.22
4.78
5.59
6.36
6.79
6.74
6.32
5.82
5.49
5.41
5.43
5.28
4.76
3.88
2.84
1.96
1.46
1.36
1.46
1.48
1.19
0.55
-0.35
-1.36
-2.31
-3.14
-3.88
-4.59
-5.34
-6.22
-7.28
-8.58
-10.14
-11.90
-13.69
-15.21
-16.15
-16.25
-15.46
-13.93
-11.94
-9.81
-7.77
-5.93
-4.37
-3.10
-2.13
-1.43
-0.83
-0.14
0.78
1.95
3.20
4.28
5.08
5.65
6.16
6.72
7.33
7.78
7.87
7.54
6.98
6.48
6.30
6.47
6.76
6.88
6.60
5.88
4.89
3.82
2.83
1.98
1.22
0.50
-0.15
-0.68
-1.04
-1.23
-1.33
-1.48
-1.85
-2.54
-3.65
-5.15
-6.95
-8.88
-10.81
-12.60
-14.21
-15.56
-16.52
-16.89
-16.49
-15.31
-13.50
-11.39
-9.31
-7.47
-5.89
-4.44
-3.03
-1.65
-0.43
0.55
1.29
1.89
2.49
3.16
3.84
4.40
4.74
4.89
4.99
5.19
5.56
6.05
6.53
6.88
7.04
7.03
6.87
6.58
6.12
5.48
4.72
3.96
3.34
2.94
2.73
2.56
2.24
1.63
0.68
-0.54
-1.89
-3.25
-4.48
-5.54
-6.40
-7.12
-7.75
-8.47
-9.44
-10.78
-12.46
-14.27
-15.81
-16.68
-16.53
-15.32
-13.26
-10.75
-8.21
-5.94
-4.02
-2.41
-1.01
0.19
1.18
1.88
2.29
2.48
2.61
2.86
3.29
3.85
4.38
4.75
4.94
5.06
5.27
5.69
6.27
6.84
7.21
7.26
7.02
6.59
6.08
5.49
4.79
3.96
3.11
2.43
2.08
2.06
2.13
1.92
1.16
-0.21
-1.96
-3.67
-5.06
-6.07
-6.91
-7.92
-9.37
-11.27
-13.34
-15.05
-15.91
-15.56
-14.00
-11.54
-8.65
-5.87
-3.53
-1.76
-0.44
0.63
1.58
2.47
3.23
3.83
4.28
4.64
5.02
5.48
6.05
6.71
7.49
8.38
9.34
10.29
11.14
11.74
11.97
11.78
11.17
10.20
9.00
7.72
6.56
5.68
5.10
4.72
4.31
3.63
2.54
1.08
-0.55
-2.11
-3.43
-4.50
-5.41
-6.35
-7.51
-8.97
-10.74
-12.76
-14.87
-16.89
-18.54
-19.45
-19.31
-17.99
-15.60
-12.53
-9.32
-6.43
-4.13
-2.43
-1.20
-0.19
0.79
1.84
2.98
4.18
5.37
6.46
7.37
8.02
8.39
8.51
8.47
8.38
8.32
8.32
8.36
8.41
8.42
8.39
8.33
8.23
8.06
7.83
7.53
7.19
6.86
6.56
6.21
5.69
4.86
3.67
2.15
0.45
-1.27
-2.94
-4.51
-6.01
-7.44
-8.80
-10.15
-11.61
-13.36
-15.46
-17.78
-19.93
-21.33
-21.50
-20.23
-17.72
-14.45
-11.03
-7.94
-5.39
-3.37
-1.72
-0.28
1.07
2.40
3.76
5.18
6.64
8.10
9.45
10.53
11.28
11.67
11.82
11.88
11.99
12.25
12.67
13.22
13.80
14.30
14.57
14.56
14.27
13.78
13.23
12.73
12.31
11.88
11.36
10.67
9.84
8.94
8.05
7.13
6.09
4.83
3.32
1.64
-0.04
-1.54
-2.79
-3.81
-4.75
-5.80
-7.12
-8.81
-10.91
-13.34
-15.90
-18.26
-19.98
-20.67
-20.08
-18.30
-15.65
-12.65
-9.77
-7.30
-5.28
-3.57
-2.01
-0.48
1.01
2.39
3.67
4.90
6.13
7.40
8.66
9.85
10.92
11.89
12.84
13.82
14.76
15.50
15.89
15.92
15.69
15.39
15.18
15.01
14.74
14.16
13.16
11.82
10.35
8.99
7.85
6.95
6.23
5.61
5.01
4.36
3.56
2.54
1.25
-0.26
-1.84
-3.37
-4.79
-6.21
-7.79
-9.69
-11.87
-14.11
-16.02
-17.16
-17.23
-16.13
-14.05
-11.38
-8.56
-5.96
-3.75
-1.88
-0.16
1.60
3.49
5.44
7.25
8.73
9.74
10.32
10.58
10.68
10.71
10.65
10.48
10.18
9.81
9.56
9.56
9.87
10.39
10.83
10.97
10.69
10.11
9.43
8.85
8.43
8.04
7.52
6.72
5.65
4.47
3.35
2.40
1.59
0.81
-0.05
-1.06
-2.22
-3.51
-4.94
-6.53
-8.31
-10.29
-12.37
-14.35
-15.96
-16.88
-16.87
-15.83
-13.85
-11.22
-8.30
-5.48
-3.01
-1.01
0.54
1.76
2.75
3.59
4.30
4.84
5.21
5.42
5.55
5.70
5.94
6.25
6.59
6.87
7.03
7.09
7.12
7.14
7.16
7.11
6.95
6.69
6.41
6.21
6.11
6.02
5.79
5.26
4.45
3.43
2.39
1.43
0.57
-0.27
-1.19
-2.28
-3.58
-5.12
-6.88
-8.80
-10.69
-12.25
-13.15
-13.17
-12.26
-10.59
-8.48
-6.27
-4.22
-2.44
-0.99
0.16
1.04
1.72
2.28
2.76
3.18
3.46
3.55
3.41
3.19
3.10
3.33
3.95
4.84
5.74
6.38
6.59
6.40
5.92
5.36
4.85
4.46
4.17
3.91
3.61
3.20
2.60
1.77
0.77
-0.35
-1.48
-2.58
-3.64
-4.77
-6.05
-7.56
-9.26
-11.02
-12.63
-13.84
-14.45
-14.29
-13.34
-11.62
-9.27
-6.56
-3.78
-1.33
0.52
1.67
2.19
2.35
2.42
2.58
2.90
3.32
3.79
4.26
4.72
5.20
5.67
6.12
6.54
6.93
7.32
7.67
7.86
7.74
7.19
6.24
5.02
3.78
2.68
1.82
1.13
0.48
-0.28
-1.26
-2.43
-3.69
-4.88
-5.92
-6.79
-7.61
-8.60
-9.98
-11.83
-14.01
-16.15
-17.76
-18.36
-17.73
-15.98
-13.48
-10.74
-8.22
-6.14
-4.52
-3.15
-1.83
-0.41
1.09
2.56
3.82
4.76
5.37
5.74
6.02
6.28
6.57
6.82
6.97
7.03
7.05
7.12
7.28
7.43
7.43
7.13
6.53
5.77
5.05
4.53
4.21
3.97
3.62
3.07
2.32
1.46
0.59
-0.28
-1.25
-2.42
-3.85
-5.47
-7.11
-8.60
-9.88
-10.97
-12.03
-13.13
-14.29
-15.33
-16.00
-16.05
-15.31
-13.79
-11.62
-9.07
-6.46
-4.10
-2.19
-0.77
0.27
1.13
1.99
2.93
3.88
4.76
5.50
6.14
6.72
7.28
7.75
8.01
8.02
7.83
7.66
7.69
8.02
8.54
8.98
9.10
8.75
7.97
6.92
5.82
4.81
3.98
3.32
2.78
2.25
1.64
0.85
-0.14
-1.30
-2.50
-3.59
-4.41
-4.88
-5.07
-5.17
-5.46
-6.21
-7.60
-9.54
-11.75
-13.75
-15.04
-15.29
-14.43
-12.71
-10.56
-8.42
-6.63
-5.24
-4.14
-3.16
-2.12
-0.94
0.37
1.72
2.99
4.05
4.84
5.35
5.67
5.92
6.26
6.78
7.49
8.28
8.99
9.44
9.57
9.40
9.01
8.49
7.93
7.31
6.65
6.01
5.43
4.95
4.53
4.06
3.40
2.51
1.49
0.55
-0.16
-0.62
-1.02
-1.60
-2.52
-3.76
-5.09
-6.27
-7.16
-7.84
-8.56
-9.57
-10.97
-12.62
-14.23
-15.40
-15.83
-15.36
-14.07
-12.17
-9.96
-7.72
-5.64
-3.83
-2.30
-1.03
-0.01
0.80
1.48
2.08
2.69
3.32
3.90
4.36
4.65
4.80
4.91
5.09
5.43
5.90
6.44
6.95
7.37
7.72
8.04
8.32
8.50
8.46
8.09
7.37
6.45
5.52
4.77
4.29
3.96
3.58
2.91
1.89
0.59
-0.77
-1.93
-2.80
-3.42
-3.97
-4.63
-5.50
-6.64
-8.07
-9.80
-11.80
-13.97
-15.97
-17.36
-17.74
-16.96
-15.16
-12.76
-10.29
-8.12
-6.39
-5.08
-4.05
-3.19
-2.38
-1.47
-0.31
1.20
3.00
4.82
6.30
7.17
7.37
7.13
6.82
6.78
7.15
7.82
8.56
9.16
9.54
9.75
9.89
9.99
9.97
9.69
9.07
8.13
7.05
6.06
5.28
4.70
4.21
3.66
2.97
2.18
1.41
0.73
0.17
-0.34
-0.87
-1.50
-2.24
-3.06
-4.00
-5.14
-6.65
-8.70
-11.37
-14.49
-17.66
-20.27
-21.70
-21.57
-19.83
-16.85
-13.28
-9.84
-7.02
-5.03
-3.74
-2.82
-1.94
-0.91
0.31
1.63
2.89
4.03
5.00
5.81
6.49
7.04
7.46
7.77
8.00
8.15
8.23
8.24
8.19
8.13
8.08
8.05
7.97
7.75
7.32
6.68
5.87
5.00
4.16
3.34
2.50
1.54
0.45
-0.74
-1.91
-2.97
-3.85
-4.64
-5.38
-6.17
-7.03
-7.91
-8.75
-9.56
-10.42
-11.52
-12.98
-14.78
-16.66
-18.14
-18.72
-18.10
-16.28
-13.63
-10.63
-7.82
-5.47
-3.65
-2.22
-1.02
0.10
1.13
2.04
2.83
3.55
4.31
5.24
6.36
7.61
8.81
9.75
10.31
10.47
10.34
10.13
10.04
10.17
10.48
10.82
10.95
10.68
9.96
8.91
7.75
6.70
5.85
5.17
4.45
3.52
2.29
0.82
-0.73
-2.19
-3.48
-4.57
-5.51
-6.38
-7.27
-8.32
-9.63
-11.26
-13.16
-15.21
-17.16
-18.71
-19.58
-19.51
-18.34
-16.11
-13.03
-9.51
-6.06
-3.13
-1.01
0.34
1.12
1.67
2.24
2.87
3.49
3.97
4.29
4.57
5.01
5.76
6.80
7.91
8.81
9.30
9.39
9.25
9.13
9.19
9.41
9.61
9.61
9.29
8.64
7.76
6.75
5.70
4.67
3.69
2.78
1.91
0.98
-0.09
-1.43
-3.07
-4.99
-7.12
-9.40
-11.80
-14.33
-16.92
-19.37
-21.32
-22.36
-22.13
-20.50
-17.63
-13.95
-10.03
-6.47
-3.62
-1.60
-0.25
0.72
1.62
2.62
3.75
4.90
5.98
6.92
7.74
8.51
9.27
10.02
10.72
11.31
11.80
12.20
12.54
12.78
12.83
12.62
12.14
11.42
10.58
9.67
8.71
7.63
6.33
4.80
3.11
1.40
-0.22
-1.68
-3.07
-4.47
-5.97
-7.61
-9.39
-11.37
-13.56
-15.94
-18.37
-20.56
-22.11
-22.66
-22.02
-20.28
-17.70
-14.68
-11.54
-8.48
-5.57
-2.82
-0.24
2.11
4.17
5.89
7.34
8.64
9.93
11.22
12.42
13.33
13.78
13.78
13.53
13.33
13.41
13.83
14.38
14.73
14.64
14.05
13.15
12.18
11.32
10.56
9.77
8.79
7.58
6.18
4.72
3.25
1.74
0.13
-1.59
-3.34
-5.02
-6.58
-8.12
-9.85
-12.01
-14.68
-17.68
-20.58
-22.80
-23.83
-23.29
-21.16
-17.72
-13.50
-9.11
-5.11
-1.87
0.48
2.08
3.26
4.34
5.57
7.07
8.77
10.49
12.05
13.33
14.32
15.13
15.85
16.52
17.07
17.38
17.38
17.11
16.73
16.43
16.33
16.40
16.48
16.37
15.90
15.02
13.79
12.36
10.85
9.30
7.70
6.04
4.32
2.63
1.07
-0.32
-1.60
-2.96
-4.65
-6.89
-9.74
-13.02
-16.39
-19.33
-21.37
-22.14
-21.48
-19.51
-16.51
-12.91
-9.14
-5.52
-2.29
0.49
2.87
4.94
6.77
8.43
9.88
11.03
11.76
12.06
12.03
11.92
12.05
12.65
13.71
15.00
16.17
16.90
17.09
16.85
16.39
15.90
15.38
14.71
13.72
12.33
10.68
9.01
7.58
6.45
5.54
4.61
3.43
1.90
0.11
-1.76
-3.60
-5.46
-7.51
-9.96
-12.77
-15.59
-17.82
-18.83
-18.25
-16.14
-12.98
-9.43
-6.06
-3.20
-0.86
1.14
2.97
4.72
6.38
7.82
8.95
9.73
10.19
10.42
10.59
10.87
11.36
12.07
12.88
13.62
14.09
14.21
13.99
13.52
12.97
12.40
11.84
11.21
10.42
9.40
8.19
6.84
5.50
4.26
3.19
2.26
1.38
0.39
-0.88
-2.56
-4.67
-7.07
-9.53
-11.68
-13.19
-13.80
-13.40
-12.05
-10.00
-7.59
-5.18
-3.05
-1.30
0.13
1.38
2.57
3.71
4.69
5.40
5.80
6.06
6.45
7.18
8.28
9.49
10.45
10.85
10.57
9.76
8.73
7.77
7.03
6.53
6.22
5.97
5.70
5.28
4.58
3.52
2.10
0.44
-1.22
-2.64
-3.74
-4.60
-5.42
-6.44
-7.78
-9.42
-11.23
-12.94
-14.23
-14.76
-14.27
-12.65
-10.07
-6.92
-3.75
-1.06
0.87
2.00
2.56
2.82
3.04
3.35
3.82
4.41
5.11
5.85
6.56
7.15
7.58
7.83
7.91
7.85
7.68
7.46
7.20
6.93
6.62
6.24
5.78
5.24
4.68
4.12
3.52
2.78
1.77
0.46
-1.03
-2.50
-3.74
-4.65
-5.33
-5.96
-6.76
-7.85
-9.23
-10.83
-12.52
-14.12
-15.40
-16.04
-15.80
-14.57
-12.49
-9.91
-7.29
-4.99
-3.17
-1.77
-0.60
0.54
1.74
2.97
4.09
5.03
5.77
6.33
6.79
7.14
7.35
7.36
7.20
6.97
6.85
6.97
7.32
7.79
8.19
8.34
8.16
7.64
6.82
5.76
4.51
3.15
1.83
0.68
-0.17
-0.75
-1.20
-1.74
-2.51
-3.53
-4.63
-5.55
-6.15
-6.44
-6.63
-7.01
-7.79
-9.01
-10.50
-12.01
-13.33
-14.33
-15.01
-15.31
-15.16
-14.42
-13.00
-11.02
-8.77
-6.62
-4.88
-3.63
-2.77
-2.09
-1.43
-0.72
-0.01
0.65
1.24
1.80
2.37
2.97
3.58
4.16
4.68
5.14
5.58
5.95
6.23
6.36
6.31
6.12
5.83
5.46
5.02
4.47
3.78
2.94
2.04
1.14
0.33
-0.33
-0.86
-1.29
-1.71
-2.15
-2.61
-3.08
-3.51
-3.94
-4.45
-5.12
-5.98
-6.96
-7.89
-8.66
-9.22
-9.73
-10.38
-11.32
-12.46
-13.53
-14.11
-13.92
-12.88
-11.18
-9.17
-7.19
-5.44
-4.04
-3.00
-2.30
-1.86
-1.53
-1.17
-0.61
0.17
1.08
1.91
2.51
2.82
2.95
3.12
3.45
3.93
4.38
4.62
4.54
4.23
3.86
3.61
3.52
3.50
3.39
3.06
2.54
1.96
1.47
1.16
1.00
0.88
0.65
0.25
-0.32
-1.03
-1.80
-2.58
-3.35
-4.09
-4.81
-5.54
-6.25
-6.91
-7.44
-7.81
-8.06
-8.35
-8.86
-9.74
-11.02
-12.48
-13.80
-14.53
-14.34
-13.03
-10.71
-7.75
-4.64
-1.93
0.05
1.19
1.65
1.73
1.70
1.77
1.99
2.27
2.54
2.72
2.85
3.00
3.30
3.78
4.40
4.97
5.32
5.33
5.02
4.65
4.45
4.59
4.98
5.34
5.36
4.90
4.08
3.22
2.58
2.25
2.08
1.80
1.26
0.48
-0.33
-0.95
-1.33
-1.61
-2.01
-2.70
-3.64
-4.65
-5.52
-6.19
-6.72
-7.32
-8.14
-9.30
-10.77
-12.44
-14.09
-15.41
-16.07
-15.81
-14.59
-12.64
-10.40
-8.32
-6.66
-5.42
-4.38
-3.30
-2.05
-0.69
0.62
1.71
2.50
3.04
3.38
3.56
3.59
3.46
3.20
2.88
2.58
2.47
2.66
3.24
4.18
5.27
6.18
6.58
6.26
5.25
3.83
2.36
1.18
0.42
0.03
-0.20
-0.45
-0.82
-1.29
-1.82
-2.38
-2.99
-3.74
-4.70
-5.91
-7.32
-8.81
-10.23
-11.44
-12.39
-13.09
-13.54
-13.69
-13.46
-12.71
-11.38
-9.56
-7.44
-5.31
-3.38
-1.81
-0.59
0.38
1.15
1.81
2.41
3.01
3.67
4.44
5.32
6.25
7.11
7.79
8.19
8.28
8.09
7.74
7.34
7.02
6.79
6.65
6.49
6.21
5.75
5.09
4.24
3.27
2.26
1.30
0.41
-0.35
-0.95
-1.40
-1.76
-2.14
-2.70
-3.61
-5.01
-6.95
-9.32
-11.83
-14.08
-15.73
-16.55
-16.52
-15.79
-14.53
-12.88
-10.91
-8.69
-6.35
-4.08
-2.10
-0.54
0.60
1.46
2.21
2.98
3.77
4.50
5.09
5.53
5.88
6.28
6.80
7.44
8.08
8.56
8.80
8.79
8.64
8.52
8.53
8.65
8.71
8.53
7.98
7.08
5.97
4.80
3.64
2.46
1.14
-0.36
-2.00
-3.63
-5.09
-6.30
-7.30
-8.21
-9.16
-10.35
-11.87
-13.77
-15.96
-18.10
-19.76
-20.43
-19.74
-17.67
-14.56
-10.98
-7.53
-4.60
-2.32
-0.57
0.86
2.16
3.44
4.77
6.15
7.57
9.01
10.41
11.67
12.67
13.29
13.51
13.41
13.13
12.86
12.72
12.71
12.73
12.62
12.21
11.44
10.37
9.15
7.99
7.06
6.43
5.98
5.56
4.97
4.08
2.87
1.41
-0.15
-1.66
-3.06
-4.36
-5.66
-7.15
-8.99
-11.24
-13.83
-16.48
-18.73
-20.09
-20.20
-18.92
-16.42
-13.10
-9.45
-5.97
-2.98
-0.66
0.97
2.02
2.72
3.31
4.01
4.95
6.12
7.41
8.66
9.77
10.70
11.45
12.04
12.45
12.67
12.74
12.75
12.81
13.03
13.36
13.63
13.61
13.12
12.14
10.77
9.25
7.77
6.46
5.33
4.34
3.40
2.43
1.40
0.28
-0.93
-2.19
-3.48
-4.81
-6.19
-7.72
-9.49
-11.57
-13.92
-16.29
-18.32
-19.56
-19.68
-18.58
-16.42
-13.58
-10.51
-7.60
-5.06
-2.95
-1.20
0.28
1.56
2.69
3.74
4.76
5.85
7.06
8.40
9.80
11.14
12.29
13.13
13.62
13.79
13.75
13.62
13.51
13.47
13.45
13.39
13.19
12.78
12.11
11.17
9.96
8.57
7.08
5.61
4.26
3.02
1.84
0.64
-0.59
-1.78
-2.86
-3.81
-4.73
-5.82
-7.32
-9.37
-11.90
-14.61
-17.03
-18.61
-18.96
-17.89
-15.56
-12.38
-8.85
-5.48
-2.55
-0.15
1.84
3.54
5.01
6.24
7.15
7.72
8.03
8.25
8.55
9.04
9.72
10.48
11.16
11.61
11.79
11.74
11.62
11.55
11.56
11.57
11.37
10.82
9.85
8.59
7.30
6.21
5.43
4.84
4.23
3.40
2.30
1.07
-0.10
-1.07
-1.88
-2.73
-3.88
-5.54
-7.72
-10.25
-12.85
-15.26
-17.24
-18.58
-19.14
-18.76
-17.43
-15.29
-12.62
-9.82
-7.22
-5.01
-3.16
-1.54
0.04
1.69
3.40
5.06
6.54
7.76
8.74
9.56
10.27
10.95
11.57
12.11
12.55
12.93
13.30
13.66
13.98
14.11
13.94
13.44
12.76
12.09
11.61
11.40
11.32
11.18
10.77
9.98
8.84
7.46
5.98
4.54
3.20
1.97
0.81
-0.40
-1.83
-3.60
-5.81
-8.38
-11.05
-13.44
-15.08
-15.62
-14.92
-13.11
-10.60
-7.91
-5.53
-3.73
-2.46
-1.48
-0.47
0.80
2.35
3.99
5.48
6.58
7.25
7.59
7.79
8.07
8.55
9.21
9.92
10.52
10.87
10.92
10.73
10.39
10.00
9.57
9.02
8.27
7.33
6.28
5.31
4.55
4.01
3.53
2.89
1.92
0.68
-0.60
-1.66
-2.37
-2.79
-3.23
-4.01
-5.31
-7.11
-9.22
-11.39
-13.37
-15.02
-16.19
-16.71
-16.38
-15.10
-12.96
-10.27
-7.49
-5.10
-3.35
-2.21
-1.44
-0.70
0.28
1.51
2.82
3.99
4.80
5.27
5.52
5.80
6.28
7.03
8.00
9.07
10.07
10.84
11.29
11.35
11.04
10.42
9.63
8.79
7.98
7.18
6.34
5.40
4.39
3.40
2.53
1.83
1.28
0.78
0.19
-0.58
-1.53
-2.57
-3.58
-4.51
-5.37
-6.26
-7.33
-8.72
-10.44
-12.41
-14.42
-16.16
-17.30
-17.60
-16.84
-15.04
-12.39
-9.31
-6.34
-3.97
-2.49
-1.84
-1.75
-1.78
-1.65
-1.23
-0.61
0.10
0.77
1.42
2.07
2.75
3.41
3.96
4.34
4.58
4.78
5.02
5.34
5.72
6.05
6.25
6.28
6.13
5.87
5.54
5.24
5.02
4.89
4.79
4.60
4.22
3.55
2.56
1.32
-0.04
-1.36
-2.46
-3.25
-3.72
-3.93
-4.09
-4.42
-5.19
-6.53
-8.38
-10.47
-12.35
-13.54
-13.69
-12.70
-10.78
-8.33
-5.88
-3.80
-2.30
-1.31
-0.65
-0.11
0.42
0.93
1.33
1.55
1.62
1.66
1.84
2.27
2.92
3.70
4.45
5.09
5.64
6.20
6.85
7.57
8.21
8.56
8.45
7.86
6.94
5.92
5.00
4.27
3.66
3.05
2.31
1.38
0.30
-0.87
-2.03
-3.12
-4.08
-4.90
-5.61
-6.30
-7.14
-8.24
-9.66
-11.31
-12.95
-14.24
-14.85
-14.53
-13.21
-10.99
-8.21
-5.29
-2.66
-0.58
0.87
1.84
2.59
3.31
4.10
4.87
5.50
5.88
6.03
6.05
6.01
5.97
5.87
5.61
5.17
4.60
4.10
3.82
3.81
3.95
4.02
3.77
3.10
2.10
0.96
-0.10
-0.95
-1.58
-2.07
-2.52
-3.01
-3.58
-4.28
-5.14
-6.12
-7.12
-8.00
-8.66
-9.14
-9.62
-10.38
-11.56
-13.12
-14.67
-15.73
-15.87
-14.91
-13.05
-10.68
-8.32
-6.32
-4.84
-3.79
-2.95
-2.10
-1.09
0.08
1.31
2.44
3.35
3.99
4.43
4.82
5.31
5.94
6.69
7.41
7.96
8.24
8.24
8.06
7.80
7.57
7.38
7.21
6.98
6.62
6.09
5.44
4.76
4.16
3.74
3.48
3.29
2.98
2.41
1.50
0.33
-0.91
-2.02
-2.87
-3.47
-3.97
-4.56
-5.47
-6.75
-8.35
-10.04
-11.50
-12.38
-12.44
-11.69
-10.28
-8.55
-6.82
-5.30
-4.05
-2.98
-2.04
-1.15
-0.34
0.34
0.89
1.32
1.71
2.11
2.58
3.13
3.69
4.19
4.53
4.64
4.56
4.41
4.34
4.49
4.85
5.31
5.66
5.76
5.56
5.13
4.62
4.13
3.71
3.34
2.94
2.43
1.75
0.86
-0.20
-1.35
-2.46
-3.40
-4.14
-4.76
-5.42
-6.31
-7.50
-8.92
-10.37
-11.58
-12.32
-12.43
-11.83
-10.55
-8.66
-6.38
-3.99
-1.83
-0.16
0.89
1.48
1.87
2.35
3.07
3.99
4.86
5.47
5.67
5.49
5.16
4.89
4.87
5.15
5.71
6.41
7.15
7.78
8.13
8.07
7.55
6.66
5.61
4.68
4.06
3.76
3.66
3.52
3.21
2.70
2.10
1.49
0.91
0.27
-0.51
-1.52
-2.74
-4.12
-5.61
-7.17
-8.69
-9.99
-10.83
-10.96
-10.25
-8.77
-6.75
-4.53
-2.42
-0.62
0.78
1.76
2.39
2.76
2.99
3.16
3.36
3.60
3.87
4.19
4.56
5.02
5.54
5.99
6.27
6.23
5.84
5.19
4.43
3.76
3.33
3.12
3.02
2.83
2.33
1.44
0.23
-1.14
-2.47
-3.60
-4.46
-5.07
-5.49
-5.80
-6.14
-6.73
-7.81
-9.55
-11.87
-14.35
-16.37
-17.28
-16.77
-14.94
-12.27
-9.39
-6.80
-4.70
-3.03
-1.57
-0.18
1.17
2.38
3.31
3.88
4.13
4.12
3.99
3.84
3.72
3.69
3.79
4.05
4.51
5.12
5.79
6.34
6.58
6.41
5.80
4.89
3.88
2.89
2.01
1.21
0.40
-0.46
-1.36
-2.26
-3.14
-4.04
-5.04
-6.20
-7.51
-8.90
-10.22
-11.39
-12.43
-13.39
-14.34
-15.18
-15.67
-15.50
-14.45
-12.53
-9.99
-7.26
-4.73
-2.66
-1.10
0.06
0.97
1.79
2.64
3.56
4.62
5.85
7.18
8.49
9.64
10.51
11.08
11.38
11.45
11.36
11.13
10.81
10.48
10.23
10.13
10.11
10.03
9.70
9.01
8.00
6.82
5.67
4.68
3.82
2.95
1.89
0.58
-0.90
-2.37
-3.62
-4.58
-5.32
-6.08
-7.13
-8.64
-10.64
-12.91
-15.10
-16.77
-17.62
-17.48
-16.47
-14.81
-12.78
-10.60
-8.41
-6.23
-4.14
-2.22
-0.57
0.73
1.70
2.44
3.14
4.00
5.10
6.40
7.71
8.82
9.57
9.92
9.97
9.89
9.83
9.87
9.96
10.01
9.95
9.72
9.33
8.78
8.11
7.36
6.60
5.95
5.47
5.20
5.04
4.84
4.46
3.84
2.97
1.92
0.76
-0.44
-1.60
-2.65
-3.54
-4.36
-5.28
-6.51
-8.19
-10.33
-12.73
-15.04
-16.84
-17.77
-17.63
-16.43
-14.38
-11.86
-9.25
-6.88
-4.90
-3.32
-2.04
-0.96
-0.00
0.88
1.72
2.61
3.63
4.81
6.10
7.33
8.34
9.04
9.42
9.54
9.52
9.44
9.28
9.01
8.59
8.05
7.44
6.85
6.39
6.11
5.99
5.92
5.77
5.39
4.68
3.63
2.31
0.87
-0.56
-1.84
-2.90
-3.73
-4.44
-5.19
-6.20
-7.62
-9.49
-11.66
-13.77
-15.36
-16.02
-15.57
-14.13
-12.06
-9.84
-7.79
-6.07
-4.57
-3.10
-1.53
0.13
1.72
3.05
4.00
4.62
5.03
5.35
5.63
5.88
6.12
6.38
6.77
7.34
8.05
8.78
9.36
9.67
9.70
9.47
9.03
8.40
7.55
6.49
5.24
3.93
2.67
1.55
0.55
-0.39
-1.36
-2.42
-3.60
-4.91
-6.39
-8.11
-10.11
-12.33
-14.55
-16.44
-17.59
-17.71
-16.69
-14.67
-12.01
-9.16
-6.56
-4.50
-3.09
-2.26
-1.81
-1.47
-0.99
-0.18
1.08
2.75
4.73
6.79
8.68
10.21
11.31
12.04
12.56
13.05
13.54
13.99
14.20
14.00
13.32
12.22
10.89
9.53
8.22
6.94
5.58
4.08
2.49
0.95
-0.37
-1.36
-2.08
-2.70
-3.49
-4.59
-6.03
-7.67
-9.31
-10.71
-11.72
-12.19
-12.05
-11.26
-9.85
-7.92
-5.68
-3.36
-1.19
0.69
2.23
3.54
4.76
5.99
7.25
8.44
9.37
9.87
9.90
9.52
8.97
8.46
8.17
8.13
8.30
8.59
8.94
9.33
9.71
10.02
10.14
9.96
9.48
8.81
8.12
7.55
7.09
6.58
5.89
4.94
3.82
2.74
1.83
1.10
0.40
-0.49
-1.76
-3.50
-5.67
-8.23
-11.05
-14.00
-16.75
-18.89
-19.92
-19.54
-17.73
-14.85
-11.48
-8.21
-5.45
-3.33
-1.76
-0.56
0.48
1.47
2.46
3.44
4.37
5.20
5.88
6.37
6.67
6.84
6.98
7.20
7.60
8.17
8.78
9.24
9.38
9.14
8.58
7.88
7.19
6.63
6.23
5.89
5.50
4.96
4.25
3.41
2.56
1.78
1.09
0.35
-0.63
-2.01
-3.82
-5.96
-8.22
-10.47
-12.67
-14.79
-16.79
-18.44
-19.37
-19.23
-17.90
-15.54
-12.58
-9.51
-6.69
-4.24
-2.11
-0.16
1.71
3.49
5.10
6.45
7.47
8.21
8.85
9.54
10.41
11.42
12.39
13.11
13.41
13.28
12.87
12.39
12.00
11.76
11.68
11.71
11.84
12.00
12.10
11.97
11.45
10.49
9.22
7.84
6.57
5.49
4.47
3.38
2.07
0.57
-0.94
-2.31
-3.45
-4.46
-5.56
-6.95
-8.69
-10.72
-12.85
-14.85
-16.51
-17.60
-17.93
-17.34
-15.77
-13.36
-10.42
-7.43
-4.83
-2.90
-1.62
-0.74
0.10
1.16
2.47
3.86
5.08
5.95
6.49
6.84
7.17
7.56
7.95
8.21
8.32
8.34
8.49
8.93
9.68
10.59
11.38
11.77
11.63
10.99
10.00
8.93
7.99
7.31
6.89
6.59
6.22
5.56
4.49
2.99
1.24
-0.50
-1.92
-2.82
-3.18
-3.18
-3.13
-3.35
-4.08
-5.38
-7.16
-9.27
-11.49
-13.62
-15.39
-16.52
-16.78
-16.06
-14.41
-12.10
-9.46
-6.81
-4.38
-2.31
-0.63
0.67
1.63
2.32
2.85
3.29
3.69
4.05
4.36
4.64
4.88
5.13
5.41
5.71
5.97
6.15
6.24
6.25
6.22
6.12
5.94
5.64
5.21
4.68
4.13
3.59
3.11
2.69
2.34
2.06
1.79
1.48
0.99
0.27
-0.67
-1.72
-2.76
-3.74
-4.72
-5.83
-7.18
-8.76
-10.40
-11.85
-12.86
-13.22
-12.79
-11.52
-9.46
-6.81
-3.95
-1.35
0.57
1.62
1.92
1.84
1.79
2.02
2.52
3.05
3.33
3.19
2.72
2.16
1.81
1.83
2.26
2.91
3.59
4.11
4.42
4.63
4.86
5.21
5.63
5.97
6.00
5.56
4.66
3.51
2.43
1.67
1.28
1.11
0.82
0.15
-1.03
-2.63
-4.42
-6.18
-7.79
-9.20
-10.38
-11.19
-11.46
-11.02
-9.87
-8.20
-6.33
-4.56
-3.09
-1.91
-0.91
-0.03
0.74
1.30
1.61
1.73
1.79
1.96
2.28
2.73
3.18
3.51
3.68
3.70
3.62
3.50
3.37
3.28
3.28
3.41
3.62
3.77
3.68
3.23
2.43
1.41
0.41
-0.43
-1.08
-1.65
-2.33
-3.24
-4.40
-5.71
-7.03
-8.26
-9.34
-10.23
-10.86
-11.10
-10.82
-9.96
-8.56
-6.76
-4.76
-2.77
-0.97
0.53
1.66
2.37
2.70
2.70
2.52
2.36
2.39
2.72
3.37
4.20
5.04
5.68
5.98
5.95
5.71
5.43
5.25
5.20
5.22
5.14
4.85
4.24
3.32
2.15
0.85
-0.49
-1.75
-2.87
-3.78
-4.46
-4.97
-5.45
-6.08
-7.04
-8.38
-9.94
-11.42
-12.48
-12.86
-12.47
-11.37
-9.74
-7.83
-5.87
-4.02
-2.41
-1.09
-0.02
0.83
1.52
2.04
2.39
2.53
2.49
2.32
2.15
2.11
2.28
2.67
3.18
3.65
3.88
3.72
3.15
2.30
1.39
0.66
0.24
0.08
0.00
-0.21
-0.68
-1.34
-2.04
-2.60
-2.97
-3.22
-3.55
-4.19
-5.30
-6.92
-8.90
-11.00
-12.84
-14.07
-14.45
-13.94
-12.69
-11.00
-9.18
-7.41
-5.72
-4.06
-2.39
-0.75
0.72
1.91
2.82
3.52
4.11
4.63
5.04
5.28
5.36
5.37
5.49
5.85
6.46
7.20
7.87
8.25
8.26
7.91
7.34
6.71
6.14
5.68
5.25
4.71
3.96
2.98
1.81
0.60
-0.56
-1.64
-2.69
-3.84
-5.19
-6.81
-8.70
-10.76
-12.80
-14.58
-15.86
-16.45
-16.24
-15.28
-13.65
-11.50
-9.01
-6.38
-3.82
-1.55
0.26
1.56
2.41
2.95
3.38
3.86
4.47
5.22
6.06
6.87
7.58
8.11
8.47
8.65
8.67
8.55
8.28
7.87
7.42
7.00
6.72
6.56
6.44
6.23
5.82
5.17
4.31
3.26
2.08
0.81
-0.43
-1.50
-2.30
-2.84
-3.26
-3.85
-4.86
-6.44
-8.56
-11.00
-13.46
-15.57
-16.96
-17.35
-16.57
-14.68
-11.99
-8.99
-6.19
-3.95
-2.34
-1.18
-0.17
0.95
2.27
3.68
4.93
5.85
6.39
6.70
6.92
7.15
7.38
7.54
7.63
7.72
7.99
8.59
9.52
10.57
11.43
11.79
11.56
10.82
9.83
8.80
7.89
7.10
6.33
5.54
4.68
3.76
2.79
1.72
0.46
-1.03
-2.70
-4.44
-6.07
-7.57
-9.06
-10.73
-12.76
-15.07
-17.32
-19.00
-19.64
-19.03
-17.23
-14.60
-11.57
-8.51
-5.66
-3.13
-0.96
0.83
2.20
3.18
3.83
4.34
4.87
5.58
6.48
7.51
8.50
9.34
9.96
10.34
10.56
10.69
10.83
11.08
11.49
12.02
12.55
12.84
12.65
11.89
10.60
9.07
7.61
6.44
5.58
4.87
4.04
2.90
1.43
-0.24
-1.94
-3.46
-4.69
-5.63
-6.36
-7.07
-7.93
-9.13
-10.75
-12.71
-14.78
-16.58
-17.67
-17.74
-16.65
-14.56
-11.86
-9.06
-6.56
-4.56
-3.03
-1.71
-0.36
1.18
2.88
4.56
6.05
7.25
8.17
8.89
9.53
10.13
10.68
11.12
11.40
11.45
11.27
10.96
10.66
10.51
10.59
10.81
10.97
10.84
10.31
9.44
8.47
7.62
7.04
6.65
6.24
5.55
4.43
2.91
1.17
-0.56
-2.08
-3.29
-4.25
-5.11
-6.09
-7.32
-8.91
-10.80
-12.84
-14.87
-16.66
-18.03
-18.79
-18.78
-17.93
-16.29
-14.07
-11.56
-9.11
-6.90
-5.01
-3.39
-1.88
-0.37
1.22
2.83
4.34
5.60
6.53
7.11
7.44
7.67
7.91
8.26
8.71
9.24
9.77
10.27
10.69
10.95
10.99
10.69
10.04
9.07
7.93
6.76
5.69
4.74
3.81
2.79
1.62
0.34
-0.98
-2.23
-3.33
-4.29
-5.17
-6.03
-6.96
-8.04
-9.40
-11.13
-13.21
-15.42
-17.34
-18.45
-18.33
-16.84
-14.20
-10.87
-7.41
-4.21
-1.45
0.89
2.95
4.84
6.61
8.23
9.63
10.76
11.57
12.00
12.06
11.76
11.25
10.72
10.37
10.30
10.49
10.78
10.95
10.88
10.53
9.91
9.03
7.83
6.31
4.52
2.65
0.94
-0.42
-1.36
-1.99
-2.52
-3.10
-3.80
-4.55
-5.21
-5.69
-6.04
-6.46
-7.23
-8.57
-10.49
-12.68
-14.68
-15.92
-16.00
-14.82
-12.60
-9.76
-6.75
-3.91
-1.40
0.66
2.22
3.21
3.60
3.50
3.22
3.09
3.44
4.32
5.57
6.82
7.74
8.16
8.13
7.86
7.50
7.10
6.62
5.97
5.14
4.28
3.54
3.00
2.60
2.13
1.35
0.19
-1.23
-2.58
-3.53
-3.90
-3.78
-3.44
-3.19
-3.25
-3.67
-4.38
-5.31
-6.47
-7.87
-9.45
-11.00
-12.18
-12.64
-12.15
-10.73
-8.64
-6.24
-3.88
-1.78
-0.02
1.46
2.81
4.17
5.65
7.21
8.76
10.11
11.11
11.68
11.83
11.64
11.25
10.78
10.30
9.83
9.35
8.84
8.24
7.51
6.62
5.57
4.37
3.10
1.85
0.72
-0.20
-0.87
-1.32
-1.66
-2.08
-2.70
-3.59
-4.71
-5.93
-7.14
-8.32
-9.53
-10.87
-12.46
-14.28
-16.19
-17.88
-18.99
-19.18
-18.30
-16.44
-13.87
-10.99
-8.20
-5.78
-3.87
-2.38
-1.11
0.24
1.87
3.84
6.03
8.12
9.77
10.78
11.17
11.19
11.17
11.32
11.70
12.15
12.45
12.53
12.41
12.25
12.17
12.12
11.96
11.46
10.50
9.12
7.55
6.06
4.81
3.86
3.11
2.42
1.67
0.85
0.00
-0.79
-1.50
-2.22
-3.11
-4.36
-6.02
-8.00
-9.98
-11.55
-12.29
-11.99
-10.70
-8.72
-6.48
-4.38
-2.72
-1.55
-0.77
-0.22
0.32
0.98
1.82
2.81
3.82
4.74
5.48
5.96
6.17
6.13
5.88
5.49
5.05
4.63
4.30
4.12
4.14
4.34
4.65
4.96
5.12
5.01
4.61
3.92
3.03
2.06
1.08
0.16
-0.63
-1.24
-1.62
-1.84
-2.08
-2.54
-3.45
-4.88
-6.74
-8.76
-10.58
-11.88
-12.39
-12.03
-10.86
-9.11
-7.15
-5.35
-3.98
-3.07
-2.47
-1.89
-1.10
-0.07
1.05
1.98
2.52
2.61
2.40
2.16
2.15
2.53
3.29
4.34
5.50
6.60
7.48
7.99
7.99
7.46
6.49
5.27
4.07
3.12
2.52
2.21
2.01
1.72
1.22
0.47
-0.41
-1.28
-2.04
-2.64
-3.13
-3.62
-4.25
-5.16
-6.43
-7.99
-9.66
-11.07
-11.86
-11.67
-10.41
-8.21
-5.50
-2.87
-0.80
0.41
0.83
0.73
0.50
0.42
0.58
0.96
1.44
1.95
2.50
3.14
3.88
4.65
5.36
5.89
6.17
6.20
6.00
5.59
4.98
4.25
3.45
2.71
2.11
1.69
1.40
1.14
0.78
0.25
-0.41
-1.10
-1.68
-2.02
-2.12
-2.09
-2.16
-2.60
-3.58
-5.18
-7.20
-9.35
-11.18
-12.31
-12.51
-11.77
-10.28
-8.34
-6.30
-4.45
-2.91
-1.66
-0.60
0.42
1.47
2.55
3.57
4.40
4.93
5.15
5.09
4.87
4.61
4.42
4.31
4.32
4.41
4.56
4.75
4.96
5.12
5.10
4.81
4.21
3.37
2.44
1.59
0.89
0.31
-0.28
-1.03
-1.96
-2.99
-3.92
-4.57
-4.87
-4.96
-5.10
-5.58
-6.60
-8.17
-10.08
-11.90
-13.20
-13.60
-12.98
-11.47
-9.41
-7.20
-5.16
-3.44
-2.00
-0.75
0.35
1.27
1.94
2.32
2.46
2.57
2.84
3.40
4.24
5.22
6.15
6.90
7.49
8.00
8.53
9.05
9.41
9.43
8.94
7.97
6.68
5.35
4.26
3.57
3.27
3.22
3.19
2.97
2.41
1.43
0.09
-1.47
-3.09
-4.55
-5.72
-6.58
-7.26
-7.96
-8.90
-10.14
-11.51
-12.60
-12.89
-12.02
-9.94
-7.00
-3.86
-1.15
0.72
1.72
2.13
2.30
2.54
2.93
3.39
3.80
4.05
4.13
4.08
4.00
3.94
3.99
4.17
4.53
5.05
5.61
6.09
6.36
6.39
6.24
6.06
5.95
5.86
5.66
5.17
4.30
3.14
1.92
0.84
0.02
-0.63
-1.31
-2.19
-3.39
-4.91
-6.66
-8.51
-10.32
-11.89
-12.99
-13.38
-12.90
-11.55
-9.50
-7.08
-4.62
-2.42
-0.62
0.82
1.98
3.00
3.91
4.71
5.32
5.72
5.94
6.11
6.32
6.59
6.87
7.03
7.00
6.76
6.39
5.97
5.60
5.32
5.12
5.00
4.97
4.93
4.79
4.38
3.57
2.34
0.83
-0.72
-2.04
-3.03
-3.74
-4.42
-5.33
-6.66
-8.41
-10.48
-12.62
-14.59
-16.13
-16.97
-16.90
-15.83
-13.86
-11.30
-8.55
-6.04
-3.99
-2.42
-1.22
-0.25
0.59
1.32
2.01
2.74
3.66
4.84
6.23
7.61
8.71
9.30
9.35
9.00
8.56
8.28
8.32
8.58
8.84
8.85
8.44
7.64
6.67
5.84
5.39
5.33
5.44
5.38
4.83
3.72
2.17
0.51
-0.96
-2.13
-3.08
-4.04
-5.25
-6.87
-8.90
-11.25
-13.76
-16.20
-18.27
-19.60
-19.83
-18.77
-16.51
-13.42
-10.08
-7.05
-4.74
-3.24
-2.39
-1.83
-1.20
-0.25
1.10
2.75
4.52
6.22
7.72
8.99
10.03
10.81
11.32
11.53
11.46
11.21
10.95
10.88
11.07
11.46
11.79
11.82
11.39
10.47
9.25
7.98
6.80
5.76
4.72
3.58
2.27
0.85
-0.59
-2.02
-3.50
-5.20
-7.19
-9.40
-11.60
-13.39
-14.45
-14.55
-13.67
-11.93
-9.62
-7.03
-4.48
-2.19
-0.24
1.38
2.76
4.01
5.12
6.02
6.60
6.83
6.76
6.57
6.51
6.72
7.23
7.91
8.56
8.99
9.12
8.96
8.58
8.06
7.45
6.77
6.03
5.28
4.56
3.82
3.00
1.95
0.59
-1.04
-2.74
-4.24
-5.32
-5.94
-6.22
-6.43
-6.80
-7.55
-8.72
-10.24
-11.93
-13.51
-14.65
-15.03
-14.48
-13.00
-10.82
-8.35
-5.97
-3.97
-2.43
-1.25
-0.26
0.72
1.81
3.04
4.39
5.80
7.20
8.46
9.39
9.83
9.71
9.12
8.28
7.53
7.12
7.13
7.42
7.76
7.92
7.79
7.42
6.97
6.63
6.52
6.61
6.80
6.86
6.54
5.69
4.28
2.41
0.36
-1.59
-3.26
-4.65
-5.87
-7.08
-8.41
-9.86
-11.36
-12.74
-13.80
-14.38
-14.30
-13.49
-11.97
-9.91
-7.56
-5.25
-3.19
-1.50
-0.16
0.86
1.60
2.08
2.34
2.50
2.69
3.03
3.54
4.16
4.79
5.33
5.76
6.08
6.34
6.59
6.81
7.02
7.15
7.15
6.88
6.24
5.22
3.99
2.86
2.11
1.90
2.11
2.44
2.59
2.36
1.77
0.94
0.02
-0.91
-1.85
-2.89
-4.11
-5.56
-7.19
-8.87
-10.41
-11.54
-12.02
-11.66
-10.47
-8.63
-6.46
-4.34
-2.56
-1.24
-0.34
0.31
0.91
1.67
2.67
3.86
5.03
5.97
6.49
6.55
6.31
5.99
5.85
6.00
6.42
6.94
7.35
7.51
7.41
7.12
6.73
6.29
5.75
5.07
4.23
3.28
2.34
1.47
0.70
-0.04
-0.84
-1.75
-2.74
-3.73
-4.60
-5.37
-6.13
-7.08
-8.35
-9.98
-11.82
-13.62
-15.05
-15.82
-15.73
-14.70
-12.85
-10.40
-7.71
-5.13
-2.88
-1.06
0.44
1.80
3.12
4.41
5.55
6.42
7.00
7.40
7.77
8.23
8.77
9.26
9.57
9.64
9.52
9.31
9.11
8.93
8.68
8.29
7.75
7.10
6.39
5.64
4.80
3.81
2.65
1.39
0.16
-0.94
-1.85
-2.63
-3.33
-4.00
-4.68
-5.43
-6.32
-7.52
-9.08
-10.88
-12.58
-13.73
-13.93
-13.02
-11.14
-8.65
-6.01
-3.56
-1.47
0.25
1.66
2.82
3.77
4.49
5.03
5.42
5.71
5.90
6.00
5.98
5.89
5.80
5.82
6.01
6.36
6.74
7.05
7.22
7.27
7.25
7.21
7.07
6.74
6.13
5.26
4.27
3.35
2.59
2.03
1.54
0.96
0.19
-0.75
-1.70
-2.46
-2.90
-3.08
-3.18
-3.48
-4.25
-5.63
-7.57
-9.80
-11.89
-13.37
-13.84
-13.14
-11.38
-8.96
-6.37
-4.05
-2.24
-0.87
0.23
1.25
2.20
2.96
3.41
3.54
3.55
3.74
4.33
5.28
6.34
7.12
7.42
7.29
7.02
6.90
7.03
7.24
7.22
6.72
5.78
4.66
3.75
3.31
3.36
3.61
3.73
3.43
2.66
1.57
0.36
-0.76
-1.75
-2.65
-3.60
-4.69
-5.92
-7.20
-8.44
-9.61
-10.67
-11.56
-12.10
-12.01
-11.02
-9.05
-6.33
-3.38
-0.78
1.08
2.15
2.65
2.94
3.27
3.69
4.10
4.38
4.50
4.52
4.58
4.75
5.05
5.38
5.66
5.83
5.87
5.85
5.81
5.81
5.87
5.92
5.83
5.42
4.62
3.46
2.13
0.90
-0.09
-0.84
-1.53
-2.36
-3.46
-4.76
-6.09
-7.33
-8.39
-9.39
-10.45
-11.63
-12.79
-13.63
-13.82
-13.15
-11.67
-9.65
-7.50
-5.56
-3.96
-2.59
-1.22
0.34
2.12
3.91
5.35
6.13
6.18
5.71
5.12
4.81
4.97
5.53
6.20
6.68
6.80
6.59
6.23
5.88
5.59
5.28
4.81
4.10
3.18
2.15
1.18
0.38
-0.23
-0.73
-1.20
-1.74
-2.37
-3.08
-3.90
-4.89
-6.16
-7.78
-9.65
-11.55
-13.09
-13.90
-13.81
-12.88
-11.35
-9.53
-7.65
-5.78
-3.94
-2.13
-0.43
1.01
2.05
2.63
2.90
3.10
3.50
4.23
5.21
6.24
7.06
7.54
7.70
7.68
7.60
7.49
7.28
6.88
6.28
5.53
4.81
4.22
3.77
3.32
2.70
1.73
0.40
-1.18
-2.78
-4.22
-5.41
-6.37
-7.22
-8.10
-9.14
-10.40
-11.87
-13.46
-15.00
-16.20
-16.77
-16.42
-15.05
-12.77
-9.93
-6.96
-4.32
-2.29
-0.97
-0.25
0.09
0.40
0.94
1.86
3.10
4.46
5.73
6.76
7.49
7.95
8.20
8.26
8.13
7.90
7.65
7.45
7.30
7.11
6.76
6.18
5.45
4.71
4.12
3.71
3.37
2.94
2.24
1.27
0.15
-0.93
-1.82
-2.48
-3.01
-3.59
-4.49
-5.91
-7.91
-10.41
-13.15
-15.80
-18.02
-19.54
-20.15
-19.78
-18.46
-16.34
-13.70
-10.84
-8.05
-5.52
-3.30
-1.36
0.37
1.93
3.31
4.48
5.43
6.15
6.74
7.26
7.82
8.45
9.17
9.88
10.47
10.87
11.06
11.12
11.14
11.16
11.14
10.97
10.51
9.71
8.65
7.53
6.56
5.89
5.51
5.23
4.78
3.97
2.71
1.11
-0.59
-2.15
-3.45
-4.52
-5.52
-6.60
-7.83
-9.19
-10.61
-12.07
-13.61
-15.21
-16.75
-17.91
-18.34
-17.79
-16.24
-13.98
-11.45
-9.07
-7.03
-5.31
-3.69
-1.96
-0.04
1.94
3.71
5.04
5.81
6.17
6.36
6.70
7.34
8.25
9.24
10.07
10.56
10.71
10.61
10.42
10.26
10.14
10.00
9.71
9.17
8.44
7.63
6.93
6.46
6.18
5.90
5.41
4.54
3.27
1.78
0.26
-1.06
-2.12
-3.00
-3.85
-4.83
-6.07
-7.66
-9.60
-11.81
-14.13
-16.29
-17.97
-18.86
-18.69
-17.40
-15.12
-12.17
-8.97
-5.96
-3.42
-1.47
-0.02
1.10
2.09
3.12
4.27
5.47
6.60
7.50
8.05
8.22
8.11
7.88
7.72
7.79
8.13
8.75
9.55
10.41
11.15
11.57
11.50
10.86
9.76
8.40
7.02
5.85
4.93
4.20
3.52
2.69
1.63
0.35
-1.04
-2.42
-3.65
-4.69
-5.54
-6.30
-7.11
-8.12
-9.47
-11.21
-13.27
-15.43
-17.36
-18.63
-18.88
-17.89
-15.71
-12.65
-9.22
-5.99
-3.39
-1.65
-0.68
-0.13
0.41
1.26
2.52
4.02
5.41
6.39
6.83
6.79
6.41
5.79
4.94
3.83
2.48
1.06
-0.15
-0.92
-1.21
-1.17
-1.13
-1.43
-2.34
-3.96
-6.30
-9.18
-12.30
-15.17
-17.12
-17.42
-15.47
-10.98
-4.08
4.73
14.82
25.58
36.57
47.45
57.92
67.63
76.21
83.45
89.44
94.58
99.52
104.79
110.60
116.68
122.37
126.79
129.24
129.34
127.16
123.11
117.70
111.28
103.84
95.14
84.78
72.63
58.97
44.50
30.16
16.76
4.77
-5.76
-15.09
-23.62
-31.64
-39.36
-46.90
-54.32
-61.58
-68.61
-75.21
-81.08
-85.86
-89.13
-90.52
-89.77
-86.82
-81.83
-75.26
-67.79
-60.18
-53.24
-47.62
-43.77
-41.90
-41.90
-43.34
-45.63
-48.13
-50.45
-52.59
-54.90
-57.83
-61.48
-65.43
-68.69
-70.14
-68.97
-65.07
-59.01
-51.84
-44.57
-37.95
-32.22
-27.38
-23.28
-19.84
-17.08
-15.06
-13.71
-12.89
-12.33
-11.73
-10.87
-9.71
-8.36
-7.07
-6.13
-5.85
-6.36
-7.69
-9.74
-12.31
-15.14
-17.98
-20.58
-22.72
-24.20
-24.89
-24.76
-23.90
-22.56
-21.06
-19.76
-18.91
-18.61
-18.71
-18.86
-18.59
-17.43
-15.07
-11.52
-7.02
-2.07
2.81
7.14
10.57
12.88
13.89
13.47
11.70
9.04
6.56
5.88
8.76
16.51
29.52
46.97
67.20
88.36
109.00
128.37
146.29
162.67
177.18
189.18
197.91
202.76
203.46
200.00
192.46
180.97
165.80
147.60
127.51
107.00
87.45
69.60
53.35
37.93
22.42
6.35
-9.93
-25.39
-38.91
-49.81
-58.21
-64.93
-70.97
-77.22
-84.28
-92.57
-102.23
-112.75
-122.51
-128.74
-128.36
-119.49
-102.76
-81.46
-60.44
-44.06
-34.41
-30.94
-31.35
-33.13
-34.73
-35.83
-36.65
-37.31
-37.54
-36.98
-35.76
-34.60
-34.47
-35.99
-38.98
-42.44
-44.85
-44.76
-41.34
-34.84
-26.85
-20.14
-18.01
-23.02
-35.82
-54.50
-74.95
-92.22
-102.35
-103.66
-97.06
-85.18
-70.88
-56.00
-41.09
-25.86
-10.11
5.60
19.99
31.65
39.72
44.29
46.15
46.27
45.17
42.74
38.41
31.79
23.10
13.36
4.04
-3.46
-8.50
-11.37
-13.07
-14.76
-17.12
-20.10
-23.01
-24.98
-25.56
-24.93
-23.93
-23.51
-24.36
-26.42
-28.90
-30.56
-30.21
-27.23
-21.96
-15.69
-10.46
-8.44
-11.19
-18.99
-30.42
-42.64
-52.20
-56.22
-53.41
-44.45
-31.52
-17.27
-3.72
8.37
19.36
30.04
40.75
51.00
59.45
64.45
64.67
59.54
49.55
36.29
22.25
10.38
3.47
3.33
10.30
23.18
39.72
57.55
74.98
91.21
106.07
119.27
130.14
137.64
141.09
140.74
137.84
134.04
130.33
126.24
119.89
108.99
