1520866918.00
64.000000
-0.00
-0.00
-0.00
-0.00
-0.00
-0.00
-0.00
-0.00
-0.00
-0.00
0.00
0.01
0.01
-0.00
-0.03
-0.05
-0.05
0.00
0.13
0.36
0.66
1.01
1.37
1.72
2.06
2.40
2.79
3.24
3.80
4.42
5.06
5.66
6.20
6.68
7.15
7.68
8.31
9.14
10.09
11.04
11.88
12.56
13.14
13.76
14.65
15.96
17.91
20.32
22.90
25.38
27.58
29.57
31.68
34.32
37.81
42.54
48.15
54.10
59.83
64.97
69.58
74.14
79.34
85.71
93.76
103.00
112.62
121.73
129.77
136.75
143.30
150.75
157.77
166.64
177.95
191.79
206.97
220.57
228.25
225.36
208.53
176.87
132.76
80.05
23.07
-34.94
-92.44
-149.16
-205.23
-260.37
-313.74
-363.87
-409.83
-450.91
-486.50
-515.74
-537.23
-549.22
-549.96
-538.37
-514.21
-478.67
-433.88
-382.45
-327.02
-269.84
-212.63
-156.66
-102.95
-52.37
-5.90
35.58
71.43
101.35
125.50
144.38
158.69
169.15
176.37
180.75
182.57
182.07
179.51
175.23
169.65
163.18
156.15
148.81
141.30
133.69
126.02
118.33
110.69
103.16
95.80
88.68
81.83
75.25
68.95
62.95
57.25
51.86
46.78
42.03
37.59
33.45
29.61
26.07
22.81
19.83
17.11
14.67
12.48
10.54
8.83
7.35
6.07
4.97
4.05
3.27
2.62
2.09
1.65
1.30
1.01
0.79
0.61
0.47
0.37
0.29
0.23
0.19
0.16
0.14
0.14
0.15
0.16
0.18
0.21
0.24
0.28
0.32
0.36
0.41
0.45
0.50
0.55
0.60
0.65
0.71
0.77
0.83
0.90
0.98
1.07
1.16
1.27
1.39
1.52
1.67
1.84
2.03
2.24
2.47
2.72
3.00
3.32
3.66
4.03
4.43
4.88
5.36
5.87
6.43
7.03
7.66
8.34
9.07
9.84
10.65
11.51
12.41
13.37
14.38
15.45
16.58
17.78
19.02
20.30
21.56
22.74
23.75
24.47
24.81
24.60
23.79
22.27
20.04
17.11
13.54
9.47
5.08
0.58
-3.83
-7.94
-11.55
-14.53
-16.79
-18.29
-19.04
-19.11
-18.60
-17.64
-16.32
-14.75
-13.02
-11.19
-9.32
-7.42
-5.57
-3.81
-2.12
-0.46
1.20
2.95
4.84
6.89
9.15
11.48
13.81
16.11
18.41
20.75
23.22
25.89
28.83
32.13
35.53
38.89
42.21
45.55
49.02
52.79
56.94
61.51
66.52
71.45
75.98
80.03
83.74
87.39
91.29
95.62
100.36
105.34
109.61
112.49
113.67
113.12
110.96
107.16
101.04
90.85
78.81
64.82
48.68
30.49
10.82
-9.49
-29.52
-48.69
-66.87
-84.28
-102.13
-121.58
-143.68
-169.11
-197.65
-227.66
-255.91
-278.08
-289.94
-289.47
-277.04
-255.57
-229.38
-202.67
-178.20
-156.89
-138.23
-121.31
-105.86
-92.10
-80.45
-71.02
-63.41
-56.81
-50.37
-43.58
-36.40
-29.35
-22.89
-17.17
-11.98
-6.75
-0.99
5.51
12.44
19.20
25.00
29.33
32.12
33.68
34.52
35.09
35.55
35.78
35.63
35.04
34.18
33.32
32.65
32.18
31.72
31.04
30.01
28.69
27.19
25.64
24.07
22.42
20.63
18.66
16.40
13.76
10.66
7.12
3.32
-0.35
-3.51
-5.82
-7.12
-7.39
-6.66
-5.04
-2.73
-0.06
2.61
4.94
6.80
8.33
9.85
11.63
13.70
15.79
17.42
18.23
18.11
17.39
16.60
16.22
16.42
16.96
17.35
17.05
15.84
13.82
11.40
9.03
7.01
5.40
3.99
2.51
0.72
-1.42
-3.88
-6.53
-9.29
-12.11
-14.91
-17.51
-19.56
-20.64
-20.37
-18.59
-15.41
-11.25
-6.62
-2.00
2.30
6.15
9.52
12.36
14.59
16.08
16.76
16.67
16.04
15.25
14.70
14.71
15.43
16.70
18.17
19.34
19.72
19.03
17.29
14.77
11.94
9.23
6.95
5.15
3.70
2.36
0.92
-0.84
-3.02
-5.69
-8.84
-12.25
-15.50
-17.96
-19.03
-18.34
-15.96
-12.40
-8.36
-4.40
-0.76
2.67
6.13
9.72
13.23
16.23
18.34
19.45
19.80
19.90
20.16
20.79
21.57
22.08
21.93
20.99
19.46
17.73
16.15
14.86
13.72
12.45
10.83
8.88
6.84
5.03
3.71
2.83
2.16
1.27
-0.27
-2.73
-6.16
-10.30
-14.63
-18.41
-20.94
-21.74
-20.71
-18.09
-14.40
-10.14
-5.72
-1.41
2.63
6.24
9.34
11.83
13.69
14.95
15.69
16.03
16.13
16.16
16.27
16.53
16.90
17.21
17.35
17.29
17.11
16.92
16.72
16.38
15.71
14.55
12.89
10.88
8.77
6.74
4.86
3.10
1.36
-0.48
-2.50
-4.74
-7.27
-10.04
-12.91
-15.55
-17.53
-18.44
-18.04
-16.41
-13.88
-10.87
-7.79
-4.85
-2.10
0.43
2.67
4.42
5.49
5.85
5.76
5.74
6.37
8.04
10.72
13.96
17.06
19.39
20.63
20.87
20.49
19.91
19.34
18.72
17.76
16.19
13.93
11.14
8.14
5.23
2.57
0.19
-2.03
-4.25
-6.58
-9.07
-11.78
-14.75
-17.95
-21.22
-24.24
-26.56
-27.70
-27.35
-25.36
-21.87
-17.29
-12.11
-6.88
-2.04
2.12
5.46
8.00
9.85
11.12
12.00
12.68
13.37
14.24
15.35
16.63
17.86
18.82
19.31
19.34
18.97
18.36
17.63
16.87
16.04
15.07
13.86
12.29
10.31
7.98
5.48
3.06
0.92
-0.93
-2.69
-4.77
-7.56
-11.24
-15.66
-20.32
-24.53
-27.59
-28.96
-28.43
-26.12
-22.46
-18.10
-13.66
-9.65
-6.23
-3.28
-0.48
2.46
5.54
8.54
11.11
13.01
14.29
15.21
16.12
17.21
18.46
19.64
20.49
20.88
20.82
20.40
19.74
18.86
17.73
16.29
14.55
12.55
10.40
8.22
6.08
4.00
1.92
-0.26
-2.61
-5.14
-7.74
-10.33
-12.90
-15.63
-18.83
-22.65
-27.04
-31.54
-35.36
-37.68
-37.88
-35.77
-31.66
-26.17
-20.10
-14.16
-8.80
-4.19
-0.25
3.22
6.40
9.36
12.08
14.46
16.42
17.95
19.16
20.17
21.12
22.02
22.81
23.38
23.61
23.41
22.77
21.71
20.30
18.66
16.95
15.29
13.75
12.35
11.01
9.63
8.03
6.05
3.56
0.58
-2.71
-6.04
-9.08
-11.73
-14.11
-16.56
-19.50
-23.16
-27.40
-31.68
-35.17
-37.10
-36.97
-34.73
-30.78
-25.71
-20.20
-14.80
-9.82
-5.40
-1.49
2.03
5.27
8.34
11.26
14.11
16.88
19.56
21.97
23.91
25.14
25.58
25.32
24.62
23.86
23.32
23.08
23.03
22.88
22.39
21.45
20.12
18.59
17.07
15.65
14.28
12.81
11.10
9.07
6.73
4.18
1.50
-1.25
-4.09
-7.02
-10.01
-13.09
-16.29
-19.71
-23.49
-27.59
-31.68
-35.12
-37.06
-36.78
-34.00
-29.03
-22.72
-16.15
-10.23
-5.45
-1.84
0.90
3.15
5.10
6.77
8.03
8.81
9.18
9.45
10.00
11.10
12.78
14.71
16.45
17.57
17.89
17.56
16.93
16.34
15.90
15.42
14.51
12.81
10.26
7.09
3.70
0.43
-2.60
-5.47
-8.34
-11.25
-14.04
-16.46
-18.34
-19.85
-21.43
-23.63
-26.71
-30.46
-34.12
-36.68
-37.28
-35.50
-31.59
-26.24
-20.41
-14.86
-10.05
-6.03
-2.61
0.46
3.34
6.03
8.44
10.48
12.17
13.61
14.92
16.16
17.27
18.10
18.55
18.65
18.53
18.31
18.05
17.66
17.01
16.02
14.72
13.17
11.43
9.51
7.37
5.04
2.63
0.36
-1.59
-3.13
-4.35
-5.47
-6.76
-8.47
-10.83
-13.96
-17.86
-22.23
-26.46
-29.72
-31.16
-30.23
-26.99
-22.04
-16.34
-10.76
-5.84
-1.64
2.08
5.63
9.06
12.16
14.62
16.19
16.90
17.04
17.02
17.21
17.74
18.52
19.32
19.86
20.00
19.76
19.24
18.55
17.76
16.85
15.73
14.33
12.65
10.66
8.39
5.86
3.12
0.30
-2.42
-4.83
-6.80
-8.36
-9.74
-11.26
-13.28
-16.03
-19.58
-23.71
-27.98
-31.72
-34.22
-34.88
-33.44
-30.11
-25.47
-20.29
-15.21
-10.57
-6.37
-2.45
1.31
4.89
8.13
10.84
12.98
14.60
15.79
16.60
17.05
17.21
17.34
17.79
18.86
20.57
22.61
24.41
25.40
25.37
24.45
23.04
21.52
20.04
18.46
16.49
13.95
10.85
7.43
4.02
0.88
-1.91
-4.42
-6.85
-9.43
-12.35
-15.78
-19.79
-24.40
-29.40
-34.40
-38.76
-41.68
-42.46
-40.74
-36.61
-30.70
-23.92
-17.14
-10.94
-5.53
-0.83
3.27
6.80
9.65
11.72
13.00
13.71
14.21
14.84
15.77
16.93
18.02
18.69
18.72
18.10
17.08
16.00
15.13
14.55
14.16
13.69
12.93
11.72
10.07
8.04
5.76
3.34
0.88
-1.52
-3.85
-6.10
-8.39
-10.85
-13.67
-17.05
-21.06
-25.63
-30.39
-34.67
-37.61
-38.42
-36.69
-32.55
-26.70
-20.04
-13.42
-7.36
-1.94
2.91
7.20
10.77
13.32
14.67
14.96
14.65
14.32
14.39
14.93
15.66
16.20
16.29
15.93
15.37
14.83
14.40
13.99
13.41
12.51
11.21
9.53
7.52
5.22
2.72
0.17
-2.23
-4.33
-6.11
-7.77
-9.68
-12.21
-15.63
-19.95
-24.86
-29.86
-34.31
-37.62
-39.36
-39.29
-37.37
-33.78
-28.86
-22.96
-16.50
-9.85
-3.32
2.76
8.03
12.21
15.15
16.96
17.96
18.60
19.28
20.12
20.98
21.61
21.76
21.42
20.75
19.99
19.28
18.64
17.96
17.05
15.80
14.12
12.04
9.61
6.91
4.01
1.02
-1.98
-4.98
-7.95
-10.95
-14.09
-17.50
-21.34
-25.68
-30.43
-35.24
-39.49
-42.40
-43.26
-41.68
-37.70
-31.81
-24.71
-17.16
-9.70
-2.62
3.96
9.99
15.29
19.64
22.79
24.61
25.18
24.86
24.14
23.55
23.46
23.96
24.87
25.81
26.38
26.29
25.46
24.06
22.37
20.71
19.27
18.05
16.80
15.21
13.00
10.07
6.59
2.87
-0.74
-4.03
-7.01
-9.89
-12.88
-16.08
-19.55
-23.25
-27.20
-31.41
-35.70
-39.58
-42.25
-42.78
-40.55
-35.51
-28.32
-20.12
-12.04
-4.82
1.32
6.53
11.07
15.01
18.26
20.68
22.28
23.27
23.95
24.60
25.29
25.88
26.26
26.31
26.07
25.61
25.04
24.34
23.44
22.24
20.66
18.66
16.27
13.58
10.69
7.75
4.83
2.02
-0.66
-3.18
-5.59
-7.91
-10.23
-12.76
-15.79
-19.62
-24.44
-30.09
-36.01
-41.33
-45.09
-46.47
-45.05
-40.84
-34.25
-25.99
-16.90
-7.84
0.44
7.48
13.16
17.68
21.37
24.48
27.07
28.98
30.07
30.33
30.00
29.43
28.96
28.76
28.76
28.80
28.76
28.57
28.23
27.76
27.14
26.31
25.17
23.64
21.67
19.19
16.19
12.68
8.82
4.84
1.07
-2.27
-5.11
-7.60
-10.06
-12.84
-16.29
-20.58
-25.72
-31.44
-37.21
-42.16
-45.31
-45.78
-43.11
-37.49
-29.75
-21.09
-12.65
-5.20
1.02
6.19
10.63
14.65
18.30
21.45
23.91
25.60
26.62
27.25
27.82
28.49
29.28
29.97
30.33
30.21
29.68
28.92
28.07
27.12
25.89
24.14
21.74
18.76
15.48
12.23
9.22
6.52
4.00
1.40
-1.45
-4.61
-7.92
-11.08
-13.86
-16.30
-18.75
-21.81
-26.00
-31.35
-37.26
-42.55
-45.90
-46.31
-43.52
-37.99
-30.67
-22.69
-14.91
-7.87
-1.73
3.57
8.19
12.22
15.62
18.29
20.15
21.23
21.75
22.04
22.44
23.11
23.98
24.76
25.16
24.99
24.25
23.08
21.70
20.32
19.04
17.87
16.72
15.44
13.89
11.99
9.74
7.17
4.36
1.39
-1.63
-4.59
-7.40
-10.00
-12.41
-14.73
-17.16
-19.94
-23.31
-27.38
-31.96
-36.54
-40.23
-42.01
-41.04
-37.02
-30.41
-22.21
-13.73
-5.98
0.51
5.78
10.16
14.00
17.43
20.34
22.53
23.84
24.33
24.25
23.99
23.90
24.18
24.85
25.72
26.60
27.30
27.68
27.64
27.09
25.96
24.25
22.07
19.63
17.13
14.68
12.25
9.71
6.98
4.04
1.04
-1.85
-4.56
-7.11
-9.64
-12.34
-15.37
-18.80
-22.63
-26.77
-31.00
-34.93
-38.04
-39.71
-39.42
-36.91
-32.30
-26.15
-19.25
-12.42
-6.29
-1.20
2.89
6.14
8.75
10.85
12.47
13.64
14.45
15.07
15.68
16.40
17.14
17.73
18.00
17.80
17.21
16.40
15.56
14.87
14.30
13.68
12.67
10.99
8.53
5.41
1.98
-1.34
-4.19
-6.51
-8.40
-10.16
-12.10
-14.47
-17.44
-21.06
-25.20
-29.47
-33.16
-35.41
-35.46
-32.93
-28.01
-21.43
-14.19
-7.24
-1.26
3.49
7.12
9.89
12.08
13.84
15.18
16.09
16.54
16.68
16.75
16.95
17.34
17.80
18.02
17.76
16.98
15.88
14.77
13.88
13.20
12.45
11.31
9.50
6.99
3.94
0.62
-2.67
-5.73
-8.40
-10.68
-12.64
-14.47
-16.43
-18.85
-21.95
-25.79
-30.11
-34.33
-37.64
-39.23
-38.52
-35.36
-30.20
-23.89
-17.48
-11.80
-7.18
-3.48
-0.20
3.09
6.52
9.86
12.69
14.67
15.69
15.97
15.84
15.64
15.51
15.39
15.19
14.80
14.26
13.68
13.22
12.94
12.78
12.53
11.91
10.69
8.81
6.35
3.58
0.78
-1.80
-4.09
-6.14
-8.16
-10.41
-13.12
-16.53
-20.68
-25.43
-30.39
-34.95
-38.36
-39.94
-39.24
-36.24
-31.33
-25.21
-18.67
-12.41
-6.79
-1.92
2.31
6.01
9.23
11.88
13.87
15.23
16.08
16.69
17.30
18.03
18.83
19.51
19.85
19.69
18.97
17.76
16.22
14.56
12.92
11.40
9.95
8.51
7.02
5.51
4.06
2.73
1.47
0.10
-1.66
-4.01
-6.96
-10.32
-13.80
-17.22
-20.61
-24.20
-28.15
-32.27
-35.91
-38.12
-38.06
-35.41
-30.57
-24.44
-18.08
-12.20
-7.08
-2.60
1.41
4.97
7.96
10.23
11.78
12.84
13.72
14.66
15.70
16.74
17.61
18.22
18.58
18.75
18.76
18.62
18.29
17.73
16.91
15.83
14.47
12.84
10.90
8.66
6.17
3.52
0.83
-1.77
-4.15
-6.27
-8.21
-10.15
-12.33
-14.95
-18.08
-21.65
-25.51
-29.42
-33.14
-36.36
-38.69
-39.69
-38.94
-36.28
-31.88
-26.24
-20.06
-14.02
-8.58
-3.87
0.08
3.37
6.06
8.23
10.00
11.53
13.00
14.54
16.13
17.58
18.74
19.47
19.79
19.83
19.75
19.63
19.46
19.16
18.64
17.85
16.73
15.30
13.58
11.65
9.61
7.55
5.50
3.39
1.11
-1.44
-4.29
-7.31
-10.32
-13.20
-15.97
-18.86
-22.12
-25.87
-29.90
-33.68
-36.38
-37.27
-35.91
-32.39
-27.27
-21.39
-15.60
-10.39
-5.87
-1.88
1.78
5.14
8.05
10.32
11.90
12.97
13.90
14.96
16.23
17.48
18.36
18.58
18.10
17.09
15.88
14.78
13.94
13.40
13.02
12.57
11.76
10.34
8.22
5.52
2.56
-0.30
-2.80
-4.88
-6.73
-8.59
-10.71
-13.22
-16.16
-19.46
-22.89
-26.08
-28.47
-29.50
-28.70
-26.02
-21.73
-16.42
-10.73
-5.19
-0.08
4.49
8.44
11.66
13.97
15.21
15.43
14.87
13.98
13.25
12.99
13.22
13.71
14.11
14.12
13.67
12.96
12.27
11.84
11.61
11.33
10.59
9.09
6.78
3.92
0.94
-1.71
-3.77
-5.26
-6.42
-7.59
-9.11
-11.26
-14.22
-18.08
-22.73
-27.77
-32.39
-35.62
-36.59
-34.92
-30.94
-25.50
-19.62
-14.04
-9.05
-4.52
-0.27
3.72
7.23
10.01
12.00
13.47
14.84
16.47
18.43
20.48
22.25
23.43
23.90
23.78
23.27
22.57
21.82
21.07
20.31
19.51
18.49
17.06
15.00
12.24
8.94
5.44
2.13
-0.73
-3.12
-5.26
-7.38
-9.68
-12.20
-14.95
-17.98
-21.45
-25.45
-29.84
-34.12
-37.50
-39.17
-38.60
-35.79
-31.22
-25.73
-20.07
-14.74
-9.90
-5.42
-1.13
3.06
7.09
10.75
13.84
16.26
18.05
19.33
20.31
21.12
21.83
22.42
22.87
23.14
23.22
23.09
22.70
22.00
20.99
19.65
18.05
16.28
14.34
12.18
9.74
6.99
4.00
0.93
-2.07
-4.90
-7.57
-10.15
-12.72
-15.32
-18.01
-20.95
-24.25
-27.98
-31.87
-35.29
-37.36
-37.29
-34.72
-29.94
-23.78
-17.24
-11.11
-5.77
-1.16
2.93
6.72
10.19
13.17
15.49
17.12
18.19
19.01
19.80
20.65
21.50
22.17
22.52
22.55
22.37
22.18
22.06
22.02
21.87
21.36
20.26
18.45
16.03
13.20
10.18
7.18
4.30
1.56
-1.03
-3.47
-5.81
-8.11
-10.50
-13.14
-16.15
-19.60
-23.46
-27.53
-31.44
-34.70
-36.67
-36.87
-35.06
-31.41
-26.45
-20.91
-15.38
-10.19
-5.32
-0.65
3.95
8.40
12.47
15.85
18.36
19.99
20.90
21.38
21.67
21.96
22.30
22.63
22.82
22.77
22.39
21.72
20.82
19.83
18.83
17.89
16.97
15.91
14.49
12.49
9.84
6.68
3.39
0.40
-2.04
-4.00
-5.80
-7.88
-10.53
-13.76
-17.36
-21.07
-24.69
-28.03
-30.89
-32.83
-33.31
-31.98
-28.78
-24.16
-18.81
-13.37
-8.17
-3.26
1.46
5.96
10.02
13.29
15.49
16.60
16.91
16.96
17.24
18.05
19.32
20.75
21.87
22.26
21.80
20.65
19.25
18.05
17.29
16.90
16.47
15.54
13.79
11.16
7.95
4.59
1.50
-1.10
-3.26
-5.23
-7.35
-9.96
-13.27
-17.29
-21.84
-26.51
-30.67
-33.61
-34.76
-33.79
-30.79
-26.20
-20.67
-14.85
-9.20
-4.02
0.56
4.47
7.66
10.12
11.89
13.11
13.98
14.75
15.61
16.65
17.82
18.97
19.86
20.28
20.10
19.36
18.28
17.12
16.09
15.21
14.30
13.06
11.30
9.00
6.39
3.78
1.39
-0.78
-2.86
-5.07
-7.55
-10.30
-13.30
-16.61
-20.38
-24.75
-29.61
-34.43
-38.36
-40.49
-40.18
-37.33
-32.37
-26.09
-19.36
-12.88
-7.08
-2.06
2.23
5.96
9.23
12.08
14.50
16.41
17.81
18.75
19.38
19.82
20.20
20.58
20.93
21.19
21.31
21.23
20.90
20.29
19.41
18.27
16.92
15.33
13.50
11.40
9.07
6.59
4.07
1.63
-0.68
-2.88
-5.14
-7.58
-10.33
-13.47
-17.04
-21.08
-25.61
-30.42
-35.09
-38.92
-41.06
-40.89
-38.19
-33.33
-27.10
-20.46
-14.17
-8.64
-3.91
0.25
4.06
7.58
10.76
13.43
15.48
16.90
17.86
18.64
19.51
20.64
21.96
23.18
23.93
23.92
23.06
21.51
19.57
17.54
15.64
13.96
12.53
11.30
10.15
8.87
7.19
4.89
1.96
-1.38
-4.69
-7.55
-9.82
-11.69
-13.64
-16.26
-19.89
-24.45
-29.42
-33.96
-37.17
-38.37
-37.26
-33.97
-29.00
-22.97
-16.52
-10.11
-4.07
1.37
6.05
9.82
12.68
14.76
16.31
17.59
18.72
19.69
20.36
20.69
20.75
20.81
21.08
21.63
22.29
22.73
22.63
21.90
20.64
19.11
17.54
16.00
14.39
12.61
10.63
8.56
6.55
4.67
2.86
0.99
-1.04
-3.24
-5.58
-8.11
-10.98
-14.50
-18.84
-23.88
-29.07
-33.51
-36.24
-36.56
-34.35
-30.03
-24.39
-18.36
-12.70
-7.78
-3.68
-0.21
2.92
5.86
8.64
11.15
13.21
14.76
15.91
16.82
17.66
18.47
19.20
19.75
20.08
20.31
20.55
20.80
20.92
20.64
19.77
18.28
16.42
14.49
12.70
11.11
9.62
8.07
6.38
4.51
2.49
0.32
-1.99
-4.42
-6.87
-9.30
-11.76
-14.40
-17.48
-21.08
-25.02
-28.79
-31.68
-32.99
-32.32
-29.67
-25.44
-20.31
-14.97
-9.96
-5.62
-2.02
0.93
3.32
5.18
6.50
7.25
7.53
7.54
7.59
7.96
8.72
9.79
10.91
11.82
12.40
12.73
12.94
13.18
13.41
13.44
12.96
11.75
9.73
7.02
3.93
0.84
-1.91
-4.16
-5.93
-7.41
-8.88
-10.67
-13.08
-16.22
-20.03
-24.15
-27.98
-30.82
-32.01
-31.16
-28.32
-23.93
-18.71
-13.39
-8.50
-4.26
-0.59
2.67
5.63
8.23
10.30
11.71
12.46
12.77
12.95
13.24
13.69
14.10
14.24
13.99
13.41
12.76
12.29
12.14
12.25
12.45
12.53
12.33
11.76
10.76
9.30
7.36
5.02
2.41
-0.29
-2.94
-5.46
-7.86
-10.19
-12.51
-14.95
-17.66
-20.82
-24.44
-28.33
-31.99
-34.73
-35.92
-35.21
-32.64
-28.64
-23.81
-18.74
-13.84
-9.30
-5.20
-1.54
1.68
4.46
6.82
8.82
10.53
12.00
13.25
14.27
15.03
15.58
16.03
16.51
17.05
17.58
17.86
17.67
16.92
15.79
14.68
13.92
13.63
13.59
13.29
12.26
10.24
7.34
3.95
0.49
-2.71
-5.54
-8.03
-10.29
-12.45
-14.63
-17.02
-19.85
-23.27
-27.26
-31.44
-35.08
-37.34
-37.56
-35.49
-31.51
-26.38
-20.97
-15.92
-11.50
-7.60
-3.99
-0.56
2.68
5.56
7.99
10.00
11.76
13.41
15.02
16.57
17.93
19.05
19.93
20.70
21.47
22.27
23.05
23.59
23.66
23.09
21.83
19.98
17.82
15.67
13.80
12.29
11.03
9.75
8.14
6.01
3.40
0.48
-2.46
-5.25
-7.80
-10.20
-12.64
-15.36
-18.57
-22.48
-27.07
-32.05
-36.81
-40.48
-42.22
-41.53
-38.44
-33.55
-27.73
-21.85
-16.40
-11.51
-7.05
-2.88
1.00
4.48
7.41
9.77
11.71
13.37
14.90
16.32
17.54
18.51
19.17
19.61
19.92
20.18
20.42
20.62
20.76
20.78
20.60
20.12
19.26
18.04
16.61
15.19
13.91
12.74
11.39
9.55
7.02
3.91
0.61
-2.42
-4.82
-6.55
-7.90
-9.41
-11.64
-15.01
-19.55
-24.91
-30.35
-34.89
-37.59
-37.80
-35.39
-30.77
-24.80
-18.42
-12.41
-7.18
-2.77
1.02
4.45
7.70
10.74
13.44
15.60
17.13
18.11
18.71
19.16
19.54
19.88
20.11
20.20
20.17
20.09
19.96
19.71
19.25
18.54
17.64
16.69
15.77
14.87
13.80
12.36
10.47
8.20
5.73
3.21
0.70
-1.87
-4.54
-7.28
-10.05
-12.86
-15.86
-19.34
-23.44
-27.92
-32.12
-35.07
-35.83
-33.99
-29.75
-23.93
-17.56
-11.56
-6.46
-2.33
0.99
3.77
6.19
8.24
9.84
10.95
11.63
12.10
12.63
13.43
14.53
15.78
16.88
17.55
17.65
17.25
16.58
15.88
15.29
14.76
14.10
13.08
11.53
9.48
7.08
4.62
2.37
0.52
-0.95
-2.23
-3.66
-5.57
-8.25
-11.77
-15.99
-20.52
-24.82
-28.36
-30.70
-31.61
-31.07
-29.20
-26.24
-22.44
-18.03
-13.24
-8.31
-3.51
0.92
4.81
8.05
10.59
12.46
13.67
14.32
14.58
14.67
14.82
15.18
15.76
16.44
17.00
17.23
16.98
16.26
15.13
13.76
12.37
11.15
10.25
9.65
9.12
8.32
6.90
4.68
1.82
-1.35
-4.39
-6.99
-9.17
-11.14
-13.31
-16.03
-19.45
-23.42
-27.56
-31.28
-33.92
-34.97
-34.11
-31.36
-27.04
-21.73
-16.05
-10.52
-5.49
-1.03
2.89
6.37
9.47
12.10
14.14
15.49
16.13
16.20
15.99
15.84
16.01
16.56
17.28
17.85
17.98
17.56
16.72
15.78
15.05
14.62
14.30
13.74
12.57
10.69
8.25
5.57
2.91
0.32
-2.27
-4.99
-7.88
-10.91
-14.03
-17.35
-21.02
-25.16
-29.55
-33.59
-36.41
-37.21
-35.57
-31.66
-26.20
-20.06
-14.03
-8.51
-3.59
0.86
4.96
8.71
11.95
14.47
16.18
17.15
17.64
17.94
18.33
18.84
19.40
19.81
19.97
19.96
20.00
20.34
21.04
21.91
22.53
22.45
21.39
19.37
16.69
13.77
10.89
8.19
5.57
2.93
0.23
-2.46
-5.03
-7.40
-9.71
-12.24
-15.36
-19.30
-23.93
-28.66
-32.62
-34.85
-34.80
-32.49
-28.45
-23.53
-18.48
-13.72
-9.33
-5.24
-1.37
2.19
5.27
7.74
9.62
10.99
11.99
12.79
13.50
14.22
14.94
15.63
16.13
16.23
15.83
14.98
13.96
13.09
12.67
12.76
13.18
13.56
13.51
12.72
11.08
8.69
5.85
2.95
0.30
-1.91
-3.81
-5.75
-8.19
-11.48
-15.67
-20.33
-24.71
-27.92
-29.29
-28.56
-25.97
-22.06
-17.45
-12.63
-7.93
-3.48
0.66
4.41
7.68
10.39
12.43
13.80
14.51
14.69
14.56
14.41
14.47
14.80
15.30
15.69
15.79
15.49
14.97
14.44
14.13
14.05
14.02
13.75
12.92
11.38
9.15
6.47
3.69
1.17
-0.84
-2.33
-3.53
-4.85
-6.72
-9.45
-13.12
-17.57
-22.44
-27.21
-31.25
-33.94
-34.76
-33.49
-30.24
-25.44
-19.72
-13.75
-8.08
-3.05
1.18
4.63
7.38
9.61
11.55
13.41
15.28
17.11
18.67
19.70
20.07
19.81
19.20
18.59
18.29
18.38
18.73
19.05
19.09
18.64
17.68
16.28
14.56
12.61
10.50
8.27
5.94
3.60
1.31
-0.85
-2.90
-4.88
-6.98
-9.42
-12.43
-16.17
-20.63
-25.57
-30.49
-34.70
-37.50
-38.37
-37.15
-34.08
-29.71
-24.70
-19.56
-14.57
-9.75
-5.02
-0.38
3.99
7.80
10.77
12.82
14.11
14.98
15.84
17.00
18.52
20.23
21.78
22.78
22.94
22.25
20.91
19.31
17.87
16.82
16.16
15.64
14.93
13.74
12.01
9.83
7.36
4.74
2.01
-0.86
-3.79
-6.63
-9.21
-11.40
-13.33
-15.36
-17.86
-21.09
-24.87
-28.63
-31.52
-32.69
-31.66
-28.47
-23.66
-18.06
-12.46
-7.40
-3.11
0.47
3.47
6.02
8.18
9.97
11.47
12.79
14.07
15.37
16.57
17.48
17.92
17.85
17.40
16.84
16.46
16.42
16.61
16.75
16.49
15.56
13.91
11.67
9.07
6.36
3.72
1.23
-1.03
-3.06
-4.84
-6.47
-8.10
-10.02
-12.51
-15.75
-19.63
-23.83
-27.76
-30.81
-32.43
-32.27
-30.30
-26.70
-21.96
-16.64
-11.37
-6.61
-2.61
0.60
3.15
5.17
6.74
7.86
8.53
8.82
8.91
8.99
9.21
9.58
9.97
10.24
10.34
10.37
10.48
10.73
10.99
10.97
10.35
8.97
6.87
4.31
1.65
-0.87
-3.16
-5.34
-7.60
-10.13
-13.06
-16.43
-20.17
-24.10
-27.87
-30.96
-32.86
-33.22
-31.97
-29.38
-25.83
-21.71
-17.22
-12.45
-7.49
-2.51
2.15
6.07
8.99
10.83
11.80
12.27
12.63
13.16
14.00
15.08
16.27
17.31
18.03
18.24
17.93
17.17
16.11
14.91
13.63
12.19
10.48
8.39
5.96
3.37
0.86
-1.34
-3.21
-4.93
-6.77
-9.03
-11.89
-15.38
-19.36
-23.57
-27.60
-30.96
-33.04
-33.38
-31.80
-28.52
-24.10
-19.25
-14.50
-10.09
-5.92
-1.83
2.32
6.39
10.11
13.20
15.57
17.30
18.55
19.47
20.15
20.61
20.95
21.29
21.76
22.39
23.08
23.62
23.77
23.39
22.51
21.27
19.83
18.33
16.80
15.23
13.57
11.75
9.74
7.47
4.89
1.96
-1.34
-5.00
-8.98
-13.12
-17.28
-21.23
-24.75
-27.58
-29.43
-29.97
-28.96
-26.36
-22.36
-17.40
-12.05
-6.79
-1.88
2.64
6.87
10.86
14.54
17.67
20.03
21.56
22.41
22.87
23.25
23.68
24.13
24.41
24.40
24.06
23.55
23.06
22.73
22.52
22.22
21.62
20.51
18.88
16.88
14.75
12.66
10.73
8.91
7.11
5.22
3.17
0.99
-1.32
-3.80
-6.57
-9.79
-13.58
-17.83
-22.15
-25.88
-28.28
-28.80
-27.26
-23.98
-19.63
-14.92
-10.39
-6.22
-2.31
1.53
5.30
8.79
11.64
13.54
14.45
14.62
14.50
14.51
14.87
15.53
16.26
16.83
17.09
17.03
16.72
16.22
15.61
14.92
14.18
13.34
12.32
11.00
9.30
7.24
5.03
2.92
1.12
-0.34
-1.67
-3.20
-5.23
-7.91
-11.17
-14.85
-18.70
-22.45
-25.78
-28.24
-29.35
-28.75
-26.34
-22.42
-17.59
-12.56
-7.95
-4.10
-1.03
1.41
3.37
4.97
6.26
7.27
8.12
8.93
9.85
10.88
11.92
12.74
13.12
12.97
12.42
11.73
11.26
11.19
11.54
12.05
12.43
12.39
11.81
10.67
9.13
7.37
5.57
3.84
2.20
0.57
-1.14
-3.06
-5.28
-7.89
-10.95
-14.50
-18.50
-22.75
-26.77
-29.96
-31.68
-31.56
-29.59
-26.22
-22.06
-17.71
-13.52
-9.59
-5.88
-2.38
0.88
3.77
6.18
8.05
9.39
10.23
10.65
10.77
10.74
10.79
11.03
11.50
12.13
12.71
13.05
13.00
12.55
11.81
10.93
10.04
9.23
8.44
7.56
6.44
4.97
3.15
1.09
-0.99
-2.96
-4.75
-6.47
-8.31
-10.45
-13.01
-15.99
-19.28
-22.72
-26.07
-28.96
-30.99
-31.74
-30.96
-28.61
-24.97
-20.50
-15.74
-11.14
-7.04
-3.58
-0.76
1.58
3.60
5.41
7.08
8.55
9.69
10.36
10.54
10.31
9.92
9.68
9.81
10.43
11.40
12.41
13.12
13.24
12.72
11.68
10.41
9.17
8.10
7.11
6.03
4.74
3.22
1.58
0.02
-1.30
-2.40
-3.42
-4.62
-6.25
-8.53
-11.54
-15.18
-19.20
-23.17
-26.54
-28.78
-29.49
-28.50
-25.94
-22.16
-17.73
-13.19
-9.00
-5.46
-2.66
-0.50
1.15
2.52
3.75
4.98
6.23
7.45
8.54
9.36
9.78
9.77
9.42
8.90
8.43
8.18
8.23
8.55
9.01
9.43
9.57
9.18
8.07
6.17
3.64
0.83
-1.79
-3.88
-5.34
-6.41
-7.53
-9.10
-11.35
-14.16
-17.25
-20.32
-23.15
-25.61
-27.53
-28.62
-28.49
-26.86
-23.73
-19.49
-14.82
-10.42
-6.78
-4.01
-1.92
-0.21
1.37
2.92
4.38
5.70
6.84
7.85
8.80
9.71
10.53
11.14
11.42
11.32
10.88
10.26
9.57
8.89
8.13
7.14
5.71
3.78
1.39
-1.28
-4.00
-6.60
-8.97
-11.15
-13.21
-15.36
-17.79
-20.60
-23.78
-27.07
-29.94
-31.81
-32.15
-30.80
-27.93
-24.04
-19.69
-15.28
-10.98
-6.71
-2.42
1.76
5.51
8.41
10.20
10.90
10.84
10.55
10.55
11.18
12.50
14.30
16.15
17.60
18.27
17.98
16.83
15.13
13.32
11.77
10.63
9.80
9.02
8.03
6.66
4.88
2.76
0.34
-2.29
-5.05
-7.79
-10.35
-12.68
-14.98
-17.56
-20.78
-24.70
-28.99
-32.97
-35.85
-37.05
-36.30
-33.74
-29.70
-24.64
-19.00
-13.22
-7.67
-2.66
1.66
5.33
8.44
11.14
13.47
15.41
16.97
18.24
19.40
20.67
22.13
23.71
25.08
25.90
25.91
25.11
23.80
22.38
21.21
20.41
19.86
19.24
18.27
16.79
14.79
12.40
9.70
6.81
3.79
0.71
-2.29
-5.12
-7.79
-10.42
-13.25
-16.54
-20.44
-24.88
-29.46
-33.47
-36.09
-36.64
-34.83
-30.92
-25.61
-19.76
-14.11
-9.04
-4.57
-0.50
3.36
7.03
10.34
13.00
14.83
15.83
16.19
16.29
16.50
17.05
17.94
19.02
20.03
20.77
21.18
21.30
21.24
21.05
20.77
20.31
19.52
18.26
16.49
14.22
11.55
8.68
5.76
2.99
0.48
-1.74
-3.74
-5.77
-8.09
-11.01
-14.67
-18.98
-23.55
-27.72
-30.70
-31.79
-30.60
-27.18
-22.04
-16.04
-10.09
-4.88
-0.72
2.46
4.94
6.98
8.70
10.09
11.08
11.77
12.36
13.13
14.20
15.46
16.59
17.23
17.18
16.54
15.66
14.98
14.76
14.93
15.08
14.66
13.23
10.70
7.37
3.80
0.56
-2.05
-4.05
-5.71
-7.38
-9.40
-11.94
-15.08
-18.75
-22.73
-26.50
-29.32
-30.44
-29.35
-26.01
-20.87
-14.73
-8.38
-2.39
2.96
7.60
11.42
14.30
16.12
16.89
16.87
16.48
16.13
16.16
16.65
17.50
18.46
19.25
19.64
19.49
18.82
17.83
16.76
15.82
15.02
14.17
13.03
11.41
9.30
6.85
4.28
1.67
-0.93
-3.54
-6.15
-8.72
-11.24
-13.81
-16.71
-20.19
-24.34
-28.92
-33.36
-36.90
-38.80
-38.55
-36.00
-31.41
-25.37
-18.75
-12.31
-6.63
-1.85
2.18
5.76
9.12
12.26
15.01
17.16
18.67
19.66
20.37
21.01
21.64
22.23
22.64
22.78
22.57
22.01
21.15
20.06
18.86
17.59
16.27
14.83
13.13
11.07
8.65
5.99
3.28
0.75
-1.55
-3.62
-5.61
-7.72
-10.09
-12.90
-16.34
-20.53
-25.42
-30.65
-35.45
-38.81
-39.85
-38.09
-33.73
-27.58
-20.68
-13.99
-8.04
-2.95
1.44
5.35
8.93
12.23
15.26
18.05
20.54
22.65
24.27
25.29
25.73
25.79
25.73
25.78
26.06
26.49
26.91
27.08
26.85
26.16
25.06
23.63
21.89
19.84
17.45
14.68
11.58
8.29
4.97
1.78
-1.20
-4.01
-6.74
-9.61
-12.81
-16.56
-20.99
-26.06
-31.52
-36.77
-41.06
-43.54
-43.60
-41.03
-36.06
-29.33
-21.72
-14.11
-7.18
-1.33
3.32
6.88
9.56
11.56
13.05
14.15
14.99
15.68
16.32
16.94
17.49
17.81
17.80
17.41
16.79
16.13
15.54
14.97
14.18
12.90
11.00
8.63
6.13
3.90
2.14
0.78
-0.53
-2.22
-4.65
-7.95
-12.02
-16.64
-21.46
-26.12
-30.17
-33.14
-34.51
-33.87
-31.02
-26.09
-19.58
-12.25
-4.96
1.64
7.13
11.42
14.57
16.73
17.95
18.34
18.05
17.39
16.73
16.39
16.53
17.04
17.71
18.32
18.76
19.06
19.25
19.30
19.04
18.28
16.85
14.73
12.05
9.03
5.87
2.72
-0.31
-3.23
-6.06
-8.94
-12.06
-15.67
-19.97
-25.01
-30.53
-35.90
-40.24
-42.60
-42.31
-39.21
-33.76
-26.92
-19.82
-13.36
-7.99
-3.68
-0.11
3.12
6.27
9.44
12.58
15.62
18.44
20.99
23.21
25.09
26.64
27.92
28.93
29.65
30.02
29.94
29.39
28.40
27.09
25.56
23.84
21.82
19.35
16.35
12.89
9.14
5.39
1.87
-1.29
-4.14
-6.88
-9.84
-13.34
-17.64
-22.78
-28.54
-34.30
-39.16
-42.13
-42.45
-39.84
-34.68
-27.85
-20.44
-13.28
-6.80
-0.95
4.48
9.64
14.42
18.54
21.71
23.89
25.30
26.26
27.05
27.79
28.45
28.98
29.33
29.55
29.62
29.53
29.23
28.76
28.21
27.64
27.01
26.06
24.45
21.94
18.52
14.49
10.34
6.49
3.18
0.38
-2.10
-4.46
-6.95
-9.82
-13.34
-17.73
-22.99
-28.77
-34.27
-38.47
-40.40
-39.56
-36.11
-30.72
-24.36
-17.86
-11.66
-5.80
-0.14
5.40
10.70
15.41
19.13
21.60
22.84
23.07
22.72
22.13
21.55
21.07
20.70
20.44
20.30
20.32
20.50
20.76
20.89
20.64
19.72
17.99
15.47
12.34
8.91
5.57
2.62
0.25
-1.54
-2.98
-4.49
-6.55
-9.57
-13.77
-18.96
-24.55
-29.70
-33.47
-35.19
-34.53
-31.60
-26.85
-20.90
-14.38
-7.84
-1.65
3.90
8.60
12.33
15.01
16.68
17.48
17.64
17.43
17.08
16.78
16.63
16.66
16.81
16.96
16.94
16.65
16.02
15.16
14.24
13.35
12.44
11.30
9.60
7.18
4.08
0.65
-2.62
-5.33
-7.31
-8.75
-10.07
-11.83
-14.46
-18.19
-22.90
-28.18
-33.30
-37.46
-39.92
-40.15
-38.01
-33.75
-27.89
-21.15
-14.28
-7.88
-2.33
2.24
5.93
8.96
11.55
13.89
16.04
17.89
19.32
20.19
20.44
20.17
19.62
19.12
18.92
19.11
19.61
20.16
20.47
20.28
19.54
18.28
16.65
14.77
12.64
10.24
7.50
4.45
1.22
-1.98
-4.95
-7.61
-9.97
-12.25
-14.72
-17.68
-21.32
-25.61
-30.16
-34.33
-37.29
-38.27
-36.84
-33.06
-27.47
-20.95
-14.38
-8.43
-3.40
0.73
4.18
7.19
9.89
12.26
14.17
15.54
16.43
17.02
17.54
18.17
18.90
19.60
20.03
20.05
19.71
19.18
18.67
18.32
18.12
17.88
17.33
16.20
14.30
11.63
8.36
4.77
1.23
-1.99
-4.78
-7.22
-9.48
-11.74
-14.16
-16.82
-19.79
-23.14
-26.81
-30.60
-34.00
-36.25
-36.57
-34.54
-30.26
-24.37
-17.84
-11.57
-6.12
-1.61
2.12
5.28
7.97
10.11
11.60
12.42
12.74
12.86
13.05
13.44
13.91
14.25
14.21
13.74
12.97
12.14
11.46
11.00
10.63
10.06
9.02
7.35
5.13
2.52
-0.19
-2.77
-5.04
-6.92
-8.49
-9.96
-11.68
-14.03
-17.28
-21.38
-25.93
-30.21
-33.36
-34.68
-33.74
-30.59
-25.63
-19.57
-13.20
-7.29
-2.37
1.31
3.85
5.56
6.86
8.04
9.19
10.21
11.00
11.55
11.99
12.55
13.37
14.38
15.35
15.96
16.03
15.56
14.72
13.73
12.70
11.60
10.23
8.47
6.24
3.64
0.89
-1.74
-4.03
-5.83
-7.17
-8.24
-9.36
-10.94
-13.31
-16.68
-21.02
-26.01
-31.14
-35.71
-39.05
-40.56
-39.91
-37.07
-32.37
-26.48
-20.14
-14.03
-8.58
-3.89
0.10
3.53
6.44
8.84
10.70
12.12
13.25
14.33
15.47
16.65
17.69
18.43
18.82
18.94
19.04
19.26
19.56
19.77
19.64
19.01
17.89
16.41
14.67
12.72
10.48
7.89
4.96
1.85
-1.17
-3.87
-6.16
-8.21
-10.30
-12.78
-15.92
-19.78
-24.24
-29.03
-33.78
-37.97
-41.04
-42.35
-41.40
-38.01
-32.45
-25.50
-18.20
-11.54
-6.08
-1.89
1.34
4.04
6.54
8.95
11.22
13.33
15.23
16.94
18.41
19.46
19.87
19.53
18.53
17.18
15.93
15.16
15.08
15.59
16.38
17.01
17.03
16.14
14.25
11.48
8.16
4.68
1.38
-1.53
-4.02
-6.25
-8.47
-10.96
-13.93
-17.49
-21.61
-26.13
-30.71
-34.83
-37.84
-39.11
-38.19
-35.02
-30.00
-23.83
-17.36
-11.25
-5.90
-1.39
2.34
5.35
7.65
9.25
10.28
11.03
11.85
12.97
14.36
15.76
16.85
17.41
17.49
17.35
17.22
17.25
17.32
17.25
16.82
15.97
14.71
13.09
11.14
8.82
6.09
3.03
-0.21
-3.37
-6.23
-8.72
-10.97
-13.35
-16.30
-20.16
-24.97
-30.35
-35.52
-39.58
-41.75
-41.65
-39.35
-35.30
-30.04
-24.08
-17.85
-11.68
-5.84
-0.56
4.04
7.93
11.17
13.82
15.90
17.43
18.47
19.18
19.82
20.60
21.63
22.77
23.76
24.34
24.38
23.92
23.11
22.18
21.24
20.33
19.37
18.23
16.76
14.86
12.53
9.87
7.07
4.33
1.78
-0.58
-2.88
-5.29
-8.02
-11.18
-14.87
-19.16
-24.00
-29.22
-34.36
-38.73
-41.55
-42.13
-40.17
-35.85
-29.80
-22.88
-15.87
-9.31
-3.45
1.71
6.21
10.07
13.31
15.92
17.93
19.42
20.45
21.06
21.31
21.25
21.08
21.00
21.20
21.73
22.46
23.10
23.36
23.04
22.07
20.53
18.55
16.25
13.77
11.17
8.53
5.95
3.50
1.22
-0.89
-2.93
-5.06
-7.45
-10.34
-13.94
-18.36
-23.49
-28.94
-34.02
-37.90
-39.91
-39.69
-37.34
-33.29
-28.14
-22.50
-16.79
-11.30
-6.23
-1.73
2.07
5.11
7.39
9.05
10.23
11.15
11.94
12.71
13.47
14.19
14.84
15.42
15.98
16.56
17.12
17.47
17.32
16.38
14.49
11.75
8.47
5.11
2.07
-0.42
-2.35
-3.88
-5.33
-7.07
-9.47
-12.81
-17.18
-22.35
-27.77
-32.61
-35.96
-37.06
-35.56
-31.62
-25.86
-19.15
-12.36
-6.09
-0.66
3.89
7.65
10.74
13.18
14.99
16.25
17.14
17.88
18.68
19.62
20.63
21.53
22.16
22.42
22.35
22.09
21.81
21.64
21.57
21.46
21.00
19.82
17.62
14.28
9.97
5.11
0.24
-4.16
-7.88
-10.92
-13.55
-16.14
-19.07
-22.71
-27.21
-32.44
-37.84
-42.53
-45.44
-45.74
-43.08
-37.79
-30.66
-22.72
-14.84
-7.58
-1.09
4.60
9.55
13.74
17.12
19.70
21.66
23.25
24.74
26.25
27.73
28.95
29.64
29.62
28.91
27.76
26.47
25.34
24.51
23.87
23.10
21.84
19.82
16.94
13.45
9.78
6.45
3.78
1.80
0.25
-1.34
-3.44
-6.36
-10.23
-14.98
-20.29
-25.63
-30.28
-33.46
-34.49
-33.07
-29.35
-23.86
-17.42
-10.86
-4.77
0.55
5.11
9.11
12.79
16.25
19.47
22.29
24.52
26.09
27.06
27.64
28.03
28.33
28.52
28.45
28.01
27.22
26.21
25.17
24.21
23.24
21.97
20.07
17.34
13.86
10.05
6.43
3.33
0.85
-1.30
-3.55
-6.26
-9.57
-13.45
-17.79
-22.43
-27.15
-31.53
-34.87
-36.34
-35.36
-31.80
-26.11
-19.19
-12.01
-5.33
0.42
5.11
8.81
11.61
13.67
15.21
16.49
17.71
18.86
19.84
20.40
20.46
20.08
19.49
18.91
18.47
18.11
17.74
17.27
16.68
15.96
15.00
13.63
11.69
9.19
6.38
3.67
1.37
-0.52
-2.32
-4.51
-7.50
-11.45
-16.15
-21.19
-26.03
-30.12
-32.93
-34.01
-33.07
-30.18
-25.71
-20.33
-14.75
-9.42
-4.51
0.08
4.48
8.70
12.50
15.59
17.75
19.02
19.68
20.06
20.47
20.97
21.45
21.71
21.60
21.12
20.40
19.59
18.82
18.15
17.49
16.65
15.41
13.58
11.11
8.14
4.98
2.01
-0.49
-2.47
-4.08
-5.64
-7.48
-9.81
-12.77
-16.40
-20.67
-25.42
-30.23
-34.49
-37.45
-38.52
-37.42
-34.36
-29.86
-24.59
-19.09
-13.67
-8.49
-3.56
1.06
5.27
8.87
11.77
13.93
15.40
16.30
16.81
17.12
17.42
17.84
18.41
19.10
19.77
20.29
20.60
20.70
20.64
20.42
19.94
19.07
17.67
15.71
13.32
10.71
8.16
5.84
3.79
1.98
0.31
-1.35
-3.17
-5.33
-8.06
-11.57
-15.92
-20.94
-26.15
-30.83
-34.15
-35.46
-34.47
-31.37
-26.79
-21.46
-16.05
-10.92
-6.17
-1.76
2.32
5.96
9.01
11.33
12.92
13.88
14.43
14.74
14.96
15.17
15.39
15.59
15.71
15.74
15.73
15.75
15.86
16.00
16.02
15.71
14.95
13.73
12.17
10.36
8.32
5.97
3.31
0.43
-2.39
-4.84
-6.75
-8.26
-9.74
-11.68
-14.38
-17.89
-21.93
-25.95
-29.33
-31.51
-32.07
-30.92
-28.20
-24.25
-19.48
-14.30
-9.04
-4.00
0.53
4.28
7.09
8.92
9.96
10.49
10.84
11.19
11.58
11.94
12.21
12.39
12.52
12.65
12.79
12.92
12.99
12.92
12.65
12.09
11.13
9.68
7.77
5.53
3.25
1.18
-0.50
-1.81
-2.95
-4.24
-5.95
-8.29
-11.28
-14.82
-18.71
-22.62
-26.14
-28.86
-30.35
-30.28
-28.54
-25.25
-20.75
-15.57
-10.27
-5.37
-1.21
2.02
4.30
5.67
6.25
6.23
5.88
5.57
5.62
6.19
7.16
8.17
8.80
8.71
7.92
6.76
5.68
5.06
4.99
5.26
5.44
5.17
4.19
2.45
0.07
-2.76
-5.78
-8.75
-11.47
-13.89
-16.11
-18.34
-20.82
-23.62
-26.52
-29.14
-30.95
-31.52
-30.64
-28.34
-24.78
-20.25
-15.02
-9.49
-4.07
0.79
4.75
7.65
9.58
10.69
11.21
11.31
11.12
10.80
10.52
10.49
10.82
11.49
12.27
12.82
12.89
12.41
11.57
10.74
10.22
10.07
10.08
9.79
8.75
6.78
4.08
1.17
-1.36
-3.19
-4.44
-5.61
-7.31
-9.94
-13.55
-17.86
-22.45
-26.85
-30.68
-33.55
-35.05
-34.79
-32.59
-28.64
-23.53
-18.07
-12.98
-8.65
-5.02
-1.78
1.37
4.51
7.50
10.09
12.14
13.71
14.97
16.07
17.05
17.81
18.18
18.13
17.78
17.37
17.06
16.91
16.83
16.71
16.43
15.97
15.29
14.31
12.91
11.03
8.69
6.10
3.49
1.05
-1.17
-3.29
-5.51
-8.03
-11.02
-14.54
-18.60
-23.03
-27.51
-31.48
-34.28
-35.31
-34.19
-30.96
-26.06
-20.19
-14.16
-8.62
-3.96
-0.26
2.65
5.02
7.04
8.80
10.27
11.37
12.08
12.44
12.51
12.33
11.95
11.40
10.80
10.31
10.11
10.28
10.71
11.13
11.18
10.55
9.15
7.14
4.86
2.69
0.91
-0.47
-1.62
-2.90
-4.69
-7.22
-10.52
-14.42
-18.55
-22.49
-25.81
-28.12
-29.11
-28.53
-26.33
-22.66
-17.88
-12.62
-7.49
-3.01
0.52
3.07
4.79
5.89
6.60
7.05
7.36
7.65
8.00
8.48
9.09
9.73
10.30
10.69
10.90
11.03
11.20
11.48
11.78
11.83
11.31
9.91
7.60
4.62
1.45
-1.41
-3.69
-5.38
-6.79
-8.32
-10.30
-12.94
-16.23
-20.00
-23.92
-27.55
-30.41
-32.03
-32.10
-30.55
-27.57
-23.63
-19.22
-14.82
-10.67
-6.83
-3.23
0.21
3.48
6.44
8.87
10.56
11.46
11.69
11.54
11.34
11.35
11.70
12.33
13.06
13.67
14.03
14.07
13.85
13.44
12.89
12.15
11.10
9.63
7.73
5.54
3.27
1.11
-0.92
-2.92
-5.09
-7.62
-10.56
-13.82
-17.27
-20.75
-24.16
-27.35
-30.05
-31.90
-32.57
-31.83
-29.69
-26.40
-22.33
-17.83
-13.16
-8.49
-3.95
0.35
4.19
7.47
10.12
12.17
13.69
14.78
15.52
16.06
16.53
17.05
17.69
18.38
18.98
19.33
19.30
18.93
18.32
17.62
16.90
16.10
15.06
13.58
11.52
8.87
5.80
2.55
-0.62
-3.52
-6.13
-8.53
-10.88
-13.31
-16.01
-19.17
-22.87
-27.03
-31.23
-34.84
-37.05
-37.22
-35.17
-31.20
-26.00
-20.35
-14.82
-9.61
-4.67
0.11
4.76
9.10
12.87
15.83
17.94
19.33
20.25
20.95
21.56
22.04
22.29
22.25
22.05
21.91
22.01
22.44
23.04
23.47
23.39
22.58
21.03
18.85
16.25
13.41
10.47
7.45
4.37
1.20
-2.03
-5.28
-8.48
-11.62
-14.87
-18.45
-22.59
-27.23
-31.93
-35.87
-38.14
-38.14
-35.75
-31.40
-25.81
-19.68
-13.49
-7.52
-2.02
2.76
6.53
9.18
10.86
11.99
13.05
14.35
15.89
17.37
18.49
19.03
19.07
18.82
18.50
18.23
17.99
17.71
17.31
16.72
15.86
14.66
12.98
10.78
8.09
5.07
1.98
-0.97
-3.63
-6.05
-8.49
-11.37
-15.04
-19.61
-24.74
-29.68
-33.47
-35.24
-34.55
-31.55
-26.84
-21.21
-15.31
-9.56
-4.15
0.84
5.36
9.36
12.79
15.65
17.94
19.63
20.69
21.11
21.04
20.80
20.79
21.29
22.29
23.42
24.19
24.22
23.48
22.29
21.05
20.04
19.19
18.16
16.59
14.32
11.50
8.48
5.58
2.93
0.51
-1.91
-4.55
-7.61
-11.26
-15.58
-20.58
-26.00
-31.33
-35.82
-38.71
-39.42
-37.82
-34.21
-29.24
-23.62
-17.93
-12.50
-7.45
-2.78
1.53
5.40
8.73
11.43
13.43
14.78
15.62
16.13
16.51
16.97
17.67
18.65
19.82
21.00
21.96
22.50
22.53
22.07
21.23
20.13
18.83
17.31
15.54
13.48
11.13
8.62
6.04
3.50
1.01
-1.57
-4.43
-7.87
-12.08
-17.07
-22.54
-27.88
-32.27
-34.91
-35.28
-33.32
-29.35
-23.99
-17.89
-11.59
-5.51
0.11
5.08
9.33
12.86
15.73
18.09
20.06
21.68
22.93
23.73
24.12
24.17
24.07
23.97
23.98
24.11
24.32
24.56
24.80
24.94
24.86
24.40
23.34
21.56
19.05
15.97
12.60
9.27
6.16
3.38
0.82
-1.72
-4.49
-7.75
-11.65
-16.21
-21.25
-26.41
-31.17
-34.96
-37.29
-37.78
-36.34
-33.07
-28.32
-22.59
-16.47
-10.41
-4.74
0.40
4.97
8.92
12.18
14.61
16.16
16.92
17.16
17.25
17.57
18.32
19.42
20.63
21.58
22.01
21.80
21.01
19.85
18.50
17.07
15.58
13.99
12.28
10.44
8.58
6.76
5.00
3.19
1.17
-1.26
-4.24
-7.86
-12.16
-17.05
-22.26
-27.29
-31.43
-33.97
-34.34
-32.36
-28.23
-22.54
-16.01
-9.41
-3.29
2.01
6.38
9.85
12.54
14.60
16.10
17.09
17.67
17.98
18.22
18.57
19.09
19.68
20.10
20.17
19.85
19.31
18.80
18.47
18.27
17.94
17.09
15.43
12.89
9.66
6.21
2.98
0.32
-1.67
-3.22
-4.75
-6.76
-9.67
-13.65
-18.62
-24.26
-30.06
-35.42
-39.76
-42.50
-43.21
-41.63
-37.87
-32.32
-25.70
-18.78
-12.15
-6.13
-0.74
4.10
8.36
11.85
14.33
15.66
15.99
15.71
15.35
15.33
15.85
16.87
18.12
19.33
20.26
20.74
20.74
20.29
19.45
18.23
16.57
14.36
11.52
8.10
4.29
0.41
-3.28
-6.64
-9.70
-12.54
-15.29
-18.13
-21.29
-24.99
-29.35
-34.24
-39.18
-43.33
-45.74
-45.68
-42.95
-37.95
-31.56
-24.72
-18.17
-12.22
-6.79
-1.70
3.13
7.63
11.58
14.81
17.35
19.36
21.07
22.64
24.09
25.33
26.29
26.96
27.39
27.66
27.76
27.61
27.05
25.89
23.96
21.18
17.61
13.46
9.12
5.07
1.72
-0.76
-2.46
-3.73
-5.03
-6.78
-9.28
-12.65
-16.84
-21.57
-26.30
-30.26
-32.57
-32.61
-30.18
-25.71
-20.02
-14.06
-8.53
-3.64
0.76
4.98
9.15
13.11
16.55
19.18
21.02
22.35
23.60
25.05
26.68
28.25
29.38
29.85
29.63
28.95
28.03
27.07
26.06
24.87
23.32
21.27
18.68
15.62
12.29
8.97
5.94
3.39
1.32
-0.50
-2.40
-4.66
-7.47
-10.88
-14.89
-19.46
-24.48
-29.58
-34.05
-37.02
-37.70
-35.81
-31.66
-26.09
-20.03
-14.26
-9.06
-4.41
-0.13
3.92
7.69
11.01
13.70
15.66
16.89
17.49
17.62
17.45
17.17
16.87
16.62
16.45
16.33
16.23
16.09
15.80
15.15
13.90
11.91
9.18
6.00
2.77
-0.11
-2.33
-3.87
-5.04
-6.31
-8.23
-11.20
-15.26
-20.09
-25.02
-29.23
-31.93
-32.59
-31.06
-27.58
-22.68
-16.98
-11.12
-5.56
-0.64
3.44
6.57
8.80
10.26
11.20
11.87
12.48
13.11
13.78
14.37
14.83
15.11
15.20
15.13
14.92
14.51
13.82
12.75
11.18
9.09
6.53
3.66
0.64
-2.41
-5.47
-8.59
-11.84
-15.28
-18.89
-22.62
-26.32
-29.76
-32.58
-34.29
-34.41
-32.66
-29.05
-23.94
-17.90
-11.57
-5.40
0.30
5.36
9.70
13.21
15.80
17.48
18.38
18.69
18.64
18.36
17.94
17.43
16.90
16.42
16.13
16.10
16.34
16.73
17.05
16.96
16.12
14.26
11.32
7.57
3.51
-0.30
-3.45
-5.93
-8.13
-10.63
-13.93
-18.13
-22.88
-27.49
-31.18
-33.29
-33.48
-31.69
-28.10
-23.00
-16.86
-10.20
-3.60
2.48
7.76
12.13
15.61
18.30
20.23
21.48
22.12
22.29
22.12
21.76
21.24
20.48
19.44
18.14
16.70
15.33
14.22
13.45
12.95
12.45
11.59
10.08
7.76
4.78
1.54
-1.46
-3.92
-5.87
-7.73
-10.11
-13.52
-18.10
-23.51
-29.02
-33.71
-36.77
-37.68
-36.25
-32.64
-27.28
-20.76
-13.70
-6.67
-0.13
5.62
10.40
14.15
16.94
18.89
20.21
21.13
21.81
22.30
22.53
22.35
21.66
20.42
18.78
16.94
15.14
13.50
11.96
10.36
8.51
6.32
3.83
1.23
-1.26
-3.48
-5.43
-7.27
-9.21
-11.52
-14.39
-17.91
-21.97
-26.25
-30.11
-32.80
-33.58
-32.05
-28.31
-22.96
-16.90
-10.96
-5.75
-1.45
2.06
5.06
7.76
10.28
12.62
14.69
16.39
17.64
18.39
18.69
18.66
18.44
18.17
17.95
17.78
17.63
17.40
16.95
16.11
14.76
12.85
10.44
7.68
4.72
1.73
-1.21
-3.98
-6.57
-9.03
-11.56
-14.44
-17.87
-21.78
-25.68
-28.77
-30.24
-29.56
-26.72
-22.19
-16.75
-11.16
-5.98
-1.47
2.34
5.52
8.17
10.31
11.93
13.00
13.55
13.76
13.85
14.02
14.35
14.76
15.09
15.26
15.35
15.49
15.78
16.08
16.06
15.33
13.69
11.23
8.27
5.23
2.41
-0.07
-2.27
-4.36
-6.56
-9.10
-12.12
-15.61
-19.33
-22.85
-25.59
-26.98
-26.67
-24.58
-20.95
-16.27
-11.14
-6.14
-1.67
2.06
5.07
7.46
9.31
10.65
11.49
11.85
11.86
11.70
11.54
11.44
11.39
11.26
10.96
10.46
9.79
8.97
8.01
6.92
5.73
4.45
3.14
1.75
0.24
-1.44
-3.25
-5.12
-7.05
-9.16
-11.68
-14.78
-18.36
-21.87
-24.49
-25.36
-24.02
-20.60
-15.74
-10.39
-5.34
-1.04
2.49
5.41
7.93
10.07
11.68
12.63
12.82
12.42
11.74
11.17
10.99
11.31
11.96
12.69
13.21
13.31
12.91
12.00
10.64
8.97
7.22
5.57
4.11
2.77
1.33
-0.46
-2.78
-5.59
-8.72
-11.78
-14.44
-16.37
-17.33
-17.20
-15.99
-13.82
-10.94
-7.66
-4.25
-0.96
2.01
4.47
6.20
7.08
7.16
6.66
5.88
5.05
4.30
3.60
2.89
2.11
1.30
0.48
-0.31
-1.08
-1.83
-2.53
-3.15
-3.65
-4.06
-4.49
-5.11
-6.08
-7.53
-9.52
-12.00
-14.79
-17.52
-19.72
-20.88
-20.66
-19.00
-16.16
-12.62
-8.89
-5.34
-2.14
0.66
3.02
4.79
5.80
5.92
5.26
4.09
2.86
1.91
1.43
1.43
1.80
2.33
2.85
3.18
3.15
2.65
1.67
0.31
-1.23
-2.75
-4.20
-5.68
-7.40
-9.56
-12.24
-15.33
-18.54
-21.46
-23.65
-24.77
-24.59
-23.12
-20.56
-17.21
-13.42
-9.51
-5.69
-2.11
1.13
3.91
6.04
7.41
7.94
7.68
6.80
5.58
4.36
3.45
3.09
3.32
3.95
4.64
5.02
4.80
3.97
2.76
1.42
0.15
-1.06
-2.43
-4.13
-6.27
-8.72
-11.22
-13.55
-15.59
-17.34
-18.78
-19.78
-20.08
-19.35
-17.40
-14.26
-10.27
-5.99
-2.03
1.16
3.43
4.93
5.99
6.92
7.87
8.75
9.32
9.37
8.89
8.10
7.32
6.83
6.70
6.71
6.53
5.93
4.87
3.58
2.36
1.43
0.76
0.11
-0.89
-2.58
-5.08
-8.35
-12.12
-16.02
-19.59
-22.33
-23.78
-23.61
-21.81
-18.67
-14.76
-10.75
-7.18
-4.32
-2.15
-0.43
1.07
2.48
3.77
4.86
5.69
6.30
6.82
7.37
7.99
8.59
8.99
9.05
8.64
7.80
6.62
5.25
3.83
2.44
1.06
-0.36
-1.96
-3.75
-5.76
-7.90
-10.13
-12.46
-14.96
-17.59
-20.17
-22.32
-23.58
-23.54
-22.09
-19.44
-16.07
-12.49
-9.13
-6.18
-3.68
-1.59
0.17
1.64
2.86
3.91
4.83
5.67
6.43
7.00
7.30
7.23
6.83
6.32
6.00
6.11
6.72
7.58
8.25
8.25
7.24
5.18
2.31
-0.96
-4.21
-7.13
-9.60
-11.70
-13.70
-15.94
-18.66
-21.88
-25.23
-28.10
-29.84
-30.02
-28.59
-25.84
-22.25
-18.29
-14.27
-10.34
-6.59
-3.16
-0.19
2.18
3.88
4.91
5.46
5.74
6.02
6.52
7.28
8.17
8.94
9.34
9.29
8.97
8.66
8.60
8.75
8.79
8.33
7.06
5.01
2.46
-0.16
-2.55
-4.71
-6.82
-9.18
-12.02
-15.40
-19.18
-23.08
-26.73
-29.65
-31.42
-31.68
-30.30
-27.40
-23.32
-18.51
-13.42
-8.42
-3.76
0.43
4.09
7.16
9.66
11.58
12.97
13.89
14.50
14.97
15.47
16.13
16.87
17.56
18.05
18.24
18.10
17.66
16.90
15.75
14.18
12.20
9.99
7.79
5.83
4.19
2.75
1.25
-0.65
-3.22
-6.60
-10.74
-15.43
-20.29
-24.76
-28.25
-30.16
-30.11
-27.99
-24.12
-19.08
-13.64
-8.41
-3.74
0.31
3.95
7.36
10.56
13.36
15.53
16.93
17.65
17.95
18.13
18.36
18.63
18.84
18.91
18.87
18.79
18.74
18.65
18.32
17.51
16.09
14.05
11.59
8.98
6.48
4.24
2.23
0.24
-2.11
-5.21
-9.29
-14.27
-19.66
-24.68
-28.47
-30.29
-29.81
-27.09
-22.53
-16.74
-10.36
-3.96
2.03
7.35
11.84
15.47
18.26
20.30
21.68
22.52
22.95
23.13
23.19
23.23
23.37
23.68
24.22
24.98
25.83
26.59
26.94
26.59
25.36
23.22
20.35
17.04
13.62
10.29
7.19
4.34
1.68
-0.94
-3.77
-7.15
-11.30
-16.21
-21.49
-26.36
-29.90
-31.29
-30.19
-26.76
-21.57
-15.38
-8.91
-2.68
2.99
7.89
11.93
15.11
17.55
19.48
21.03
22.32
23.33
23.98
24.24
24.17
23.92
23.64
23.44
23.31
23.21
23.07
22.83
22.41
21.74
20.68
19.13
17.06
14.58
11.91
9.31
6.94
4.80
2.77
0.58
-2.03
-5.30
-9.31
-13.95
-18.77
-23.14
-26.29
-27.65
-26.93
-24.28
-20.12
-15.03
-9.59
-4.22
0.81
5.35
9.32
12.69
15.38
17.33
18.48
18.94
18.95
18.87
18.99
19.50
20.25
20.89
21.09
20.66
19.71
18.51
17.33
16.30
15.30
14.12
12.60
10.75
8.73
6.82
5.15
3.73
2.41
0.94
-0.94
-3.39
-6.50
-10.28
-14.55
-18.98
-23.02
-26.01
-27.33
-26.63
-23.88
-19.45
-14.01
-8.27
-2.84
1.86
5.67
8.61
10.88
12.69
14.24
15.66
16.93
17.96
18.65
18.90
18.73
18.26
17.67
17.16
16.80
16.58
16.39
16.04
15.37
14.27
12.71
10.72
8.46
6.07
3.75
1.67
-0.04
-1.37
-2.47
-3.59
-5.05
-7.12
-9.92
-13.36
-17.13
-20.75
-23.66
-25.33
-25.39
-23.76
-20.64
-16.56
-12.13
-7.89
-4.17
-1.00
1.73
4.16
6.29
8.03
9.22
9.86
10.08
10.11
10.14
10.23
10.38
10.48
10.53
10.52
10.47
10.35
10.06
9.53
8.74
7.71
6.49
5.07
3.40
1.48
-0.59
-2.68
-4.66
-6.55
-8.58
-10.98
-13.88
-17.11
-20.30
-23.00
-24.83
-25.57
-25.11
-23.45
-20.64
-16.86
-12.41
-7.75
-3.39
0.25
2.89
4.48
5.16
5.22
5.07
5.09
5.55
6.50
7.80
9.12
10.20
10.90
11.24
11.28
11.08
10.60
9.82
8.79
7.63
6.47
5.32
4.05
2.49
0.54
-1.68
-3.93
-5.98
-7.75
-9.33
-10.99
-12.97
-15.39
-18.12
-20.85
-23.11
-24.46
-24.61
-23.51
-21.33
-18.36
-14.86
-11.00
-6.84
-2.49
1.77
5.50
8.25
9.71
9.98
9.38
8.39
7.40
6.70
6.40
6.57
7.17
8.06
8.99
9.68
9.95
9.87
9.63
9.46
9.39
9.22
8.58
7.20
5.10
2.63
0.32
-1.39
-2.39
-2.94
-3.59
-4.82
-6.91
-9.80
-13.23
-16.81
-20.20
-23.13
-25.27
-26.25
-25.73
-23.56
-19.93
-15.36
-10.49
-5.87
-1.79
1.72
4.67
7.03
8.71
9.64
9.90
9.77
9.56
9.53
9.75
10.21
10.81
11.50
12.17
12.73
13.00
12.82
12.14
11.08
9.84
8.61
7.52
6.55
5.57
4.44
3.06
1.43
-0.39
-2.30
-4.29
-6.42
-8.85
-11.74
-15.14
-18.97
-22.88
-26.35
-28.79
-29.72
-28.96
-26.63
-23.13
-18.95
-14.54
-10.19
-6.07
-2.20
1.41
4.71
7.63
10.06
11.90
13.10
13.72
13.87
13.76
13.55
13.38
13.29
13.31
13.47
13.80
14.30
14.84
15.17
14.98
14.04
12.33
10.04
7.50
5.00
2.74
0.73
-1.05
-2.70
-4.24
-5.80
-7.52
-9.62
-12.32
-15.62
-19.24
-22.62
-25.05
-25.97
-25.14
-22.74
-19.21
-15.16
-11.06
-7.18
-3.65
-0.48
2.29
4.63
6.54
8.07
9.34
10.45
11.44
12.33
13.09
13.74
14.30
14.77
15.14
15.34
15.34
15.09
14.59
13.88
13.01
11.97
10.71
9.17
7.33
5.22
3.01
0.87
-1.08
-2.81
-4.47
-6.28
-8.44
-10.99
-13.68
-16.03
-17.49
-17.63
-16.30
-13.71
-10.33
-6.68
-3.24
-0.28
2.15
4.13
5.80
7.27
8.60
9.83
10.93
11.93
12.85
13.62
14.16
14.28
13.86
12.88
11.51
10.03
8.75
7.90
7.46
7.27
7.08
6.66
5.92
4.84
3.50
1.95
0.25
-1.52
-3.37
-5.34
-7.51
-9.98
-12.80
-15.87
-18.92
-21.52
-23.15
-23.41
-22.09
-19.29
-15.41
-11.04
-6.80
-3.09
-0.06
2.39
4.51
6.44
8.22
9.75
10.91
11.64
11.98
12.04
11.95
11.80
11.60
11.33
10.99
10.60
10.28
10.12
10.18
10.40
10.56
10.41
9.74
8.49
6.76
4.76
2.69
0.74
-1.04
-2.66
-4.15
-5.60
-7.15
-8.94
-11.07
-13.50
-16.00
-18.21
-19.75
-20.35
-19.90
-18.48
-16.27
-13.54
-10.57
-7.63
-4.90
-2.44
-0.22
1.84
3.76
5.52
7.05
8.33
9.39
10.30
11.15
11.98
12.74
13.35
13.70
13.76
13.54
13.05
12.38
11.59
10.79
10.06
9.44
8.87
8.19
7.20
5.85
4.20
2.48
0.94
-0.24
-1.08
-1.83
-2.79
-4.27
-6.45
-9.30
-12.65
-16.18
-19.53
-22.33
-24.30
-25.26
-25.14
-23.98
-21.87
-18.97
-15.51
-11.79
-8.19
-5.03
-2.45
-0.39
1.32
2.89
4.39
5.73
6.75
7.37
7.67
7.87
8.24
8.87
9.73
10.62
11.32
11.74
11.86
11.75
11.43
10.87
10.02
8.88
7.60
6.37
5.37
4.64
4.02
3.27
2.21
0.81
-0.81
-2.49
-4.17
-5.92
-7.85
-10.02
-12.41
-14.88
-17.30
-19.56
-21.55
-23.10
-23.98
-23.93
-22.81
-20.67
-17.78
-14.51
-11.20
-8.06
-5.19
-2.60
-0.32
1.65
3.28
4.57
5.56
6.31
6.88
7.32
7.68
8.01
8.34
8.77
9.36
10.11
10.89
11.43
11.43
10.72
9.42
7.85
6.44
5.38
4.55
3.60
2.23
0.37
-1.73
-3.72
-5.40
-6.81
-8.19
-9.72
-11.41
-13.14
-14.79
-16.40
-18.13
-20.05
-21.99
-23.51
-24.09
-23.40
-21.48
-18.70
-15.56
-12.42
-9.43
-6.51
-3.55
-0.58
2.19
4.48
6.06
6.90
7.13
6.97
6.64
6.31
6.07
6.01
6.19
6.65
7.29
7.88
8.12
7.77
6.82
5.46
4.05
2.85
1.93
1.09
0.02
-1.50
-3.49
-5.75
-8.00
-10.00
-11.74
-13.31
-14.89
-16.61
-18.52
-20.60
-22.73
-24.76
-26.45
-27.55
-27.82
-27.10
-25.41
-22.89
-19.78
-16.38
-12.97
-9.76
-6.87
-4.29
-1.95
0.18
2.02
3.45
4.33
4.69
4.74
4.86
5.36
6.34
7.67
9.01
10.03
10.52
10.50
10.12
9.62
9.21
8.94
8.75
8.47
7.95
7.06
5.82
4.25
2.42
0.40
-1.80
-4.14
-6.59
-9.14
-11.75
-14.45
-17.26
-20.28
-23.46
-26.66
-29.58
-31.82
-32.92
-32.52
-30.39
-26.66
-21.74
-16.29
-11.01
-6.37
-2.55
0.59
3.28
5.71
7.93
9.87
11.41
12.53
13.35
14.07
14.89
15.87
16.97
18.01
18.83
19.31
19.49
19.53
19.64
19.93
20.32
20.54
20.21
19.09
17.21
14.85
12.49
10.52
9.04
7.90
6.76
5.32
3.46
1.22
-1.26
-3.95
-6.95
-10.40
-14.37
-18.63
-22.61
-25.59
-26.97
-26.53
-24.48
-21.36
-17.72
-13.91
-10.00
-5.96
-1.84
2.13
5.59
8.27
10.16
11.45
12.47
13.41
14.34
15.13
15.72
16.12
16.46
16.92
17.52
18.24
19.01
19.75
20.42
20.88
20.95
20.34
18.89
16.63
13.84
10.87
8.08
5.60
3.34
1.15
-1.08
-3.37
-5.67
-7.94
-10.30
-12.85
-15.61
-18.39
-20.71
-21.95
-21.56
-19.33
-15.45
-10.49
-5.17
-0.12
4.25
7.80
10.50
12.38
13.48
13.95
14.01
13.98
14.12
14.49
14.95
15.23
15.09
14.50
13.60
12.65
11.92
11.54
11.43
11.40
11.16
10.47
9.24
7.52
5.51
3.50
1.70
0.17
-1.18
-2.51
-4.04
-5.92
-8.31
-11.30
-14.91
-18.97
-23.03
-26.47
-28.66
-29.08
-27.59
-24.39
-19.98
-14.91
-9.71
-4.79
-0.38
3.40
6.49
8.87
10.56
11.56
11.98
11.98
11.75
11.50
11.37
11.43
11.65
12.00
12.42
12.90
13.35
13.64
13.58
13.02
11.97
10.59
9.12
7.75
6.53
5.23
3.59
1.44
-1.21
-4.24
-7.49
-10.99
-14.88
-19.23
-23.80
-27.97
-30.88
-31.88
-30.70
-27.68
-23.48
-18.82
-14.19
-9.79
-5.66
-1.82
1.61
4.51
6.90
8.91
10.75
12.61
14.44
16.10
17.35
18.06
18.23
17.93
17.28
16.37
15.34
14.40
13.73
13.47
13.52
13.65
13.52
12.84
11.50
9.57
7.31
4.95
2.75
0.81
-0.88
-2.51
-4.43
-7.07
-10.72
-15.40
-20.66
-25.68
-29.51
-31.37
-30.89
-28.23
-23.99
-18.93
-13.84
-9.26
-5.44
-2.34
0.24
2.51
4.64
6.68
8.55
10.18
11.46
12.41
13.04
13.41
13.62
13.77
14.01
14.42
15.06
15.91
16.86
17.78
18.49
18.84
18.63
17.72
16.07
13.78
11.08
8.31
5.80
3.73
2.14
0.83
-0.52
-2.25
-4.64
-7.78
-11.48
-15.34
-18.80
-21.28
-22.30
-21.62
-19.29
-15.59
-10.97
-5.98
-1.11
3.20
6.75
9.55
11.85
13.97
16.10
18.20
20.01
21.27
21.82
21.82
21.57
21.37
21.37
21.45
21.42
21.20
20.89
20.77
20.98
21.43
21.76
21.52
20.41
18.44
15.95
13.38
11.13
9.39
8.13
7.05
5.86
4.25
2.10
-0.58
-3.71
-7.18
-10.94
-14.85
-18.68
-21.94
-24.01
-24.33
-22.68
-19.34
-15.01
-10.52
-6.49
-3.16
-0.42
1.99
4.28
6.40
8.19
9.49
10.29
10.77
11.18
11.68
12.26
12.76
13.02
12.98
12.86
12.89
13.23
13.81
14.38
14.57
14.15
13.07
11.50
9.72
7.91
6.11
4.26
2.27
0.08
-2.38
-5.10
-8.12
-11.41
-14.90
-18.34
-21.36
-23.51
-24.33
-23.58
-21.27
-17.76
-13.60
-9.41
-5.61
-2.38
0.32
2.66
4.73
6.53
7.96
9.00
9.70
10.21
10.64
10.97
11.05
10.72
9.92
8.82
7.76
7.10
7.03
7.48
8.12
8.54
8.41
7.57
6.08
4.16
2.11
0.19
-1.44
-2.71
-3.74
-4.80
-6.31
-8.67
-12.08
-16.34
-20.84
-24.74
-27.25
-27.91
-26.70
-23.97
-20.24
-16.01
-11.67
-7.49
-3.69
-0.45
2.13
4.03
5.36
6.31
6.99
7.54
8.03
8.62
9.43
10.55
11.88
13.12
13.98
14.21
13.85
13.19
12.60
12.28
12.23
12.18
11.77
10.75
9.09
6.98
4.68
2.41
0.27
-1.78
-3.77
-5.79
-7.85
-9.99
-12.31
-14.94
-18.00
-21.39
-24.81
-27.65
-29.23
-29.00
-26.81
-23.02
-18.36
-13.70
-9.64
-6.37
-3.64
-1.07
1.65
4.51
7.19
9.33
10.68
11.27
11.39
11.33
11.33
11.45
11.64
11.82
11.96
12.07
12.11
12.02
11.70
11.13
10.39
9.62
8.93
8.30
7.61
6.76
5.63
4.28
2.82
1.38
0.01
-1.35
-2.86
-4.64
-6.76
-9.20
-11.92
-14.85
-17.99
-21.36
-24.87
-28.27
-31.13
-32.88
-33.05
-31.40
-28.06
-23.56
-18.59
-13.77
-9.48
-5.74
-2.38
0.77
3.71
6.24
8.12
9.20
9.62
9.70
9.78
10.08
10.58
11.16
11.68
12.11
12.52
12.95
13.36
13.60
13.56
13.25
12.80
12.36
11.99
11.52
10.77
9.52
7.72
5.46
2.90
0.20
-2.63
-5.55
-8.52
-11.43
-14.23
-16.95
-19.76
-22.87
-26.29
-29.73
-32.53
-33.92
-33.38
-30.85
-26.79
-21.94
-16.99
-12.35
-8.08
-4.04
-0.15
3.52
6.68
9.02
10.39
10.88
10.84
10.67
10.76
11.25
12.05
12.88
13.39
13.38
12.81
11.90
10.95
10.17
9.60
9.07
8.28
6.94
4.96
2.44
-0.34
-3.02
-5.33
-7.18
-8.65
-9.97
-11.39
-13.14
-15.32
-17.96
-21.02
-24.34
-27.61
-30.36
-32.00
-31.99
-30.04
-26.25
-21.13
-15.37
-9.64
-4.37
0.29
4.40
8.03
11.16
13.64
15.31
16.09
16.10
15.64
15.03
14.60
14.48
14.66
15.03
15.39
15.56
15.45
15.08
14.51
13.88
13.20
12.39
11.21
9.41
6.87
3.72
0.39
-2.63
-5.04
-6.85
-8.45
-10.35
-12.95
-16.39
-20.49
-24.88
-29.14
-32.80
-35.42
-36.53
-35.74
-32.95
-28.43
-22.84
-17.06
-11.86
-7.63
-4.30
-1.48
1.22
3.95
6.59
8.81
10.29
10.99
11.05
10.81
10.54
10.38
10.33
10.28
10.13
9.74
9.04
8.06
6.85
5.54
4.21
2.89
1.55
0.19
-1.09
-2.08
-2.56
-2.45
-1.96
-1.54
-1.75
-3.06
-5.61
-9.21
-13.31
-17.22
-20.19
-21.63
-21.22
-18.99
-15.31
-10.78
-6.03
-1.58
2.27
5.48
8.18
10.53
12.59
14.35
15.70
16.51
16.78
16.62
16.23
15.85
15.67
15.73
15.93
16.08
15.96
15.43
14.43
13.00
11.26
9.25
6.99
4.52
1.94
-0.57
-2.80
-4.62
-6.05
-7.27
-8.54
-10.14
-12.25
-14.93
-18.13
-21.57
-24.77
-27.07
-27.87
-26.74
-23.67
-19.04
-13.47
-7.51
-1.50
4.48
10.49
16.51
22.36
27.74
32.31
35.81
38.11
39.23
39.30
38.58
37.43
36.22
35.19
34.39
33.59
32.47
30.79
28.56
26.10
23.92
22.50
22.09
22.64
23.93
25.70
27.77
29.89
31.65
32.29
30.83
26.46
18.99
9.08
-1.78
-11.69
-19.05
-23.05
-23.95
-22.95
-21.61
-21.35
-23.04
-26.88
-32.52
-39.29
-46.30
-52.60
-57.21
-59.33
-58.42
-54.46
-47.94
-39.83
-31.34
-23.62
-17.47
-13.19
-10.54
-8.84
-7.24
-4.88
-1.17
4.04
10.49
17.60
24.62
30.93
36.13
40.16
43.10
45.10
46.17
46.15
44.77
41.78
37.13
31.05
24.04
16.80
10.10
4.69
