1520261141.00
64.000000
-0.00
-0.00
-0.00
-0.00
-0.00
-0.00
-0.00
-0.00
-0.00
-0.00
0.00
0.01
0.01
-0.00
-0.03
-0.05
-0.05
0.00
0.13
0.36
0.66
1.01
1.37
1.72
2.06
2.40
2.79
3.24
3.80
4.42
5.06
5.66
6.20
6.68
7.15
7.68
8.31
9.14
10.09
11.04
11.88
12.56
13.14
13.76
14.65
15.96
17.91
20.32
22.90
25.38
27.58
29.57
31.68
34.32
37.81
42.54
48.15
54.10
59.83
64.97
69.58
74.14
79.34
85.71
93.76
103.00
112.62
121.73
129.77
136.75
143.30
150.75
157.77
166.64
177.95
191.79
206.97
220.57
228.25
225.36
208.53
176.87
132.76
80.05
23.07
-34.94
-92.44
-149.16
-205.23
-260.37
-313.74
-363.87
-409.83
-450.91
-486.50
-515.74
-537.23
-549.22
-549.96
-538.37
-514.21
-478.67
-433.88
-382.45
-327.02
-269.84
-212.63
-156.66
-102.95
-52.37
-5.90
35.58
71.43
101.35
125.50
144.38
158.69
169.15
176.37
180.75
182.57
182.07
179.51
175.23
169.65
163.18
156.15
148.81
141.30
133.69
126.02
118.33
110.69
103.16
95.80
88.68
81.83
75.25
68.95
62.95
57.25
51.86
46.78
42.03
37.59
33.45
29.61
26.07
22.81
19.83
17.11
14.67
12.48
10.54
8.83
7.35
6.07
4.97
4.05
3.27
2.62
2.09
1.65
1.30
1.01
0.79
0.61
0.47
0.37
0.29
0.23
0.18
0.15
0.14
0.13
0.14
0.15
0.17
0.19
0.22
0.26
0.30
0.34
0.38
0.43
0.48
0.52
0.57
0.63
0.68
0.74
0.81
0.88
0.95
1.03
1.12
1.22
1.34
1.46
1.61
1.77
1.95
2.15
2.37
2.62
2.89
3.20
3.53
3.89
4.29
4.72
5.19
5.70
6.24
6.82
7.45
8.12
8.83
9.59
10.39
11.25
12.14
13.09
14.08
15.15
16.27
17.47
18.72
20.01
21.32
22.59
23.75
24.69
25.32
25.49
25.11
24.08
22.35
19.90
16.78
13.05
8.88
4.44
-0.06
-4.40
-8.39
-11.88
-14.74
-16.95
-18.49
-19.37
-19.65
-19.39
-18.65
-17.50
-16.03
-14.37
-12.62
-10.87
-9.18
-7.60
-6.16
-4.83
-3.59
-2.43
-1.37
-0.44
0.36
1.12
1.84
2.65
3.72
5.14
6.95
9.03
11.21
13.35
15.48
17.47
19.47
21.73
24.40
27.43
30.53
33.30
35.39
36.85
37.53
37.78
38.17
39.06
40.50
42.04
43.04
42.90
41.51
38.60
34.51
29.77
24.71
19.06
11.87
1.50
-14.61
-34.72
-59.06
-87.60
-119.14
-150.84
-178.40
-197.08
-203.29
-195.99
-177.01
-151.07
-123.18
-97.21
-75.09
-57.08
-42.65
-31.19
-22.30
-15.44
-10.24
-5.74
-0.85
5.06
11.93
19.02
25.32
29.98
32.70
33.49
32.91
31.78
30.77
30.19
29.84
29.16
27.56
24.68
20.43
15.17
9.50
3.98
-1.04
-5.49
-9.50
-13.35
-17.34
-21.74
-26.68
-32.05
-37.43
-42.11
-45.21
-45.81
-43.31
-37.57
-28.99
-18.46
-7.05
4.15
14.33
22.99
29.96
35.25
39.10
41.81
43.74
45.27
46.63
47.87
48.86
49.41
49.37
48.80
47.96
47.12
46.53
46.15
45.79
45.17
44.04
42.26
39.80
36.73
33.20
29.39
25.47
21.58
17.75
13.90
9.96
5.83
1.48
-3.08
-7.79
-12.60
-17.41
-22.12
-26.66
-31.05
-35.45
-40.13
-45.30
-50.94
-56.73
-62.10
-66.34
-68.87
-69.20
-66.99
-61.99
-54.12
-43.52
-30.79
-16.89
-3.08
9.48
19.99
28.15
34.13
38.32
41.13
42.89
43.92
44.52
45.05
45.82
46.97
48.36
49.65
50.46
50.52
49.73
48.17
45.94
43.13
39.84
36.17
32.29
28.32
24.33
20.31
16.27
12.31
8.65
5.46
2.74
0.24
-2.47
-5.75
-9.67
-13.99
-18.20
-21.91
-24.96
-27.54
-30.07
-33.07
-36.98
-42.10
-48.37
-55.36
-62.14
-67.48
-70.09
-69.07
-64.17
-55.90
-45.31
-33.67
-22.10
-11.48
-2.35
4.91
10.18
13.59
15.62
16.97
18.33
20.08
22.20
24.35
26.17
27.52
28.62
29.87
31.64
34.02
36.77
39.40
41.42
42.40
42.12
40.57
37.90
34.40
30.32
25.86
21.14
16.26
11.34
6.55
1.94
-2.61
-7.41
-12.84
-19.11
-26.07
-33.29
-40.20
-46.43
-52.04
-57.47
-63.33
-69.96
-77.26
-84.57
-90.85
-94.93
-95.83
-93.04
-86.60
-77.16
-65.74
-53.45
-41.16
-29.38
-18.16
-7.33
3.33
13.85
23.98
33.27
41.19
47.40
51.85
54.82
56.74
58.07
59.01
59.57
59.61
59.10
58.24
57.46
57.10
57.14
57.06
55.94
52.82
47.21
39.25
29.75
19.97
11.31
5.15
2.60
4.22
9.56
17.09
24.43
29.19
30.08
27.52
23.57
20.94
21.67
26.20
33.28
40.74
46.63
50.02
51.09
50.63
49.30
47.20
44.01
39.34
33.24
26.29
19.44
13.61
9.29
6.40
4.48
3.02
1.76
0.80
0.47
0.99
2.22
3.66
4.61
4.61
3.69
2.41
1.51
1.59
2.76
4.66
6.77
8.66
10.14
11.10
11.36
10.58
8.60
5.82
3.43
3.13
6.42
14.14
26.30
42.46
62.39
86.21
113.98
144.86
176.52
205.37
227.74
241.29
245.97
243.86
237.86
230.24
221.69
211.47
198.44
182.21
163.76
145.08
128.33
114.85
104.64
96.57
88.96
80.28
69.70
57.12
43.14
28.60
14.30
0.56
-12.91
-27.01
-42.97
-61.84
-84.08
-109.26
-136.29
-163.79
-190.72
-216.74
-242.34
-268.66
-297.33
-330.28
-369.35
-415.39
-466.93
-519.21
-564.43
-593.49
-599.13
-578.61
-534.75
-474.74
-406.98
-338.11
-271.31
-206.77
-143.46
-81.08
-20.90
34.69
83.09
122.51
152.03
171.56
181.53
182.87
176.86
165.05
149.06
130.26
109.78
88.60
67.78
48.48
31.70
18.06
7.59
-0.07
-5.52
-9.27
-11.79
-13.52
-15.04
-17.05
-19.98
-23.76
-27.73
-31.01
-33.06
-34.26
-35.95
-39.88
-47.35
-58.28
-71.09
-83.01
-90.98
-92.45
-85.97
-71.49
-50.29
-24.85
1.62
25.72
44.78
57.51
64.21
66.56
66.70
66.46
66.83
67.94
69.38
70.57
71.00
70.26
68.24
65.13
61.47
58.05
55.52
54.24
54.17
54.97
56.17
57.36
58.17
58.25
57.24
54.86
51.05
46.07
40.57
35.26
30.70
26.86
23.16
18.69
12.73
5.26
-2.94
-10.62
-16.75
-20.99
-24.09
-27.38
-32.28
-39.55
-48.90
-58.96
-67.56
-72.30
-71.15
-63.19
-48.85
-29.93
-9.01
11.39
29.37
43.83
54.23
60.36
62.33
60.75
56.89
52.43
48.93
47.21
47.28
48.58
50.44
52.40
54.07
55.01
54.71
52.94
49.96
46.54
43.47
41.04
38.89
36.32
32.87
28.73
24.59
21.06
18.29
15.94
13.42
10.37
6.82
3.02
-0.81
-4.70
-8.82
-13.26
-18.02
-23.01
-28.26
-34.05
-40.80
-48.84
-58.03
-67.44
-75.24
-79.11
-76.98
-67.90
-52.88
-34.77
-17.48
-4.56
1.97
2.05
-2.99
-11.29
-21.15
-30.96
-38.80
-42.28
-39.35
-29.35
-13.81
3.93
20.21
32.88
42.01
49.36
56.72
64.54
71.52
75.46
74.69
68.96
59.35
47.30
33.71
18.50
1.16
-18.38
-39.22
-59.60
-77.59
-91.78
-101.75
-107.79
-110.32
-109.23
-103.91
-94.01
-80.41
-65.59
-53.03
-45.44
-43.00
-42.92
-40.36
-30.74
-11.99
14.43
44.33
72.79
96.44
114.47
128.29
140.09
151.16
161.22
168.84
172.63
172.29
169.13
165.74
164.75
167.54
173.52
180.22
184.34
183.26
176.16
164.35
150.42
136.67
123.76
110.46
94.74
75.43
53.13
30.21
9.13
-9.03
-25.40
-42.56
-63.10
-87.90
-115.58
-142.95
-166.23
-182.54
-190.73
-191.71
-187.87
-182.23
-177.29
-174.02
-171.67
-168.14
-161.07
-148.87
-131.34
-109.40
-84.58
-58.50
-32.63
-8.36
12.78
29.19
39.52
43.08
40.30
32.97
23.95
16.37
12.39
12.40
14.78
16.99
17.10
14.96
12.31
11.50
14.03
19.69
26.87
33.76
39.51
44.43
49.22
53.93
57.35
57.57
53.05
43.66
30.82
16.88
4.15
-5.70
-11.82
-13.95
-12.12
-6.77
1.31
10.96
20.80
29.44
35.61
38.30
36.92
31.44
22.46
10.90
-2.43
-17.22
-33.62
-51.60
-70.21
-87.02
-98.57
-101.52
-94.13
-77.21
-54.04
-29.23
-7.11
9.50
19.74
24.35
24.91
23.11
20.19
16.79
13.18
9.55
6.27
3.90
2.87
3.18
4.42
5.93
7.30
8.62
10.33
12.88
16.23
19.89
23.12
25.49
26.99
27.95
28.67
29.16
29.24
28.81
28.07
27.43
27.28
27.66
28.32
28.91
29.18
28.97
27.99
25.66
21.31
14.74
6.19
-3.41
-12.94
-21.84
-30.57
-40.24
-51.88
-65.86
-81.75
-98.78
-115.41
-129.08
-136.49
-134.62
-122.30
-100.97
-74.30
-46.52
-20.87
2.34
25.40
50.98
79.77
109.91
138.53
163.90
186.25
205.08
220.04
231.01
238.06
241.43
241.82
240.62
239.35
238.71
234.12
221.50
200.37
173.80
145.15
115.93
85.74
53.65
19.27
-22.79
-74.60
-132.28
-187.83
-234.82
-271.49
-299.79
-323.37
-346.41
-381.16
-436.45
-512.26
-599.68
-686.70
-762.67
-819.69
-853.59
-813.72
-681.48
-484.54
-279.57
-110.13
11.35
92.79
147.23
184.70
210.82
220.27
210.16
185.49
157.38
135.61
123.85
120.80
122.89
127.14
125.66
114.29
95.51
76.09
62.73
57.48
58.70
63.25
68.79
69.97
63.88
51.84
38.16
26.63
18.34
12.35
7.06
1.92
-5.05
-14.63
-25.65
-35.67
-42.49
-45.00
-42.36
-37.57
-31.30
-24.15
-16.26
-7.30
3.10
14.99
27.80
40.91
53.96
67.63
82.66
99.72
119.32
141.64
166.31
192.06
216.59
236.82
250.19
255.16
251.99
242.79
230.68
218.54
207.90
198.77
190.20
181.56
172.76
164.27
156.54
149.38
141.86
132.66
120.82
106.16
89.58
72.75
57.68
46.43
40.69
41.26
47.72
58.27
70.21
80.67
87.40
89.16
85.71
77.35
64.47
47.52
27.20
4.79
-17.98
-39.20
-57.34
-71.68
-82.28
-89.72
-94.63
-97.53
-98.55
-97.61
-94.50
-89.22
-82.24
-74.75
-68.43
-64.82
-64.60
-67.24
-71.14
-74.39
-75.60
-74.37
-71.30
-67.38
-63.54
-60.37
-58.13
-56.79
-55.98
-54.81
-51.97
-46.14
-36.82
-24.86
-12.48
-2.47
2.89
2.66
-2.49
-10.71
-19.68
-27.13
-31.24
-30.91
-25.92
-17.19
-6.79
2.56
8.31
9.07
5.13
-1.64
-8.48
-12.80
-13.09
-9.45
-3.51
2.24
5.35
4.49
-0.13
-6.81
-13.12
-16.97
-17.45
-15.26
-12.31
-10.79
-12.21
-16.84
-23.51
-30.10
-34.32
-34.44
-30.00
-22.01
-12.66
-4.46
0.70
2.33
1.48
0.20
0.56
3.66
9.11
15.28
20.03
21.82
20.28
16.33
11.55
7.64
5.69
5.98
8.00
10.63
12.60
12.92
11.19
7.72
3.47
-0.28
-2.35
-2.15
0.14
3.68
7.32
10.07
11.40
11.29
10.08
8.28
6.37
4.64
3.17
1.80
0.31
-1.53
-3.90
-6.97
-10.81
-15.34
-20.19
-24.64
-27.76
-28.71
-27.10
-23.29
-18.44
-14.09
-11.62
-11.59
-13.40
-15.58
-16.29
-14.22
-9.10
-1.84
5.88
12.18
15.64
15.71
12.75
7.86
2.48
-1.96
-4.41
-4.44
-2.29
1.24
5.11
8.39
10.48
11.13
10.28
7.91
4.14
-0.61
-5.52
-9.45
-11.36
-10.76
-8.09
-4.60
-1.82
-1.00
-2.65
-6.51
-11.83
-17.77
-23.49
-28.18
-30.94
-31.02
-28.10
-22.78
-16.55
-11.42
-9.07
-10.09
-13.50
-17.09
-18.21
-14.98
-7.11
3.82
15.08
23.89
28.57
29.09
26.87
23.92
21.97
21.79
23.16
25.29
27.30
28.64
29.05
28.49
26.93
24.37
20.88
16.77
12.50
8.64
5.71
4.07
3.89
5.11
7.39
10.10
12.31
13.03
11.47
7.46
1.58
-4.85
-10.19
-13.06
-12.92
-10.28
-6.48
-3.09
-1.27
-1.41
-3.07
-5.28
-7.07
-7.75
-7.14
-5.50
-3.35
-1.18
0.68
2.06
2.93
3.29
3.22
2.76
2.07
1.38
0.92
0.95
1.53
2.62
3.97
5.29
6.31
6.95
7.31
7.64
8.20
9.15
10.51
12.12
13.68
14.87
15.39
15.08
13.98
12.38
10.72
9.42
8.62
8.15
7.53
6.27
4.12
1.16
-2.21
-5.51
-8.46
-11.04
-13.48
-16.13
-19.23
-22.84
-26.84
-30.94
-34.72
-37.78
-39.81
-40.71
-40.66
-40.03
-39.20
-38.39
-37.56
-36.48
-34.92
-32.87
-30.58
-28.55
-27.27
-27.07
-28.02
-29.89
-32.13
-33.71
-33.10
-28.52
-18.68
-3.46
15.63
35.78
53.86
67.51
75.85
79.32
79.06
76.02
70.71
63.39
54.57
45.34
37.06
30.82
26.88
24.59
22.79
20.46
17.12
12.95
8.51
4.42
1.02
-1.77
-4.29
-6.98
-10.09
-13.53
-16.89
-19.50
-20.76
-20.36
-18.41
-15.40
-12.04
-8.96
-6.58
-4.94
-3.83
-2.94
-2.07
-1.17
-0.32
0.42
1.08
1.87
2.97
4.43
6.06
7.49
8.35
8.53
8.19
7.71
7.43
7.49
7.83
8.29
8.75
9.19
9.57
9.77
9.55
8.72
7.20
5.16
2.90
0.72
-1.18
-2.80
-4.24
-5.60
-6.94
-8.23
-9.40
-10.37
-11.08
-11.58
-12.00
-12.65
-13.89
-15.92
-18.61
-21.45
-23.69
-24.56
-23.57
-20.72
-16.41
-11.36
-6.38
-2.14
0.89
2.50
2.73
1.81
0.15
-1.75
-3.39
-4.33
-4.33
-3.36
-1.62
0.54
2.68
4.47
5.72
6.43
6.71
6.71
6.57
6.41
6.38
6.60
7.16
8.00
8.99
9.89
10.53
10.85
10.87
10.66
10.24
9.59
8.76
7.95
7.44
7.46
8.00
8.73
9.20
9.01
7.93
5.99
3.32
0.01
-3.89
-8.32
-13.05
-17.76
-21.98
-25.31
-27.44
-28.24
-27.73
-26.09
-23.59
-20.63
-17.65
-14.99
-12.79
-11.00
-9.45
-7.99
-6.51
-5.00
-3.47
-1.88
-0.12
1.89
4.25
7.03
10.27
13.97
17.97
21.98
25.56
28.26
29.70
29.68
28.23
25.59
22.13
18.31
14.60
11.38
8.93
7.33
6.49
6.16
6.04
5.82
5.25
4.18
2.55
0.43
-2.04
-4.52
-6.55
-7.66
-7.53
-6.11
-3.79
-1.22
0.78
1.51
0.57
-2.07
-6.10
-10.97
-16.08
-20.86
-24.80
-27.53
-28.80
-28.51
-26.74
-23.69
-19.68
-15.12
-10.45
-6.02
-1.94
1.88
5.66
9.45
13.03
15.96
17.69
17.85
16.45
13.84
10.60
7.37
4.68
2.88
2.14
2.44
3.61
5.31
7.17
8.80
9.99
10.65
10.87
10.82
10.72
10.74
11.01
11.50
12.06
12.46
12.48
11.96
10.89
9.39
7.67
6.01
4.62
3.53
2.60
1.47
-0.27
-2.86
-6.31
-10.33
-14.43
-18.08
-20.83
-22.38
-22.58
-21.48
-19.34
-16.54
-13.57
-10.88
-8.71
-7.14
-6.08
-5.42
-5.09
-5.07
-5.27
-5.55
-5.78
-5.89
-5.96
-6.08
-6.25
-6.22
-5.60
-4.00
-1.19
2.74
7.42
12.35
16.98
20.81
23.44
24.56
24.06
22.10
19.06
15.51
12.00
8.92
6.36
4.17
2.06
-0.20
-2.63
-5.05
-7.18
-8.71
-9.55
-9.85
-9.95
-10.23
-10.90
-12.04
-13.56
-15.34
-17.24
-19.07
-20.56
-21.33
-21.04
-19.54
-16.99
-13.82
-10.55
-7.61
-5.22
-3.39
-1.98
-0.86
0.09
0.98
1.87
2.88
4.02
5.22
6.32
7.11
7.50
7.56
7.52
7.63
8.02
8.65
9.32
9.80
9.94
9.74
9.28
8.73
8.18
7.70
7.23
6.70
6.05
5.25
4.39
3.58
2.91
2.46
2.17
1.92
1.51
0.77
-0.37
-1.85
-3.47
-4.99
-6.23
-7.17
-7.99
-9.00
-10.52
-12.75
-15.63
-18.85
-21.88
-24.16
-25.18
-24.73
-22.85
-19.90
-16.41
-12.92
-9.84
-7.30
-5.24
-3.52
-2.06
-0.87
-0.02
0.55
1.00
1.54
2.33
3.37
4.49
5.45
6.14
6.56
6.87
7.24
7.74
8.37
9.07
9.77
10.42
10.97
11.35
11.46
11.26
10.76
10.04
9.22
8.40
7.63
6.88
6.16
5.44
4.76
4.12
3.49
2.81
2.00
0.93
-0.43
-2.06
-3.89
-5.74
-7.50
-9.15
-10.76
-12.51
-14.60
-17.09
-19.84
-22.48
-24.53
-25.53
-25.21
-23.59
-20.94
-17.71
-14.36
-11.23
-8.50
-6.18
-4.20
-2.45
-0.90
0.54
1.92
3.29
4.66
5.91
6.85
7.31
7.24
6.77
6.15
5.70
5.61
5.94
6.58
7.35
8.06
8.56
8.78
8.72
8.40
7.90
7.26
6.54
5.74
4.84
3.79
2.59
1.21
-0.29
-1.82
-3.23
-4.40
-5.27
-5.97
-6.79
-8.07
-10.07
-12.78
-15.94
-19.02
-21.49
-22.89
-22.97
-21.70
-19.28
-16.12
-12.70
-9.49
-6.75
-4.57
-2.78
-1.19
0.33
1.79
3.10
4.22
5.20
6.24
7.48
8.96
10.60
12.21
13.63
14.79
15.71
16.41
16.85
17.01
16.93
16.80
16.93
17.61
18.85
20.35
21.54
21.86
21.10
19.60
18.14
17.57
18.37
20.36
22.76
24.44
24.56
22.97
20.36
17.95
16.91
17.88
20.77
25.01
29.99
35.35
40.91
46.43
51.47
55.53
58.42
60.69
63.42
67.63
73.39
79.47
83.84
84.89
82.60
78.86
76.54
77.77
82.50
88.27
91.39
88.97
80.69
69.03
58.04
51.23
49.79
52.15
55.07
55.38
51.48
43.87
34.63
26.25
20.49
17.71
16.90
16.17
13.66
8.23
0.00
-9.71
-19.18
-27.11
-33.43
-39.46
-47.26
-58.73
-74.99
-96.36
-122.62
-153.00
-185.83
-218.05
-245.22
-262.38
-265.65
-253.64
-228.21
-193.92
-156.65
-121.88
-93.50
-73.39
-61.74
-57.48
-58.73
-63.02
-67.60
-70.04
-68.85
-63.93
-56.41
-47.94
-39.83
-32.28
-24.32
-14.39
-1.24
15.26
33.94
52.77
69.60
82.75
91.12
94.01
90.99
82.00
67.65
49.52
30.04
12.06
-1.94
-10.53
-13.75
-13.04
-10.60
-8.66
-8.68
-11.00
-14.95
-19.22
-22.45
-23.60
-22.20
-18.30
-12.41
-5.35
1.87
8.18
12.66
14.68
14.18
11.58
7.75
3.69
0.27
-2.01
-3.05
-3.13
-2.72
-2.39
-2.59
-3.63
-5.62
-8.47
-11.97
-15.75
-19.32
-22.13
-23.73
-24.00
-23.23
-22.11
-21.44
-21.83
-23.44
-25.98
-29.01
-32.19
-35.41
-38.71
-42.03
-45.17
-47.78
-49.71
-51.13
-52.40
-53.68
-54.55
-53.90
-50.30
-42.53
-30.20
-14.00
4.48
23.10
39.69
52.39
60.08
62.63
61.10
57.56
54.47
53.76
56.00
60.13
63.94
65.15
62.39
55.81
46.81
37.34
29.08
22.87
18.73
16.27
15.14
15.21
16.60
19.26
22.82
26.35
28.53
28.03
23.92
16.15
5.64
-6.02
-17.04
-26.08
-32.50
-36.22
-37.49
-36.42
-32.99
-27.18
-19.21
-9.79
0.08
9.45
17.73
24.84
31.10
36.86
42.25
47.15
51.23
54.19
55.89
56.41
56.06
55.24
54.45
54.19
54.85
56.58
59.23
62.36
65.24
66.96
66.59
63.38
57.00
47.82
36.84
25.37
14.59
5.00
-3.71
-12.39
-21.95
-32.84
-44.87
-57.33
-69.30
-79.92
-88.46
-94.30
-96.93
-96.04
-91.76
-84.76
-76.09
-66.87
-57.91
-49.61
-42.02
-34.98
-28.35
-22.00
-15.82
-9.66
-3.33
3.23
9.85
16.11
21.48
25.57
28.27
29.76
30.40
30.51
30.27
29.63
28.43
26.50
23.77
20.28
16.23
11.96
7.92
4.64
2.58
2.07
3.00
4.88
6.92
8.34
8.66
7.76
5.70
2.52
-1.90
-7.76
-14.96
-22.91
-30.53
-36.74
-40.80
-42.58
-42.39
-40.60
-37.31
-32.43
-25.99
-18.37
-10.31
-2.62
4.23
10.02
14.81
18.70
21.83
24.39
26.64
28.84
31.02
32.87
33.71
33.13
31.45
29.66
29.01
30.16
32.92
36.38
39.53
41.34
41.34
39.48
35.75
29.93
21.82
11.91
1.80
-6.13
-10.73
-11.96
-10.81
-8.59
-6.27
-4.04
-1.21
3.34
10.32
17.61
22.03
20.72
12.61
-1.49
-19.50
-39.20
-58.71
-77.05
-96.06
-117.86
-143.09
-170.10
-195.81
-217.19
-232.57
-241.62
-231.96
-196.49
-137.13
-65.15
5.86
67.26
116.66
154.53
182.32
201.83
212.92
215.62
211.09
202.02
191.71
183.23
176.63
170.97
165.12
157.24
146.21
132.01
115.96
100.26
87.90
78.17
69.44
60.95
51.90
41.49
28.73
12.67
-7.42
-31.40
-59.83
-94.94
-137.73
-188.25
-246.09
-310.90
-382.30
-459.71
-522.42
-557.53
-562.17
-542.19
-505.02
-454.09
-389.96
-314.40
-242.23
-174.44
-117.04
-75.48
-50.73
-39.07
-34.85
-33.36
-32.53
-31.95
-29.71
-27.64
-26.74
-26.33
-24.86
-21.35
-16.09
-10.21
-4.28
3.65
13.49
25.63
40.95
60.06
82.50
106.65
130.35
152.15
172.66
191.95
210.82
230.63
252.92
278.70
307.80
338.47
367.42
390.65
403.45
402.59
387.82
362.05
330.17
297.07
265.89
237.41
210.87
185.16
160.11
136.81
116.87
101.33
89.92
81.21
73.36
64.86
55.00
43.82
31.72
19.12
6.34
-6.23
-18.02
-28.31
-36.47
-42.09
-45.14
-45.77
-44.33
-41.13
-36.53
-30.92
-24.75
-18.52
-12.65
-7.41
-2.78
1.31
4.82
7.51
8.94
8.97
8.02
7.27
8.19
11.89
18.45
26.64
34.39
39.60
40.94
38.27
32.42
24.57
15.66
6.17
-3.76
-13.88
-23.65
-32.15
-38.51
-42.12
-43.01
-41.61
-38.53
-34.21
-28.80
-22.30
-14.79
-6.73
1.19
8.41
14.91
21.37
28.71
37.35
46.45
53.79
56.39
51.78
39.22
20.33
-1.37
-21.75
-37.48
-47.14
-51.29
-51.80
-50.81
-50.01
-50.42
-52.59
-57.02
-64.15
-74.13
-86.37
-99.30
-110.67
-118.30
-120.91
-118.52
-112.42
-104.51
-96.55
-89.52
-83.42
-77.58
-71.19
-63.79
-55.50
-46.99
-39.08
-32.38
-27.05
-22.86
-19.41
-16.37
-13.67
-11.42
-9.80
-8.73
-7.93
-6.92
-5.27
-2.79
0.38
3.76
6.63
8.23
7.98
5.74
1.85
-2.83
-7.24
-10.50
-12.16
-12.37
-11.77
-11.24
-11.63
-13.43
-16.60
-20.52
-24.12
-26.21
-25.97
-23.24
-18.64
-13.21
-7.94
-3.31
0.80
4.74
8.79
12.79
16.26
18.78
20.26
21.03
21.59
22.24
22.93
23.36
23.16
22.22
20.73
19.03
17.49
16.36
15.78
15.82
16.56
18.07
20.27
22.85
25.28
26.96
27.43
26.60
24.71
22.26
19.71
17.32
15.03
12.58
9.73
6.46
3.05
-0.01
-2.14
-2.98
-2.44
-0.77
1.62
4.27
6.79
8.86
10.27
10.86
10.60
9.66
8.38
7.20
6.56
6.64
7.39
8.51
9.50
9.92
9.46
8.15
6.30
4.42
3.00
2.36
2.52
3.24
4.25
5.28
6.24
7.09
7.76
8.16
8.23
7.98
7.48
6.78
5.75
4.15
1.78
-1.34
-4.92
-8.48
-11.54
-13.79
-15.04
-15.21
-14.28
-12.33
-9.60
-6.58
-3.87
-1.92
-0.84
-0.32
0.18
1.15
2.79
4.93
7.12
8.86
9.73
9.59
8.56
6.96
5.22
3.77
2.86
2.56
2.62
2.65
2.25
1.24
-0.26
-1.95
-3.50
-4.72
-5.61
-6.20
-6.41
-6.05
-4.94
-3.28
-1.61
-0.85
-1.78
-4.71
-9.20
-14.20
-18.47
-21.04
-21.51
-20.11
-17.46
-14.35
-11.37
-8.90
-6.96
-5.38
-3.84
-2.09
-0.00
2.33
4.68
6.69
8.08
8.69
8.48
7.55
6.07
4.18
2.05
-0.15
-2.23
-4.01
-5.31
-6.08
-6.37
-6.39
-6.39
-6.60
-7.20
-8.17
-9.33
-10.24
-10.42
-9.48
-7.35
-4.49
-1.73
-0.01
0.01
-1.83
-5.08
-8.96
-12.67
-15.59
-17.44
-18.12
-17.66
-16.14
-13.70
-10.68
-7.50
-4.64
-2.40
-0.80
0.44
1.74
3.40
5.40
7.41
8.94
9.59
9.32
8.34
7.08
5.94
5.15
4.75
4.62
4.55
4.29
3.63
2.52
1.14
-0.14
-0.89
-0.89
-0.28
0.53
1.12
1.31
1.29
1.47
2.11
3.09
3.94
4.14
3.54
2.46
1.53
1.22
1.50
1.79
1.22
-0.89
-4.67
-9.57
-14.60
-18.69
-21.10
-21.63
-20.59
-18.58
-16.18
-13.71
-11.19
-8.44
-5.40
-2.29
0.42
2.19
2.82
2.53
1.96
1.77
2.24
3.18
4.02
4.24
3.66
2.54
1.40
0.68
0.36
0.17
-0.30
-1.22
-2.35
-3.15
-3.17
-2.27
-0.78
0.74
1.79
2.19
2.16
2.09
2.31
2.86
3.48
3.82
3.71
3.26
2.95
3.23
4.31
5.89
7.24
7.50
6.09
2.99
-1.22
-5.72
-9.72
-12.76
-14.75
-15.82
-16.15
-15.86
-14.95
-13.46
-11.46
-9.13
-6.73
-4.54
-2.82
-1.70
-1.08
-0.64
-0.01
1.09
2.58
4.09
5.17
5.54
5.28
4.72
4.25
4.00
3.84
3.49
2.74
1.71
0.74
0.26
0.53
1.61
3.38
5.62
8.11
10.66
13.09
15.14
16.58
17.13
16.62
15.02
12.58
9.81
7.42
6.02
5.82
6.51
7.26
7.11
5.42
2.12
-2.31
-7.08
-11.56
-15.44
-18.66
-21.21
-22.88
-23.18
-21.60
-17.87
-12.27
-5.58
1.11
6.81
10.83
12.95
13.27
12.08
9.76
6.84
3.97
1.87
1.16
2.06
4.30
7.11
9.57
10.89
10.79
9.47
7.52
5.60
4.17
3.41
3.18
3.17
3.00
2.35
1.16
-0.44
-2.19
-3.80
-5.20
-6.51
-7.99
-9.81
-11.96
-14.22
-16.23
-17.75
-18.69
-19.17
-19.38
-19.48
-19.47
-19.23
-18.56
-17.29
-15.42
-13.07
-10.56
-8.24
-6.31
-4.77
-3.36
-1.75
0.27
2.69
5.32
7.93
10.33
12.42
14.11
15.29
15.86
15.89
15.65
15.60
16.11
17.31
18.88
20.15
20.39
19.10
16.28
12.48
8.57
5.44
3.60
3.02
3.11
3.03
1.96
-0.57
-4.60
-9.79
-15.57
-21.30
-26.32
-30.05
-32.04
-32.07
-30.21
-26.84
-22.50
-17.87
-13.51
-9.78
-6.78
-4.28
-1.94
0.59
3.44
6.39
8.98
10.77
11.56
11.51
10.99
10.34
9.67
8.90
7.87
6.65
5.53
4.86
4.86
5.43
6.18
6.64
6.45
5.58
4.22
2.67
1.22
-0.01
-1.01
-1.82
-2.49
-2.99
-3.26
-3.27
-3.22
-3.52
-4.68
-7.08
-10.73
-15.11
-19.38
-22.59
-24.15
-23.97
-22.44
-20.14
-17.55
-14.85
-11.97
-8.76
-5.20
-1.41
2.33
5.78
8.75
11.20
13.16
14.65
15.63
16.05
15.88
15.16
14.08
12.94
12.02
11.45
11.14
10.85
10.35
9.58
8.78
8.36
8.63
9.62
10.94
12.01
12.29
11.55
9.93
7.78
5.49
3.26
1.17
-0.81
-2.70
-4.57
-6.56
-8.94
-11.94
-15.59
-19.56
-23.20
-25.74
-26.67
-25.90
-23.73
-20.64
-17.05
-13.26
-9.46
-5.82
-2.58
0.15
2.43
4.59
6.99
9.82
12.93
15.88
18.20
19.62
20.22
20.28
20.05
19.60
18.80
17.53
15.84
14.02
12.55
11.85
12.07
13.02
14.20
15.05
15.18
14.53
13.31
11.89
10.63
9.66
8.98
8.42
7.70
6.54
4.63
1.77
-2.10
-6.72
-11.66
-16.33
-20.24
-23.10
-24.79
-25.35
-24.81
-23.20
-20.64
-17.36
-13.76
-10.21
-6.93
-3.88
-0.81
2.49
6.07
9.73
13.10
15.80
17.60
18.48
18.63
18.32
17.79
17.17
16.47
15.63
14.64
13.62
12.79
12.34
12.33
12.57
12.68
12.30
11.32
9.95
8.58
7.55
6.84
6.05
4.58
1.94
-1.93
-6.57
-11.21
-15.05
-17.64
-18.99
-19.42
-19.30
-18.78
-17.76
-16.06
-13.63
-10.71
-7.66
-4.81
-2.18
0.41
3.25
6.41
9.68
12.60
14.72
15.81
15.97
15.47
14.64
13.70
12.73
11.73
10.76
9.92
9.36
9.13
9.16
9.15
8.76
7.66
5.74
3.22
0.51
-1.82
-3.38
-3.98
-3.78
-3.19
-2.80
-3.26
-5.08
-8.41
-12.93
-17.84
-22.06
-24.66
-25.16
-23.76
-21.13
-18.06
-15.08
-12.28
-9.46
-6.46
-3.37
-0.55
1.64
3.13
4.20
5.23
6.51
7.95
9.17
9.77
9.62
8.96
8.25
7.83
7.78
7.82
7.56
6.74
5.37
3.73
2.16
0.92
0.09
-0.38
-0.64
-0.82
-1.12
-1.69
-2.67
-4.08
-5.74
-7.30
-8.37
-8.70
-8.42
-8.02
-8.19
-9.47
-11.99
-15.37
-18.87
-21.67
-23.17
-23.16
-21.79
-19.44
-16.55
-13.43
-10.28
-7.17
-4.16
-1.35
1.10
3.12
4.73
6.07
7.32
8.65
10.02
11.26
12.12
12.41
12.08
11.33
10.39
9.51
8.81
8.32
7.98
7.72
7.56
7.53
7.70
8.11
8.70
9.28
9.63
9.49
8.75
7.41
5.63
3.69
1.88
0.44
-0.53
-1.11
-1.55
-2.27
-3.66
-5.96
-9.15
-12.89
-16.62
-19.76
-21.85
-22.64
-22.14
-20.47
-17.89
-14.70
-11.25
-7.93
-5.05
-2.89
-1.51
-0.76
-0.30
0.26
1.21
2.54
3.99
5.18
5.85
6.02
6.01
6.21
6.84
7.86
8.98
9.90
10.49
10.86
11.20
11.63
12.07
12.35
12.35
12.10
11.76
11.48
11.28
11.00
10.44
9.44
8.03
6.39
4.75
3.29
2.05
0.84
-0.65
-2.76
-5.67
-9.29
-13.27
-17.04
-20.06
-22.03
-22.90
-22.89
-22.21
-20.95
-19.03
-16.35
-12.95
-9.11
-5.23
-1.73
1.20
3.60
5.65
7.49
9.13
10.47
11.37
11.83
11.91
11.78
11.47
10.93
10.08
8.95
7.72
6.66
5.98
5.65
5.43
4.99
4.15
2.96
1.82
1.13
1.17
1.85
2.74
3.26
2.87
1.29
-1.47
-5.06
-9.01
-12.78
-15.94
-18.26
-19.65
-20.17
-19.83
-18.65
-16.62
-13.79
-10.41
-6.87
-3.60
-0.91
1.18
2.88
4.50
6.24
8.03
9.60
10.62
10.92
10.54
9.73
8.79
7.93
7.20
6.60
6.13
5.88
5.96
6.43
7.16
7.90
8.35
8.31
7.74
6.76
5.56
4.24
2.85
1.33
-0.43
-2.49
-4.86
-7.53
-10.40
-13.37
-16.31
-19.06
-21.45
-23.25
-24.27
-24.25
-23.04
-20.62
-17.16
-13.07
-8.88
-5.13
-2.18
-0.14
1.22
2.31
3.53
5.09
6.92
8.76
10.29
11.33
11.85
11.90
11.54
10.80
9.74
8.52
7.43
6.73
6.55
6.78
7.13
7.28
7.01
6.34
5.44
4.56
3.89
3.47
3.18
2.86
2.31
1.46
0.35
-0.88
-2.10
-3.26
-4.46
-5.85
-7.61
-9.85
-12.55
-15.64
-18.94
-22.25
-25.24
-27.56
-28.82
-28.74
-27.23
-24.46
-20.82
-16.79
-12.80
-9.13
-5.86
-2.96
-0.39
1.88
3.82
5.41
6.72
7.85
8.94
10.01
10.97
11.62
11.79
11.43
10.66
9.71
8.84
8.24
8.01
8.18
8.64
9.27
9.88
10.37
10.75
11.11
11.57
12.14
12.63
12.74
12.16
10.72
8.47
5.64
2.56
-0.42
-2.98
-4.96
-6.37
-7.41
-8.48
-10.01
-12.24
-15.19
-18.49
-21.62
-24.06
-25.48
-25.76
-25.00
-23.39
-21.12
-18.40
-15.40
-12.31
-9.20
-6.08
-2.87
0.45
3.83
7.08
9.88
11.94
13.06
13.26
12.72
11.76
10.70
9.82
9.29
9.12
9.21
9.46
9.72
9.94
10.12
10.28
10.49
10.74
10.98
11.12
11.03
10.67
10.04
9.18
8.13
6.84
5.26
3.35
1.26
-0.71
-2.24
-3.15
-3.60
-4.07
-5.22
-7.50
-10.95
-15.11
-19.20
-22.47
-24.45
-25.00
-24.28
-22.60
-20.31
-17.73
-15.13
-12.76
-10.61
-8.49
-5.93
-2.39
2.53
8.82
15.90
22.75
28.11
30.98
30.91
28.23
23.84
18.92
14.56
11.42
9.67
9.16
9.54
10.46
11.63
12.85
13.93
14.72
15.11
15.03
14.43
13.37
11.92
10.21
8.29
6.04
3.17
-0.67
-5.67
-11.59
-17.81
-23.43
-27.70
-30.26
-31.35
-31.49
-31.21
-30.73
-29.85
-28.24
-25.64
-22.08
-17.91
-13.60
-9.50
-5.79
-2.37
0.90
4.15
7.34
10.34
12.88
14.76
15.86
16.24
16.08
15.66
15.25
15.03
15.10
15.42
15.90
16.36
16.56
16.32
15.53
14.26
12.67
11.00
9.41
7.88
6.22
4.15
1.46
-1.95
-6.01
-10.54
-15.32
-20.07
-24.46
-28.07
-30.51
-31.35
-30.37
-27.60
-23.36
-18.19
-12.78
-7.73
-3.41
0.06
2.78
4.91
6.59
7.88
8.78
9.31
9.55
9.62
9.60
9.52
9.26
8.72
7.81
6.67
5.56
4.80
4.61
4.91
5.35
5.44
4.80
3.40
1.53
-0.39
-2.08
-3.56
-5.18
-7.36
-10.32
-14.01
-18.15
-22.42
-26.55
-30.29
-33.31
-35.11
-35.14
-32.95
-28.51
-22.25
-15.08
-8.03
-1.98
2.64
5.87
8.10
9.90
11.65
13.52
15.45
17.30
18.92
20.21
21.06
21.28
20.67
19.08
16.64
13.77
11.09
9.11
8.03
7.70
7.70
7.59
7.11
6.22
5.02
3.62
2.06
0.30
-1.67
-3.81
-6.00
-8.14
-10.26
-12.54
-15.26
-18.57
-22.36
-26.14
-29.14
-30.53
-29.73
-26.69
-21.84
-15.97
-9.98
-4.51
0.10
3.83
6.88
9.47
11.75
13.78
15.58
17.11
18.36
19.34
20.06
20.52
20.75
20.78
20.60
20.25
19.70
18.99
18.14
17.27
16.46
15.75
15.10
14.41
13.55
12.41
11.02
9.45
7.83
6.22
4.59
2.85
0.86
-1.48
-4.22
-7.38
-10.93
-14.83
-18.96
-23.08
-26.76
-29.43
-30.49
-29.52
-26.47
-21.68
-15.87
-9.77
-4.01
1.08
5.48
9.34
12.86
16.11
19.09
21.71
23.88
25.54
26.68
27.33
27.54
27.35
26.78
25.91
24.82
23.67
22.66
21.98
21.70
21.65
21.50
20.86
19.49
17.39
14.82
12.18
9.82
7.87
6.20
4.48
2.34
-0.51
-4.12
-8.43
-13.17
-18.06
-22.85
-27.28
-31.08
-33.90
-35.38
-35.21
-33.27
-29.71
-24.92
-19.43
-13.69
-8.01
-2.58
2.51
7.09
11.00
14.06
16.20
17.51
18.22
18.59
18.87
19.16
19.54
19.99
20.55
21.21
21.96
22.72
23.32
23.54
23.12
21.92
19.93
17.36
14.53
11.75
9.17
6.71
4.13
1.11
-2.55
-6.91
-11.84
-17.12
-22.44
-27.47
-31.78
-34.91
-36.36
-35.79
-33.16
-28.79
-23.32
-17.49
-11.96
-7.09
-2.95
0.61
3.81
6.72
9.34
11.54
13.26
14.50
15.38
15.98
16.37
16.54
16.50
16.32
16.14
16.17
16.54
17.26
18.14
18.87
19.15
18.80
17.90
16.67
15.47
14.49
13.74
12.96
11.76
9.83
7.13
3.98
0.85
-1.74
-3.55
-4.59
-5.01
-4.99
-4.72
-4.64
-5.62
-8.79
-14.97
-24.03
-34.51
-43.95
-49.79
-50.40
-45.73
-37.13
-26.66
-16.24
-7.06
0.36
5.94
9.68
11.70
12.30
12.13
12.06
12.89
14.91
17.78
20.41
21.21
18.73
12.29
2.66
-7.66
-15.04
-16.02
-8.92
5.02
21.82
36.22
43.82
42.91
34.95
23.64
13.04
5.79
2.41
1.68
1.81
1.50
0.43
-0.95
-2.12
-2.99
-3.90
-5.42
-7.87
-11.04
-14.36
-17.34
-19.97
-22.75
-26.13
-29.95
-33.14
-34.08
-31.52
-25.34
-16.82
-8.04
-0.87
3.86
6.49
7.94
8.91
9.46
9.19
7.84
5.83
4.24
4.25
6.39
10.16
14.27
17.35
18.70
18.53
17.67
16.82
16.19
15.61
15.03
15.02
16.73
21.10
28.07
36.11
42.77
45.89
44.71
40.14
34.18
28.61
24.09
20.14
15.88
10.92
5.76
1.38
-1.64
-3.64
-5.80
-9.40
-14.93
-21.79
-28.66
-34.30
-38.15
-40.42
-41.67
-42.31
-42.30
-41.35
-39.33
-36.48
-33.33
-30.44
-28.08
-26.15
-24.41
-22.60
-20.54
-18.08
-15.15
-11.70
-8.00
-4.57
-2.04
-0.91
-1.16
-2.34
-3.81
-5.08
-6.07
-6.93
-7.79
-8.52
-8.72
-8.03
-6.41
-4.30
-2.48
-1.67
-2.22
-3.89
-6.02
-7.83
-8.78
-8.78
-8.21
-7.66
-7.69
-8.58
-10.32
-12.68
-15.49
-18.72
-22.44
-26.61
-30.86
-34.52
-36.86
-37.41
-36.16
-33.55
-30.18
-26.55
-22.90
-19.34
-15.89
-12.63
-9.52
-6.49
-3.41
-0.30
2.59
4.80
5.98
6.16
5.78
5.51
5.91
7.15
9.03
11.16
13.20
14.93
16.22
16.89
16.78
15.85
14.26
12.35
10.54
9.10
8.06
7.22
6.28
4.93
3.03
0.54
-2.35
-5.41
-8.29
-10.71
-12.40
-13.15
-12.74
-10.94
-7.65
-3.05
2.29
7.51
11.77
14.66
16.35
17.47
18.77
20.63
22.96
25.21
26.80
27.41
27.07
26.07
24.77
23.50
22.50
22.01
22.25
23.31
24.98
26.71
27.70
27.24
24.97
21.06
16.14
10.98
6.15
1.83
-2.14
-6.10
-10.28
-14.72
-19.19
-23.38
-26.93
-29.55
-30.97
-31.01
-29.45
-26.14
-21.14
-14.74
-7.58
-0.53
5.45
9.65
11.87
12.57
12.64
12.99
14.05
15.62
17.05
17.77
17.76
17.61
18.31
20.67
24.97
30.98
38.37
47.15
57.76
70.66
85.62
101.15
114.62
123.20
125.00
120.05
110.26
98.73
88.42
81.27
77.90
78.03
81.05
86.21
92.50
98.34
101.67
100.59
94.44
84.36
72.91
63.07
56.75
54.06
53.42
52.34
48.29
39.39
24.65
4.22
-20.49
-46.91
-71.89
-92.61
-107.64
-117.33
-123.44
-128.28
-133.77
-141.00
-150.33
-161.62
-174.27
-187.11
-198.23
-205.03
-204.98
-196.29
-178.63
-153.43
-123.76
-93.77
-67.75
-48.94
-38.54
-35.23
-35.63
-35.56
-31.54
-21.85
-6.78
11.78
31.05
47.95
59.56
63.47
58.19
43.52
20.62
-8.08
-39.27
-69.13
-93.84
-110.17
-116.25
-112.21
-100.40
-84.67
-69.08
-56.29
-46.82
-39.33
-31.79
-22.70
-11.67
0.87
14.26
27.98
41.36
53.11
61.17
63.31
58.17
46.29
30.10
13.03
-1.80
-12.64
-19.38
-22.95
-24.57
-25.11
-24.96
-24.30
-23.44
-22.86
-23.03
-23.88
-24.45
-22.85
-16.94
-5.24
12.03
32.51
52.36
67.45
75.02
74.51
67.42
56.32
43.74
31.45
20.51
11.70
5.73
3.18
4.00
7.19
10.97
13.45
13.42
10.84
6.80
2.86
0.38
0.02
1.69
4.83
8.75
12.90
16.86
20.29
22.80
24.13
24.20
23.31
22.03
20.95
20.34
20.00
19.40
18.05
15.88
13.46
11.55
10.61
10.21
9.06
5.50
-1.55
-11.93
-24.15
-35.99
-45.55
-52.06
-55.94
-58.13
-59.21
-58.88
-56.14
-50.25
-41.58
-31.99
-24.16
-20.36
-21.08
-24.57
-27.30
-25.54
-17.02
-2.13
16.13
33.42
45.97
52.12
52.82
50.92
49.63
51.05
55.34
60.70
64.28
63.21
55.56
40.99
20.87
-2.05
-24.26
-42.39
-54.08
-58.60
-56.87
-51.00
-43.37
-35.66
-28.33
-20.65
-11.28
0.91
16.10
33.28
50.35
64.84
74.73
79.28
79.30
76.80
74.06
72.49
71.91
70.67
66.58
58.25
46.11
32.39
20.14
11.81
8.22
8.41
10.40
12.23
12.76
11.70
9.30
5.86
1.52
-3.71
-9.59
-15.51
-20.36
-22.84
-21.78
-16.55
-7.25
5.27
19.76
34.87
49.53
63.02
74.68
83.66
88.82
88.96
83.31
72.03
56.41
38.79
22.03
8.81
0.99
-0.85
2.44
8.70
15.19
19.31
19.46
15.27
7.51
-2.61
-13.98
-25.96
-38.14
-49.87
-60.12
-67.60
-71.38
-71.39
-68.56
-64.31
-59.86
-55.70
-51.58
-47.01
-41.75
-36.11
-30.71
-26.10
-22.44
-19.54
-17.22
-15.60
-15.22
-16.73
-20.45
-26.12
-32.81
-39.27
-44.34
-47.26
-47.77
-46.00
-42.27
-37.05
-30.86
-24.26
-17.86
-12.14
-7.41
-3.72
-0.91
1.29
3.20
5.04
6.95
8.94
10.95
12.94
14.84
16.62
18.27
19.75
20.99
21.93
22.42
22.23
21.07
18.69
15.03
10.33
5.21
0.49
-3.14
-5.39
-6.56
-7.31
-8.35
-10.13
-12.55
-15.12
-17.18
-18.19
-17.89
-16.39
-14.01
-11.10
-7.99
-4.83
-1.67
1.53
4.77
7.98
11.00
13.70
15.99
17.94
19.68
21.28
22.71
23.82
24.41
24.35
23.68
22.52
21.12
19.68
18.34
17.09
15.82
14.31
12.37
9.95
7.13
4.23
1.55
-0.76
-2.83
-4.99
-7.51
-10.41
-13.36
-15.84
-17.38
-17.86
-17.46
-16.60
-15.65
-14.80
-13.99
-13.04
-11.76
-10.08
-8.07
-5.88
-3.67
-1.53
0.52
2.49
4.34
5.94
7.13
7.75
7.85
7.73
7.88
8.73
10.47
12.81
15.11
16.56
16.56
14.98
12.18
8.88
5.85
3.55
2.05
1.02
-0.02
-1.49
-3.51
-5.87
-8.17
-10.03
-11.25
-11.87
-12.10
-12.12
-11.93
-11.40
-10.34
-8.68
-6.57
-4.28
-2.09
-0.14
1.61
3.30
5.06
6.91
8.73
10.34
11.56
12.28
12.51
12.43
12.31
12.41
12.89
13.65
14.44
14.82
14.48
13.25
11.20
8.56
5.62
2.71
0.11
-1.95
-3.34
-4.07
-4.36
-4.50
-4.82
-5.60
-7.01
-9.09
-11.73
-14.68
-17.60
-20.11
-21.93
-22.93
-23.22
-22.98
-22.38
-21.47
-20.13
-18.25
-15.80
-12.98
-10.08
-7.40
-5.08
-3.04
-1.14
0.79
2.75
4.59
6.05
6.95
7.30
7.28
7.26
7.57
8.43
9.81
11.46
12.99
14.04
14.46
14.31
13.82
13.24
12.72
12.15
11.33
10.11
8.50
6.77
5.23
4.12
3.44
2.97
2.38
1.43
0.03
-1.80
-3.98
-6.40
-8.95
-11.40
-13.51
-15.05
-15.94
-16.14
-15.71
-14.64
-12.84
-10.34
-7.30
-4.06
-0.99
1.75
4.25
6.79
9.43
11.88
13.52
13.74
12.43
10.10
7.72
6.23
6.08
7.04
8.47
9.73
10.55
11.04
11.48
11.97
12.32
12.18
11.27
9.70
7.87
6.38
5.64
5.69
6.18
6.54
6.24
5.02
2.94
0.37
-2.22
-4.47
-6.23
-7.67
-9.07
-10.73
-12.65
-14.60
-16.18
-17.09
-17.33
-17.27
-17.44
-18.28
-19.89
-22.03
-24.21
-25.97
-27.00
-27.21
-26.71
-25.63
-24.02
-21.88
-19.14
-15.85
-12.19
-8.48
-5.04
-2.12
0.24
2.09
3.58
4.84
5.90
6.74
7.30
7.51
7.37
6.98
6.57
6.44
6.80
7.65
8.62
9.15
8.70
7.16
4.91
2.74
1.37
1.05
1.44
1.87
1.74
0.96
-0.10
-0.90
-1.08
-0.78
-0.58
-1.15
-2.89
-5.82
-9.51
-13.41
-17.00
-20.03
-22.46
-24.47
-26.30
-28.16
-30.16
-32.23
-34.21
-35.85
-36.91
-37.24
-36.78
-35.56
-33.65
-31.13
-28.10
-24.71
-21.20
-17.94
-15.23
-13.20
-11.67
-10.20
-8.32
-5.75
-2.70
0.28
2.51
3.60
3.73
3.60
4.04
5.62
8.35
11.64
14.69
16.76
17.44
16.71
14.81
12.10
9.07
6.18
3.90
2.53
2.12
2.42
2.89
2.95
2.20
0.55
-1.76
-4.33
-6.80
-9.04
-11.14
-13.34
-15.76
-18.30
-20.67
-22.53
-23.67
-24.11
-24.00
-23.44
-22.29
-20.29
-17.21
-13.13
-8.49
-3.92
0.04
3.22
5.87
8.36
11.00
13.79
16.46
18.64
20.08
20.80
21.05
21.18
21.42
21.85
22.35
22.75
22.90
22.83
22.64
22.45
22.27
21.92
21.15
19.82
17.99
15.95
14.09
12.65
11.61
10.69
9.49
7.67
5.15
2.04
-1.34
-4.74
-7.97
-11.02
-13.93
-16.70
-19.22
-21.20
-22.30
-22.17
-20.68
-17.95
-14.36
-10.40
-6.52
-2.98
0.21
3.13
5.89
8.49
10.85
12.89
14.59
16.03
17.33
18.56
19.65
20.49
21.02
21.36
21.84
22.81
24.37
26.27
27.92
28.68
28.24
26.69
24.52
22.31
20.41
18.81
17.22
15.33
12.97
10.25
7.44
4.75
2.29
-0.13
-2.74
-5.77
-9.24
-12.96
-16.58
-19.74
-22.26
-24.19
-25.76
-27.13
-28.19
-28.41
-27.16
-24.01
-19.11
-13.20
-7.35
-2.37
1.47
4.46
7.23
10.22
13.46
16.60
19.20
21.01
22.07
22.66
23.04
23.43
23.85
24.34
24.93
25.69
26.65
27.73
28.75
29.45
29.62
29.18
28.21
26.95
25.71
24.74
24.09
23.64
23.03
21.90
19.96
17.10
13.44
9.22
4.85
0.71
-2.90
-5.94
-8.60
-11.28
-14.38
-18.13
-22.42
-26.85
-30.91
-34.26
-36.84
-38.74
-40.05
-40.58
-39.85
-37.37
-33.00
-27.21
-21.00
-15.52
-11.47
-8.81
-6.83
-4.60
-1.54
2.24
6.02
8.99
10.69
11.35
11.67
12.40
13.96
16.19
18.54
20.40
21.45
21.79
21.81
21.91
22.25
22.69
22.81
22.29
21.05
19.40
17.84
16.84
16.50
16.46
16.07
14.72
12.13
8.52
4.43
0.47
-3.06
-6.23
-9.31
-12.55
-16.03
-19.58
-23.03
-26.37
-29.81
-33.62
-38.01
-42.84
-47.66
-51.76
-54.44
-55.22
-53.96
-50.84
-46.25
-40.67
-34.55
-28.30
-22.30
-16.92
-12.41
-8.88
-6.24
-4.24
-2.60
-1.10
0.33
1.69
3.02
4.37
5.90
7.69
9.71
11.74
13.46
14.61
15.11
15.08
14.77
14.38
13.97
13.43
12.51
11.10
9.19
6.98
4.76
2.71
0.86
-0.95
-2.88
-5.02
-7.33
-9.69
-12.06
-14.53
-17.29
-20.51
-24.19
-28.08
-31.77
-34.78
-36.72
-37.36
-36.65
-34.62
-31.33
-26.89
-21.39
-15.08
-8.39
-1.90
3.78
8.23
11.35
13.39
14.70
15.64
16.25
16.44
16.11
15.37
14.64
14.44
15.15
16.77
18.88
20.86
22.18
22.55
22.04
20.94
19.58
18.18
16.83
15.48
14.01
12.28
10.16
7.49
4.19
0.26
-4.10
-8.57
-12.70
-16.10
-18.58
-20.15
-21.03
-21.41
-21.33
-20.51
-18.49
-14.89
-9.61
-3.03
4.03
10.66
16.16
20.25
23.15
25.26
26.95
28.31
29.14
29.23
28.53
27.27
25.86
24.79
24.33
24.55
25.31
26.30
27.16
27.57
27.29
26.26
24.60
22.52
20.22
17.83
15.31
12.58
9.64
6.54
3.32
-0.05
-3.74
-7.91
-12.58
-17.55
-22.43
-26.85
-30.55
-33.43
-35.35
-36.04
-35.07
-32.10
-27.16
-20.77
-13.88
-7.42
-1.94
2.61
6.68
10.80
15.15
19.49
23.26
25.98
27.42
27.80
27.60
27.31
27.28
27.51
27.87
28.13
28.17
27.99
27.68
27.27
26.65
25.57
23.79
21.25
18.18
15.05
12.34
10.30
8.71
7.06
4.71
1.20
-3.50
-9.01
-14.76
-20.20
-24.99
-29.06
-32.50
-35.45
-37.97
-39.96
-41.18
-41.28
-39.84
-36.57
-31.35
-24.36
-16.06
-7.18
1.43
8.89
14.49
17.83
18.99
18.45
16.99
15.47
14.41
13.89
13.49
12.61
10.82
8.21
5.38
3.20
2.34
2.95
4.55
6.25
7.26
7.15
6.11
4.68
3.45
2.68
2.17
1.45
0.09
-1.98
-4.42
-6.67
-8.22
-8.94
-9.15
-9.40
-10.18
-11.77
-14.13
-17.03
-20.24
-23.66
-27.27
-31.03
-34.79
-38.19
-40.83
-42.33
-42.51
-41.36
-39.00
-35.61
-31.34
-26.35
-20.85
-15.13
-9.55
-4.54
-0.42
2.76
5.22
7.41
9.77
12.44
15.21
17.56
19.02
19.51
19.40
19.42
20.15
21.72
23.73
25.48
26.38
26.24
25.27
23.80
22.04
19.96
17.44
14.40
11.01
7.64
4.65
2.32
0.66
-0.48
-1.39
-2.40
-3.85
-6.07
-9.27
-13.54
-18.88
-25.14
-32.11
-39.42
-46.44
-52.28
-55.83
-56.05
-52.35
-44.87
-34.55
-22.84
-11.34
-1.33
6.52
12.09
15.65
17.61
18.39
18.31
17.69
16.82
15.99
15.42
15.16
15.21
15.52
16.12
17.08
18.49
20.29
22.25
24.01
25.23
25.70
25.44
24.66
23.64
22.56
21.42
20.08
18.28
15.89
12.96
9.67
6.22
2.68
-1.08
-5.31
-10.06
-15.04
-19.63
-23.10
-25.04
-25.51
-24.95
-23.86
-22.49
-20.78
-18.59
-16.07
-13.72
-12.26
-12.09
-13.00
-14.16
-14.43
-12.90
-9.28
-3.99
1.96
7.35
11.04
12.24
10.57
6.27
0.17
-6.28
-11.10
-12.15
-7.71
2.86
18.64
37.03
54.32
66.84
72.12
69.74
61.34
49.82
38.02
27.64
18.73
10.14
0.55
-10.51
-22.42
-33.86
-43.79
-52.19
-59.93
-68.04
-76.76
-85.23
-91.76
-94.79
-93.52
-87.96
-78.50
-65.42
-48.86
-29.32
-8.10
12.59
30.29
43.03
50.05
51.84
49.80
45.81
41.69
38.90
38.06
38.73
39.49
38.53
34.54
27.37
18.20
9.04
1.90
-1.96
-2.35
-0.12
3.46
7.06
9.76
10.96
10.15
6.87
0.82
-7.67
-17.19
-25.41
-29.85
-29.04
-23.30
-14.71
-5.93
1.16
6.38
10.78
15.45
20.35
24.11
25.00
22.24
16.81
11.07
7.56
7.81
11.80
18.24
25.44
31.87
36.39
38.29
37.23
33.50
28.19
23.15
20.34
20.89
24.43
29.01
31.92
30.95
25.36
16.22
5.80
-3.45
-9.78
-12.55
-12.07
-9.13
-4.66
0.40
5.12
8.55
9.87
8.65
4.95
-0.68
-7.40
-14.36
-20.83
-26.26
-30.27
-32.57
-33.12
-32.08
-29.97
-27.54
-25.63
-24.84
-25.27
-26.49
-27.62
-27.76
-26.39
-23.57
-19.83
-15.82
-11.96
-8.23
-4.37
-0.09
4.60
9.31
13.52
16.71
18.56
18.95
17.96
15.85
13.07
10.18
7.66
5.72
4.24
2.94
1.69
0.68
0.33
0.94
2.34
3.83
4.53
3.77
1.38
-2.33
-6.78
-11.39
-15.70
-19.37
-22.33
-24.78
-27.30
-30.57
-34.89
-39.80
-44.03
-46.06
-44.92
-40.71
-34.58
-28.08
-22.24
-17.22
-12.44
-7.27
-1.58
4.08
8.90
12.24
14.11
15.09
15.94
17.23
19.06
21.10
22.81
23.78
23.90
23.39
22.62
21.95
21.53
21.28
20.99
20.53
19.89
19.21
18.57
17.91
16.89
15.10
12.20
8.14
3.13
-2.44
-8.12
-13.48
-18.11
-21.59
-23.52
-23.61
-21.81
-18.35
-13.70
-8.39
-2.86
2.54
7.54
11.85
15.18
17.37
18.49
18.90
19.13
19.54
20.12
20.46
20.08
18.82
17.06
15.65
15.37
16.56
18.76
21.06
22.56
22.84
22.11
20.91
19.68
18.38
16.54
13.69
9.67
4.85
-0.14
-4.81
-9.10
-13.43
-18.28
-23.77
-29.44
-34.40
-37.73
-39.03
-38.53
-36.95
-34.95
-32.67
-29.51
-24.56
-17.26
-8.00
1.74
9.96
15.13
17.03
16.87
16.73
18.35
22.30
27.71
32.93
36.50
37.92
37.80
37.31
37.30
37.84
38.31
37.88
36.12
33.28
30.02
27.06
24.75
22.98
21.41
19.80
18.13
16.56
15.21
14.01
12.67
10.80
8.08
4.40
-0.17
-5.41
-11.05
-16.75
-22.15
-26.82
-30.30
-32.20
-32.31
-30.74
-27.93
-24.49
-20.90
-17.29
-13.38
-8.68
-2.97
3.41
9.49
14.10
16.46
16.66
15.67
14.91
15.61
18.33
22.77
28.09
33.28
37.52
40.30
41.40
40.72
38.31
34.36
29.26
23.63
18.11
13.30
9.48
6.68
4.68
3.17
1.84
0.36
-1.60
-4.39
-8.29
-13.40
-19.58
-26.48
-33.63
-40.46
-46.42
-50.90
-53.38
-53.52
-51.40
-47.61
-43.16
-39.15
-36.37
-35.10
-35.11
-35.83
-36.73
-37.36
-37.36
-36.35
-33.86
-29.45
-23.12
-15.50
-7.83
-1.62
2.07
3.01
1.95
0.18
-1.07
-1.25
-0.62
-0.09
-0.78
-3.53
-8.63
-15.61
-23.37
-30.44
-35.40
-37.40
-36.52
-33.91
-31.39
-30.86
-33.59
-39.69
-48.03
-56.45
-62.48
-64.11
-60.50
-52.30
-41.47
-30.56
-21.69
-15.83
-12.54
-10.43
-7.95
-4.11
1.21
7.46
13.91
19.97
25.28
29.62
32.74
34.36
34.45
33.47
32.52
32.99
36.02
41.93
49.87
58.06
64.41
67.23
65.88
60.97
54.03
46.92
41.16
37.38
35.19
33.45
30.73
25.89
18.49
8.99
-1.38
-10.93
-18.00
-21.43
-20.86
-16.84
-10.80
-4.64
-0.20
1.50
1.02
0.74
4.29
15.06
34.39
60.41
88.11
110.99
123.53
123.16
111.15
91.59
69.58
49.27
32.92
20.96
12.81
7.67
4.93
4.10
4.60
5.65
6.37
6.06
4.46
1.83
-1.08
-3.39
-4.41
-4.00
-2.66
-1.32
-0.96
-2.21
-5.09
-9.05
-13.16
-16.41
-18.02
-17.71
-15.90
-13.67
-12.48
-13.47
-16.87
-21.68
-25.99
-27.76
-25.76
-20.16
-12.30
-4.00
3.23
8.65
12.18
13.93
13.82
11.49
6.85
0.56
-5.63
-9.20
-7.91
-0.83
10.94
24.44
35.83
41.81
40.78
33.33
21.74
9.03
-2.20
-10.57
-15.97
-19.24
-21.54
-23.77
-26.34
-29.14
-31.80
-33.96
-35.46
-36.36
-36.89
-37.40
-38.41
-40.56
-44.42
-50.24
-57.51
-64.84
-70.20
-71.46
-67.09
-56.59
-40.63
-20.73
1.10
22.84
42.71
59.36
71.82
79.49
82.13
79.84
73.16
63.10
51.15
39.04
28.45
20.67
16.37
15.55
17.54
21.31
25.51
28.74
29.87
28.21
23.81
17.33
9.85
2.40
-4.35
-10.12
-14.98
-19.04
-22.35
-24.87
-26.59
-27.69
-28.52
-29.59
-31.42
-34.31
-38.31
-43.22
-48.62
-53.98
-58.77
-62.35
-64.08
-63.34
-59.75
-53.42
-45.04
-35.72
-26.60
-18.46
-11.48
-5.43
-0.02
4.83
8.84
11.53
12.49
11.58
9.10
5.58
1.74
-1.74
-4.31
-5.65
-5.54
-3.93
-0.89
3.22
7.72
11.61
13.89
13.94
11.88
8.51
