1520872513.00
64.000000
-0.00
-0.00
-0.00
-0.00
-0.00
-0.00
-0.00
-0.00
-0.00
-0.00
0.00
0.01
0.01
-0.00
-0.03
-0.05
-0.05
0.00
0.13
0.36
0.66
1.01
1.37
1.72
2.06
2.40
2.79
3.24
3.80
4.42
5.06
5.66
6.20
6.68
7.15
7.68
8.31
9.14
10.09
11.04
11.88
12.56
13.14
13.76
14.65
15.96
17.91
20.32
22.90
25.38
27.58
29.57
31.68
34.32
37.81
42.54
48.15
54.10
59.83
64.97
69.58
74.14
79.34
85.71
93.76
103.00
112.62
121.73
129.77
136.75
143.30
150.75
157.77
166.64
177.95
191.79
206.97
220.57
228.25
225.36
208.53
176.87
132.76
80.05
23.07
-34.94
-92.44
-149.16
-205.23
-260.37
-313.74
-363.87
-409.83
-450.91
-486.50
-515.74
-537.23
-549.22
-549.96
-538.37
-514.21
-478.67
-433.88
-382.45
-327.02
-269.84
-212.63
-156.66
-102.95
-52.37
-5.90
35.58
71.43
101.35
125.50
144.38
158.69
169.15
176.37
180.75
182.57
182.07
179.51
175.23
169.65
163.18
156.15
148.81
141.30
133.69
126.02
118.33
110.69
103.16
95.80
88.68
81.83
75.25
68.95
62.95
57.25
51.86
46.78
42.03
37.59
33.45
29.61
26.07
22.81
19.83
17.11
14.67
12.48
10.54
8.83
7.35
6.07
4.97
4.05
3.27
2.62
2.09
1.65
1.30
1.01
0.79
0.61
0.47
0.37
0.28
0.22
0.18
0.14
0.12
0.11
0.11
0.11
0.12
0.14
0.16
0.20
0.23
0.27
0.31
0.35
0.39
0.44
0.49
0.54
0.59
0.64
0.69
0.75
0.82
0.89
0.96
1.05
1.14
1.25
1.36
1.50
1.64
1.81
1.99
2.20
2.42
2.67
2.95
3.26
3.59
3.96
4.36
4.80
5.27
5.78
6.32
6.91
7.54
8.22
8.93
9.70
10.50
11.36
12.25
13.20
14.19
15.26
16.38
17.56
18.80
20.07
21.34
22.54
23.58
24.37
24.79
24.73
24.09
22.76
20.68
17.85
14.31
10.14
5.54
0.73
-4.03
-8.51
-12.50
-15.87
-18.57
-20.57
-21.91
-22.60
-22.70
-22.28
-21.43
-20.27
-18.96
-17.64
-16.44
-15.39
-14.45
-13.54
-12.56
-11.43
-10.18
-8.95
-7.95
-7.31
-7.07
-7.05
-7.10
-6.94
-6.36
-5.44
-4.47
-3.89
-4.05
-5.00
-6.45
-8.10
-9.41
-10.01
-9.96
-9.74
-10.10
-11.59
-14.36
-17.96
-21.98
-25.76
-28.69
-30.76
-32.45
-34.52
-37.83
-43.25
-51.37
-62.75
-76.42
-89.82
-99.38
-101.63
-94.67
-79.14
-58.21
-33.18
-8.51
12.01
26.49
35.05
38.93
39.48
37.66
34.28
30.33
26.80
25.25
26.92
31.95
39.22
46.74
52.44
55.07
54.56
51.38
46.79
41.88
37.16
32.41
27.02
20.56
13.08
5.16
-2.58
-9.46
-15.14
-19.82
-24.19
-29.12
-35.49
-43.73
-53.65
-64.40
-74.25
-81.04
-82.67
-77.80
-66.37
-49.63
-29.83
-9.57
8.86
24.02
35.40
43.16
47.81
49.90
49.93
48.48
46.19
43.80
42.00
41.27
41.75
43.26
45.42
47.83
50.16
52.23
53.92
55.06
55.39
54.55
52.20
48.18
42.65
36.15
29.42
23.20
17.89
13.35
9.06
4.40
-0.98
-6.97
-13.07
-18.66
-23.37
-27.27
-30.87
-34.97
-40.34
-47.59
-56.91
-67.82
-79.09
-88.70
-94.25
-93.58
-85.60
-70.75
-51.01
-29.33
-8.74
8.51
21.51
30.53
36.56
40.66
43.53
45.40
46.31
46.39
46.02
45.86
46.56
48.44
51.34
54.69
57.79
60.14
61.62
62.50
63.14
63.66
63.82
63.07
60.82
56.85
51.44
45.37
39.54
34.61
30.72
27.50
24.37
20.86
16.82
12.48
8.20
4.35
1.10
-1.60
-3.99
-6.42
-9.27
-12.85
-17.26
-22.39
-27.91
-33.33
-38.22
-42.35
-45.83
-49.17
-53.13
-58.59
-66.15
-75.79
-86.55
-96.52
-103.17
-104.06
-97.72
-84.21
-65.25
-43.72
-22.71
-4.66
9.17
18.71
24.72
28.22
30.08
30.85
30.88
30.45
29.98
29.99
30.93
33.02
36.09
39.60
42.93
45.63
47.62
49.13
50.47
51.73
52.61
52.58
51.09
47.98
43.57
38.52
33.57
29.25
25.67
22.62
19.71
16.63
13.29
9.81
6.51
3.67
1.42
-0.42
-2.19
-4.37
-7.37
-11.33
-16.08
-21.23
-26.32
-30.96
-34.98
-38.52
-41.96
-45.86
-50.84
-57.31
-65.17
-73.60
-81.01
-85.31
-84.55
-77.63
-64.76
-47.52
-28.40
-10.01
5.57
17.28
25.01
29.32
31.01
30.82
29.35
27.01
24.28
21.76
20.04
19.70
21.04
23.92
27.82
32.00
35.71
38.45
40.03
40.50
40.01
38.69
36.56
33.70
30.17
26.13
21.81
17.41
13.11
9.04
5.25
1.75
-1.54
-4.73
-7.91
-11.19
-14.68
-18.44
-22.45
-26.63
-30.79
-34.72
-38.32
-41.72
-45.37
-49.92
-55.98
-63.75
-72.73
-81.63
-88.54
-91.43
-88.75
-79.88
-65.52
-47.46
-28.19
-10.16
4.80
15.86
23.11
27.27
29.23
29.73
29.24
28.09
26.60
25.25
24.58
25.06
26.90
29.93
33.68
37.49
40.78
43.18
44.53
44.90
44.44
43.23
41.27
38.46
34.75
30.24
25.23
20.13
15.35
11.14
7.51
4.35
1.50
-1.17
-3.81
-6.62
-9.91
-14.00
-18.96
-24.53
-30.10
-35.01
-38.83
-41.65
-44.02
-46.83
-50.96
-57.00
-65.00
-74.23
-83.12
-89.51
-91.15
-86.39
-74.94
-58.02
-38.11
-18.15
-0.64
12.97
22.36
28.08
31.05
32.21
32.31
31.91
31.47
31.27
31.52
32.32
33.71
35.64
38.03
40.70
43.40
45.89
47.93
49.39
50.18
50.22
49.44
47.73
45.06
41.48
37.18
32.44
27.60
22.91
18.54
14.55
10.90
7.52
4.37
1.38
-1.51
-4.36
-7.35
-10.73
-14.67
-19.20
-24.05
-28.76
-32.90
-36.28
-39.14
-42.12
-46.04
-51.59
-58.97
-67.64
-76.29
-83.00
-85.72
-82.90
-73.99
-59.78
-42.20
-23.77
-6.88
6.83
16.70
22.93
26.16
27.14
26.49
24.75
22.44
20.13
18.43
17.80
18.52
20.49
23.27
26.31
29.05
31.22
32.81
34.04
35.05
35.79
35.94
35.16
33.32
30.66
27.75
25.12
22.95
20.85
18.04
13.74
7.67
0.25
-7.62
-14.89
-20.88
-25.48
-29.19
-32.83
-37.20
-42.81
-49.60
-56.95
-63.66
-68.22
-69.10
-65.24
-56.39
-43.26
-27.36
-10.60
5.18
18.68
29.20
36.67
41.36
43.64
43.88
42.43
39.77
36.60
33.82
32.26
32.46
34.53
38.04
42.28
46.53
50.28
53.31
55.59
57.15
57.90
57.63
56.05
52.89
47.95
41.17
32.68
22.93
12.60
2.67
-5.80
-12.04
-15.79
-17.57
-18.48
-19.84
-22.53
-26.67
-31.50
-35.66
-37.83
-37.24
-34.09
-29.38
-24.55
-20.87
-19.05
-19.11
-20.52
-22.50
-24.19
-24.73
-23.38
-19.57
-13.10
-4.37
5.46
14.76
21.87
25.80
26.62
25.32
23.35
21.84
21.15
20.89
20.20
18.32
14.92
10.09
4.13
-2.69
-10.27
-18.51
-27.17
-35.76
-43.58
-49.98
-54.55
-57.39
-59.07
-60.66
-63.33
-67.83
-73.99
-80.36
-84.53
-83.92
-76.91
-63.57
-45.75
-26.36
-8.29
6.53
17.50
25.06
30.20
34.06
37.77
42.42
48.79
56.96
65.96
73.82
78.16
77.14
70.19
58.35
43.79
29.12
16.53
7.37
2.13
0.57
2.00
5.37
9.42
12.84
14.53
13.83
10.79
6.09
0.84
-3.81
-7.02
-8.54
-8.75
-8.50
-8.84
-10.65
-14.42
-20.03
-26.83
-33.93
-40.47
-45.99
-50.58
-54.88
-59.90
-66.64
-75.62
-86.47
-97.79
-107.32
-112.52
-111.43
-103.30
-88.89
-70.23
-49.93
-30.44
-13.50
0.15
10.55
18.27
24.03
28.50
32.15
35.19
37.73
39.78
41.48
43.04
44.76
46.85
49.33
51.95
54.28
55.93
56.67
56.42
55.27
53.32
50.62
47.14
42.84
37.72
31.88
25.48
18.69
11.74
4.83
-1.83
-8.04
-13.68
-18.82
-23.74
-28.97
-35.12
-42.64
-51.53
-61.13
-70.17
-76.89
-79.54
-76.84
-68.43
-55.01
-38.23
-20.30
-3.36
11.05
22.28
30.53
36.45
40.78
44.02
46.30
47.58
47.90
47.50
46.85
46.51
46.83
47.82
49.15
50.29
50.78
50.42
49.34
47.82
46.11
44.10
41.38
37.37
31.69
24.45
16.30
8.22
1.08
-4.70
-9.34
-13.50
-18.03
-23.69
-30.94
-39.82
-49.83
-59.89
-68.30
-73.07
-72.44
-65.49
-52.64
-35.61
-17.02
0.54
15.18
26.18
33.87
39.12
42.77
45.31
46.88
47.49
47.31
46.78
46.39
46.45
46.91
47.34
47.24
46.32
44.65
42.63
40.73
39.14
37.62
35.64
32.52
27.91
21.88
14.93
7.84
1.30
-4.27
-8.87
-12.82
-16.76
-21.53
-27.87
-36.19
-46.18
-56.60
-65.41
-70.28
-69.35
-61.97
-49.02
-32.61
-15.39
0.35
13.20
22.78
29.42
33.72
36.22
37.34
37.43
36.85
36.02
35.28
34.84
34.69
34.70
34.60
34.22
33.49
32.43
31.18
29.84
28.41
26.72
24.44
21.13
16.47
10.48
3.56
-3.57
-10.14
-15.66
-20.18
-24.26
-28.77
-34.52
-41.87
-50.46
-59.22
-66.54
-70.65
-70.18
-64.56
-54.27
-40.72
-25.88
-11.70
0.41
9.82
16.69
21.61
25.22
27.93
29.83
30.79
30.79
30.06
29.05
28.27
28.01
28.28
28.76
29.09
29.02
28.60
28.02
27.43
26.72
25.44
22.95
18.77
12.83
5.69
-1.66
-8.17
-13.17
-16.62
-19.19
-21.92
-25.84
-31.58
-39.20
-48.12
-57.17
-64.73
-69.04
-68.62
-62.76
-51.80
-37.26
-21.37
-6.40
6.02
15.29
21.68
25.89
28.60
30.11
30.53
29.92
28.57
27.09
26.19
26.36
27.65
29.65
31.60
32.80
32.82
31.74
30.01
28.18
26.66
25.44
24.05
21.88
18.40
13.53
7.66
1.48
-4.26
-9.13
-13.16
-16.72
-20.41
-24.81
-30.30
-36.98
-44.47
-51.88
-57.80
-60.54
-58.66
-51.43
-39.20
-23.48
-6.45
9.62
23.02
32.93
39.38
42.92
44.21
43.79
42.04
39.47
36.74
34.71
34.18
35.49
38.36
41.94
45.10
46.95
47.09
45.79
43.71
41.60
39.97
38.87
38.04
36.98
35.29
32.83
29.70
26.17
22.49
18.79
15.03
11.04
6.58
1.43
-4.55
-11.21
-18.05
-24.13
-28.24
-29.23
-26.46
-20.12
-11.23
-1.32
8.01
15.57
20.78
23.59
24.22
22.88
19.74
15.00
9.04
2.54
-3.52
-8.16
-10.67
-10.91
-9.27
-6.58
-3.69
-1.29
0.24
0.75
0.17
-1.57
-4.54
-8.66
-13.71
-19.20
-24.57
-29.25
-32.83
-35.11
-36.18
-36.38
-36.23
-36.27
-36.92
-38.25
-39.97
-41.58
-42.56
-42.68
-42.04
-41.12
-40.62
-41.21
-43.35
-47.07
-51.87
-56.69
-60.04
-60.36
-56.50
-48.17
-36.20
-22.34
-8.81
2.44
10.24
14.42
15.63
14.88
13.17
11.26
9.67
8.80
8.91
10.18
12.51
15.46
18.44
20.78
21.98
21.82
20.29
17.57
13.95
9.77
5.43
1.31
-2.37
-5.59
-8.53
-11.41
-14.32
-17.08
-19.32
-20.74
-21.29
-21.30
-21.34
-21.91
-23.26
-25.21
-27.26
-28.88
-29.75
-29.91
-29.75
-29.84
-30.67
-32.60
-35.70
-39.73
-44.11
-47.86
-49.71
-48.39
-43.05
-33.69
-21.37
-7.93
4.49
14.11
20.02
22.26
21.51
18.67
14.44
9.37
3.99
-1.05
-4.95
-6.95
-6.66
-4.22
-0.25
4.44
9.08
13.28
16.83
19.64
21.60
22.45
21.90
19.81
16.29
11.70
6.64
1.73
-2.48
-5.70
-7.99
-9.72
-11.46
-13.70
-16.74
-20.43
-24.31
-27.72
-30.17
-31.47
-31.84
-31.80
-31.94
-32.86
-34.97
-38.41
-42.94
-47.76
-51.55
-52.63
-49.50
-41.46
-29.02
-13.88
1.56
15.01
24.99
31.09
33.79
33.88
32.02
28.55
23.68
17.73
11.41
5.76
1.90
0.65
2.19
6.04
11.12
16.26
20.38
22.86
23.54
22.63
20.55
17.73
14.55
11.36
8.39
5.70
3.22
0.68
-2.18
-5.51
-9.21
-12.96
-16.41
-19.34
-21.77
-23.97
-26.33
-29.29
-33.10
-37.77
-42.85
-47.37
-49.87
-48.83
-43.23
-33.06
-19.57
-4.91
8.62
19.33
26.58
30.72
32.49
32.52
31.00
27.84
23.11
17.32
11.57
7.16
5.15
5.88
8.99
13.50
18.31
22.45
25.31
26.64
26.46
24.92
22.29
18.89
15.04
10.97
6.79
2.50
-1.90
-6.37
-10.68
-14.56
-17.80
-20.43
-22.73
-25.15
-28.20
-32.28
-37.59
-43.98
-50.84
-57.02
-60.89
-60.75
-55.39
-44.71
-29.89
-13.15
2.97
16.40
26.11
32.11
35.08
35.81
34.83
32.43
28.78
24.33
19.82
16.19
14.30
14.56
16.83
20.41
24.28
27.49
29.42
29.95
29.34
28.01
26.24
24.15
21.57
18.29
14.19
9.32
3.91
-1.75
-7.33
-12.57
-17.28
-21.34
-24.79
-27.84
-30.89
-34.50
-39.23
-45.35
-52.64
-60.15
-66.40
-69.57
-68.12
-61.23
-49.22
-33.47
-16.13
0.50
14.57
25.07
31.87
35.48
36.69
36.25
34.70
32.40
29.68
27.01
24.96
24.11
24.82
27.09
30.46
34.17
37.43
39.65
40.67
40.63
39.78
38.25
35.96
32.68
28.27
22.97
17.33
12.15
8.01
5.10
3.07
1.19
-1.28
-4.80
-9.37
-14.55
-19.69
-24.19
-27.78
-30.65
-33.46
-37.09
-42.40
-49.81
-58.97
-68.55
-76.38
-80.02
-77.53
-68.22
-52.97
-34.07
-14.40
3.38
17.57
27.66
34.06
37.54
38.85
38.38
36.44
33.44
30.12
27.52
26.60
27.88
31.12
35.42
39.58
42.61
44.15
44.44
44.09
43.61
43.12
42.29
40.61
37.73
33.65
28.74
23.56
18.69
14.52
11.22
8.71
6.71
4.75
2.32
-0.98
-5.31
-10.49
-16.07
-21.42
-26.02
-29.65
-32.52
-35.28
-38.83
-44.02
-51.29
-60.31
-69.80
-77.65
-81.41
-79.05
-69.66
-53.96
-34.14
-13.27
5.66
20.56
30.67
36.35
38.64
38.59
36.98
34.26
30.91
27.60
25.22
24.61
26.17
29.69
34.37
39.15
43.14
45.87
47.26
47.57
47.06
45.89
44.11
41.70
38.73
35.27
31.46
27.44
23.32
19.25
15.42
12.01
9.10
6.51
3.87
0.71
-3.28
-8.03
-13.01
-17.53
-20.98
-23.22
-24.68
-26.22
-28.76
-33.02
-39.24
-47.22
-56.27
-65.21
-72.39
-75.83
-73.76
-65.23
-50.68
-31.99
-11.98
6.48
21.31
31.65
37.71
40.20
39.91
37.42
33.28
28.24
23.33
19.81
18.71
20.50
24.87
30.77
36.80
41.67
44.62
45.55
44.94
43.47
41.66
39.65
37.36
34.54
31.11
27.14
22.87
18.60
14.56
10.92
7.63
4.52
1.24
-2.51
-6.92
-11.84
-16.88
-21.49
-25.24
-28.06
-30.29
-32.60
-35.82
-40.68
-47.65
-56.63
-66.75
-76.32
-83.04
-84.56
-79.35
-67.28
-49.84
-29.69
-9.76
7.53
20.88
30.06
35.55
38.07
38.24
36.61
33.73
30.33
27.26
25.36
25.18
26.84
30.02
34.13
38.48
42.44
45.55
47.51
48.17
47.50
45.62
42.77
39.28
35.47
31.61
27.78
24.02
20.27
16.48
12.63
8.78
5.04
1.55
-1.59
-4.41
-7.05
-9.83
-13.01
-16.73
-20.82
-24.97
-28.86
-32.40
-35.88
-39.91
-45.22
-52.41
-61.63
-72.32
-83.08
-91.79
-96.04
-93.89
-84.54
-68.72
-48.66
-27.36
-7.71
8.27
19.77
27.05
31.02
32.69
32.94
32.43
31.64
31.01
30.94
31.71
33.45
36.03
39.13
42.34
45.27
47.67
49.48
50.77
51.59
51.90
51.51
50.14
47.58
43.84
39.24
34.37
29.84
26.14
23.31
21.00
18.61
15.62
11.84
7.56
3.30
-0.41
-3.41
-5.92
-8.50
-11.66
-15.70
-20.53
-25.70
-30.70
-35.09
-38.79
-42.04
-45.45
-49.81
-55.82
-63.85
-73.57
-83.75
-92.32
-96.77
-94.88
-85.56
-69.36
-48.45
-26.05
-5.38
11.21
22.78
29.71
33.15
34.36
34.26
33.35
31.96
30.48
29.50
29.63
31.28
34.40
38.48
42.71
46.36
48.99
50.64
51.59
52.07
52.11
51.37
49.44
46.08
41.46
36.18
31.10
27.01
24.30
22.86
22.13
21.30
19.70
17.01
13.36
9.28
5.38
2.23
0.04
-1.34
-2.41
-3.82
-6.18
-9.89
-14.91
-20.85
-27.05
-32.82
-37.77
-41.98
-45.97
-50.46
-56.18
-63.57
-72.49
-82.15
-90.96
-96.85
-97.56
-91.52
-78.38
-59.48
-37.52
-15.79
2.80
16.61
25.37
30.01
31.85
32.10
31.48
30.33
28.89
27.52
26.81
27.37
29.61
33.38
38.04
42.62
46.24
48.45
49.38
49.53
49.41
49.18
48.53
46.92
43.98
39.77
34.87
30.11
26.22
23.43
21.48
19.71
17.46
14.40
10.67
6.85
3.57
1.27
-0.16
-1.24
-2.80
-5.53
-9.71
-15.06
-20.94
-26.62
-31.51
-35.45
-38.65
-41.59
-44.91
-49.25
-55.18
-62.94
-72.21
-81.82
-89.80
-93.71
-91.39
-81.78
-65.43
-44.52
-22.22
-1.77
14.52
25.64
31.94
34.55
34.81
33.80
32.21
30.50
29.09
28.43
28.92
30.75
33.73
37.35
40.89
43.74
45.60
46.45
46.49
45.88
44.69
42.82
40.16
36.75
32.83
28.79
25.06
21.98
19.59
17.73
16.03
14.04
11.50
8.34
4.81
1.27
-1.92
-4.66
-7.07
-9.55
-12.50
-16.19
-20.65
-25.58
-30.52
-34.99
-38.72
-41.84
-44.87
-48.61
-53.90
-61.22
-70.27
-79.82
-87.73
-91.52
-89.09
-79.54
-63.58
-43.42
-22.10
-2.57
13.14
24.23
31.00
34.33
35.22
34.44
32.57
30.18
27.91
26.47
26.43
28.00
30.94
34.65
38.33
41.33
43.30
44.26
44.48
44.27
43.81
42.99
41.51
39.07
35.60
31.37
26.94
22.95
19.79
17.41
15.36
13.11
10.36
7.19
4.03
1.24
-1.11
-3.35
-6.00
-9.44
-13.61
-18.10
-22.32
-25.85
-28.67
-31.15
-33.83
-37.32
-42.15
-48.64
-56.85
-66.21
-75.40
-82.40
-84.86
-81.03
-70.37
-53.99
-34.38
-14.59
2.71
15.96
24.80
29.81
31.89
31.84
30.22
27.45
24.07
20.84
18.66
18.25
19.96
23.55
28.25
33.06
37.07
39.69
40.80
40.62
39.56
37.98
36.02
33.68
30.81
27.34
23.32
18.99
14.72
10.85
7.58
4.88
2.50
0.02
-2.94
-6.59
-10.85
-15.37
-19.72
-23.53
-26.67
-29.30
-31.78
-34.61
-38.28
-43.31
-50.12
-58.79
-68.78
-78.74
-86.50
-89.73
-86.61
-76.65
-61.02
-42.20
-23.18
-6.53
6.29
15.05
20.52
23.73
25.63
26.71
27.14
26.96
26.38
25.81
25.83
26.90
29.21
32.62
36.70
40.99
45.10
48.81
51.91
54.18
55.23
54.64
52.14
47.80
42.22
36.28
30.98
26.94
24.24
22.33
20.37
17.65
13.92
9.51
5.10
1.30
-1.78
-4.55
-7.72
-11.83
-17.01
-22.88
-28.82
-34.32
-39.23
-43.74
-48.28
-53.31
-59.22
-66.39
-74.98
-84.73
-94.61
-102.71
-106.59
-104.04
-93.97
-77.07
-55.71
-33.21
-12.80
3.40
14.76
21.93
26.22
28.99
31.20
33.37
35.67
38.12
40.72
43.50
46.53
49.75
53.06
56.24
59.04
61.27
62.76
63.40
63.14
61.99
60.07
57.58
54.78
51.90
49.08
46.30
43.41
40.31
36.93
33.36
29.86
26.68
24.04
21.99
20.40
18.92
17.14
14.72
11.58
7.84
3.74
-0.53
-4.90
-9.43
-14.26
-19.46
-24.96
-30.59
-36.18
-41.50
-46.42
-50.86
-54.92
-58.93
-63.47
-69.29
-77.01
-86.71
-97.49
-107.40
-113.75
-113.91
-106.23
-90.82
-69.66
-46.04
-23.52
-4.83
8.83
17.72
23.04
26.18
28.17
29.59
30.79
32.05
33.74
36.15
39.37
43.26
47.45
51.53
55.15
58.05
60.08
61.20
61.49
61.13
60.33
59.18
57.60
55.39
52.36
48.55
44.25
39.94
36.09
32.95
30.51
28.54
26.64
24.49
21.81
18.50
14.61
10.43
6.34
2.70
-0.30
-2.83
-5.33
-8.37
-12.41
-17.59
-23.58
-29.75
-35.43
-40.14
-43.85
-46.92
-50.02
-53.92
-59.31
-66.63
-75.72
-85.62
-94.36
-99.34
-98.08
-89.18
-73.04
-51.95
-29.29
-8.43
8.37
20.38
28.06
32.44
34.45
34.70
33.61
31.70
29.72
28.54
28.88
30.97
34.53
38.80
42.90
46.18
48.38
49.72
50.62
51.39
51.99
52.05
51.00
48.45
44.42
39.40
34.20
29.61
26.10
23.57
21.53
19.22
16.09
12.02
7.39
2.89
-0.82
-3.50
-5.47
-7.44
-10.21
-14.26
-19.54
-25.55
-31.62
-37.18
-41.94
-45.99
-49.74
-53.77
-58.81
-65.46
-73.97
-83.84
-93.66
-101.18
-103.84
-99.64
-87.92
-69.81
-47.96
-25.68
-5.93
9.53
20.39
27.40
31.71
34.33
35.80
36.33
36.16
35.68
35.48
36.23
38.27
41.57
45.63
49.72
53.11
55.33
56.31
56.31
55.79
55.11
54.35
53.30
51.49
48.52
44.29
39.16
33.83
29.06
25.38
22.91
21.35
20.16
18.78
16.83
14.12
10.74
6.88
2.84
-1.05
-4.56
-7.66
-10.64
-13.93
-18.03
-23.15
-29.11
-35.34
-41.15
-46.03
-49.95
-53.35
-57.00
-61.72
-68.14
-76.50
-86.47
-96.94
-105.99
-111.18
-110.14
-101.40
-85.12
-63.27
-39.11
-16.27
2.39
15.49
23.23
26.94
28.32
28.81
29.33
30.24
31.58
33.30
35.43
37.97
40.93
44.18
47.47
50.58
53.35
55.75
57.80
59.46
60.50
60.64
59.58
57.24
53.77
49.55
45.03
40.58
36.42
32.65
29.40
26.74
24.76
23.35
22.20
20.82
18.67
15.43
11.15
6.27
1.41
-2.89
-6.38
-9.25
-11.95
-15.06
-18.98
-23.80
-29.34
-35.17
-40.87
-46.11
-50.79
-54.94
-58.82
-62.88
-67.80
-74.33
-82.96
-93.34
-103.99
-112.38
-115.48
-110.88
-97.76
-77.41
-52.92
-28.18
-6.67
9.58
20.21
26.20
29.11
30.43
31.10
31.62
32.18
32.96
34.24
36.29
39.23
42.88
46.83
50.54
53.65
56.02
57.75
59.04
59.95
60.41
60.14
58.88
56.47
52.94
48.54
43.64
38.65
33.96
29.84
26.42
23.65
21.30
19.05
16.62
13.79
10.54
6.97
3.30
-0.26
-3.56
-6.62
-9.67
-13.02
-17.00
-21.70
-26.91
-32.13
-36.84
-40.65
-43.60
-46.20
-49.23
-53.56
-59.79
-68.09
-78.01
-88.38
-97.30
-102.47
-101.68
-93.57
-78.33
-57.73
-34.79
-12.77
5.77
19.60
28.78
34.16
36.73
37.17
35.90
33.35
30.17
27.32
25.83
26.38
29.04
33.24
38.06
42.53
46.09
48.69
50.58
52.05
53.04
53.10
51.65
48.30
43.26
37.26
31.35
26.40
22.73
20.02
17.58
14.77
11.33
7.48
3.75
0.59
-1.87
-3.93
-6.11
-8.91
-12.60
-17.10
-22.10
-27.27
-32.30
-37.05
-41.50
-45.76
-50.07
-54.89
-60.85
-68.52
-77.98
-88.51
-98.27
-104.69
-105.14
-97.90
-82.88
-61.86
-37.96
-14.70
5.08
19.90
29.71
35.41
38.15
38.84
38.05
36.18
33.78
31.65
30.71
31.64
34.60
39.12
44.25
48.97
52.58
54.91
56.19
56.85
57.08
56.73
55.36
52.47
47.92
42.03
35.59
29.49
24.46
20.70
17.90
15.44
12.67
9.23
5.17
0.89
-3.05
-6.23
-8.56
-10.40
-12.42
-15.38
-19.78
-25.63
-32.43
-39.32
-45.43
-50.30
-54.04
-57.30
-61.06
-66.35
-73.88
-83.68
-94.90
-105.73
-113.58
-115.75
-110.23
-96.51
-75.93
-51.42
-26.55
-4.49
12.86
25.08
32.86
37.33
39.56
40.28
40.01
39.27
38.68
38.85
40.24
42.93
46.62
50.69
54.46
57.41
59.30
60.18
60.30
59.92
59.17
57.87
55.66
52.12
47.16
41.12
34.82
29.23
25.08
22.51
21.02
19.71
17.72
14.69
10.79
6.65
2.95
0.03
-2.27
-4.54
-7.49
-11.64
-17.06
-23.42
-30.13
-36.57
-42.30
-47.23
-51.57
-55.81
-60.68
-67.00
-75.37
-85.78
-97.14
-107.21
-112.95
-111.48
-101.25
-82.74
-58.54
-32.49
-8.43
10.95
24.63
33.08
37.55
39.39
39.59
38.78
37.39
35.89
34.74
34.40
35.25
37.35
40.54
44.37
48.25
51.59
53.97
55.24
55.48
54.85
53.44
51.14
47.81
43.41
38.16
32.55
27.05
22.01
17.46
13.28
9.39
5.89
2.95
0.70
-1.05
-2.78
-5.06
-8.32
-12.59
-17.54
-22.66
-27.50
-31.88
-35.93
-40.01
-44.68
-50.60
-58.32
-68.00
-78.96
-89.56
-97.29
-99.49
-94.25
-81.18
-61.76
-38.87
-15.93
4.16
19.76
30.53
37.09
40.34
41.05
39.76
36.99
33.48
30.22
28.28
28.43
30.92
35.30
40.66
45.99
50.42
53.47
55.06
55.33
54.54
52.91
50.60
47.66
44.04
39.73
34.77
29.30
23.64
18.13
13.10
8.74
5.03
1.73
-1.60
-5.37
-9.88
-15.14
-20.92
-26.82
-32.37
-37.27
-41.47
-45.20
-48.97
-53.40
-59.17
-66.88
-76.76
-88.40
-100.41
-110.40
-115.51
-113.22
-102.34
-83.66
-59.80
-34.45
-11.19
7.58
21.04
29.73
34.82
37.58
38.91
39.50
39.85
40.46
41.75
43.90
46.83
50.20
53.58
56.61
59.13
61.13
62.65
63.65
64.01
63.51
61.95
59.22
55.37
50.69
45.54
40.40
35.66
31.58
28.16
25.16
22.17
18.78
14.75
10.15
5.33
0.74
-3.30
-6.88
-10.46
-14.74
-20.23
-26.96
-34.41
-41.72
-48.09
-53.23
-57.48
-61.83
-67.48
-75.46
-86.10
-98.68
-111.32
-121.27
-125.51
-121.72
-109.11
-88.89
-64.02
-38.24
-14.93
3.82
17.49
26.88
33.30
37.94
41.54
44.40
46.66
48.54
50.33
52.38
54.87
57.73
60.64
63.21
65.13
66.31
66.88
67.09
67.09
66.86
66.14
64.58
61.92
58.18
53.61
48.74
44.14
40.23
37.16
34.73
32.45
29.76
26.23
21.82
16.92
12.20
8.23
5.23
2.90
0.48
-2.91
-7.86
-14.44
-22.10
-29.93
-37.01
-42.86
-47.50
-51.53
-55.89
-61.52
-69.11
-78.76
-89.84
-100.83
-109.46
-113.20
-109.89
-98.55
-79.89
-56.24
-30.99
-7.59
11.44
25.01
33.41
37.81
39.60
39.88
39.36
38.49
37.64
37.20
37.57
39.01
41.45
44.58
47.91
50.99
53.48
55.20
56.09
56.05
55.03
52.97
49.92
46.04
41.57
36.79
31.92
27.09
22.37
17.78
13.36
9.21
5.50
2.39
-0.12
-2.25
-4.53
-7.63
-12.10
-18.01
-24.89
-31.85
-37.96
-42.71
-46.28
-49.51
-53.64
-59.89
-69.02
-80.97
-94.51
-107.26
-116.06
-117.77
-110.32
-93.66
-69.92
-42.83
-16.57
5.57
21.94
32.60
38.70
41.72
42.85
42.87
42.28
41.55
41.20
41.73
43.35
45.92
48.93
51.69
53.71
54.83
55.36
55.81
56.54
57.50
58.16
57.79
55.77
52.01
46.99
41.55
36.57
32.58
29.50
26.86
23.98
20.37
15.97
11.14
6.40
2.26
-1.19
-4.28
-7.63
-11.87
-17.34
-23.89
-30.88
-37.51
-43.06
-47.25
-50.37
-53.21
-56.84
-62.39
-70.68
-81.82
-94.93
-107.96
-117.96
-121.76
-117.01
-103.04
-81.34
-55.15
-28.52
-5.00
13.27
25.82
33.52
37.83
40.15
41.49
42.49
43.49
44.76
46.45
48.61
51.08
53.57
55.69
57.11
57.70
57.62
57.24
57.00
57.17
57.66
57.98
57.43
55.35
51.53
46.33
40.56
35.25
31.13
28.42
26.76
25.43
23.68
21.03
17.38
12.99
8.33
3.90
-0.03
-3.48
-6.82
-10.62
-15.39
-21.27
-27.99
-34.83
-41.03
-46.13
-50.18
-53.76
-57.74
-63.05
-70.30
-79.65
-90.56
-101.58
-110.47
-114.53
-111.42
-100.01
-80.99
-56.91
-31.36
-7.92
10.95
24.32
32.65
37.15
39.09
39.40
38.62
37.15
35.48
34.27
34.17
35.59
38.47
42.27
46.23
49.68
52.24
53.90
54.84
55.18
54.89
53.77
51.59
48.32
44.15
39.46
34.67
30.11
25.84
21.77
17.63
13.17
8.41
3.60
-0.85
-4.51
-7.30
-9.55
-11.89
-14.98
-19.23
-24.48
-30.23
-35.80
-40.75
-45.09
-49.34
-54.28
-60.80
-69.52
-80.42
-92.64
-104.31
-112.77
-115.22
-109.57
-95.30
-73.79
-48.14
-22.14
0.76
18.40
30.23
37.00
40.09
40.85
40.27
39.00
37.57
36.52
36.48
37.90
40.87
44.97
49.43
53.40
56.28
58.00
58.85
59.32
59.66
59.70
58.87
56.55
52.35
46.44
39.53
32.56
26.34
21.28
17.27
13.85
10.48
6.87
2.98
-0.94
-4.65
-8.06
-11.30
-14.72
-18.73
-23.62
-29.38
-35.66
-41.85
-47.38
-51.97
-55.83
-59.70
-64.55
-71.34
-80.60
-92.07
-104.45
-115.50
-122.36
-122.33
-113.73
-96.63
-73.01
-46.21
-20.01
2.56
19.85
31.69
39.00
43.04
44.98
45.61
45.48
45.04
44.76
45.04
46.16
48.11
50.63
53.28
55.66
57.51
58.83
59.72
60.28
60.46
59.97
58.42
55.52
51.29
46.09
40.60
35.51
31.31
28.11
25.58
23.13
20.19
16.47
12.08
7.46
3.16
-0.46
-3.41
-6.07
-9.02
-12.82
-17.73
-23.63
-30.04
-36.36
-42.00
-46.69
-50.62
-54.43
-59.11
-65.69
-74.80
-86.18
-98.40
-108.89
-114.52
-112.56
-101.62
-82.37
-57.47
-30.75
-6.10
13.68
27.50
35.79
39.88
41.18
40.66
38.83
36.00
32.67
29.68
28.03
28.45
31.11
35.48
40.51
45.10
48.41
50.18
50.63
50.23
49.41
48.32
46.76
44.27
40.49
35.26
28.87
22.00
15.46
9.93
5.65
2.43
-0.30
-3.18
-6.74
-11.17
-16.36
-21.90
-27.33
-32.26
-36.53
-40.34
-44.17
-48.72
-54.72
-62.76
-72.90
-84.49
-95.99
-105.05
-109.09
-106.01
-94.95
-76.73
-53.72
-29.25
-6.53
12.14
25.78
34.66
39.73
42.12
42.72
42.10
40.64
38.70
36.75
35.39
35.19
36.55
39.48
43.53
47.89
51.63
53.96
54.57
53.60
51.55
48.95
46.01
42.53
38.09
32.45
25.86
19.04
12.94
8.21
4.97
2.68
0.45
-2.56
-6.87
-12.45
-18.87
-25.45
-31.56
-36.76
-40.99
-44.63
-48.35
-53.01
-59.41
-68.07
-79.00
-91.50
-104.02
-114.28
-119.62
-117.73
-107.49
-89.58
-66.40
-41.36
-17.93
1.42
15.73
25.41
31.71
36.02
39.38
42.37
45.15
47.74
50.20
52.66
55.22
57.86
60.45
62.74
64.57
65.91
66.86
67.51
67.81
67.47
66.14
63.53
59.67
54.85
49.54
44.18
39.06
34.28
29.74
25.36
21.04
16.72
12.41
8.17
4.05
0.03
-4.06
-8.51
-13.60
-19.44
-25.88
-32.41
-38.53
-43.92
-48.68
-53.41
-59.02
-66.43
-76.22
-88.19
-101.05
-112.51
-119.61
-119.70
-111.37
-95.10
-73.28
-49.45
-27.02
-8.27
6.10
16.70
24.72
31.15
36.52
40.98
44.57
47.50
50.13
52.78
55.60
58.47
61.09
63.14
64.44
65.01
65.07
64.90
64.64
64.23
63.44
61.88
59.27
55.59
51.08
46.22
41.57
37.53
34.26
31.59
29.17
26.59
23.53
19.93
15.93
11.87
8.05
4.57
1.24
-2.37
-6.67
-11.86
-17.76
-23.91
-29.77
-35.06
-39.86
-44.66
-50.16
-57.04
-65.73
-76.16
-87.43
-97.82
-104.89
-106.19
-100.05
-86.40
-66.93
-44.67
-22.97
-4.45
9.69
19.62
26.34
30.92
34.09
36.15
37.22
37.58
37.75
38.36
39.89
42.45
45.75
49.22
52.30
54.63
56.13
56.97
57.29
57.12
56.24
54.35
51.26
47.04
42.14
37.22
32.89
29.47
26.89
24.70
22.37
19.50
16.01
12.12
8.17
4.46
1.06
-2.23
-5.78
-10.03
-15.22
-21.33
-28.04
-34.85
-41.28
-47.03
-52.15
-56.99
-62.15
-68.27
-75.91
-85.28
-95.96
-106.76
-115.64
-120.16
-118.13
-108.43
-91.66
-70.09
-47.01
-25.67
-8.22
4.69
13.77
20.41
25.91
31.02
35.84
40.12
43.66
46.49
48.89
51.24
53.78
56.55
59.35
61.87
63.87
65.17
65.77
65.74
65.17
64.09
62.42
60.00
56.73
52.68
48.10
43.45
39.17
35.58
32.71
30.37
28.20
25.89
23.21
20.06
16.39
12.26
7.76
3.13
-1.40
-5.65
-9.62
-13.61
-18.06
-23.37
-29.66
-36.63
-43.69
-50.14
-55.48
-59.66
-63.16
-66.88
-71.84
-78.92
-88.41
-99.69
-111.17
-120.37
-124.66
-121.91
-111.37
-93.96
-72.11
-48.98
-27.48
-9.52
4.29
14.45
21.99
27.93
32.97
37.41
41.31
44.68
47.57
50.13
52.54
54.93
57.32
59.61
61.66
63.34
64.62
65.51
66.01
65.97
65.15
63.30
60.34
56.47
52.05
47.50
43.10
38.99
35.20
31.76
28.71
26.07
23.66
21.16
18.21
14.64
10.58
6.46
2.75
-0.34
-2.93
-5.45
-8.46
-12.42
-17.45
-23.34
-29.64
-35.76
-41.20
-45.72
-49.44
-52.85
-56.65
-61.64
-68.45
-77.28
-87.64
-98.22
-106.94
-111.34
-109.24
-99.57
-82.88
-61.34
-38.12
-16.37
1.68
15.17
24.47
30.56
34.47
36.86
38.05
38.35
38.17
38.17
38.95
40.82
43.64
46.90
50.01
52.56
54.44
55.75
56.59
56.88
56.35
54.62
51.51
47.12
41.87
36.38
31.19
26.68
22.98
19.98
17.35
14.68
11.60
7.94
3.82
-0.40
-4.30
-7.62
-10.47
-13.27
-16.61
-20.87
-26.08
-31.92
-37.81
-43.30
-48.20
-52.67
-57.14
-62.20
-68.43
-76.29
-85.68
-95.78
-104.77
-110.14
-109.35
-100.85
-84.77
-63.20
-39.47
-17.13
1.25
14.64
23.50
29.04
32.55
34.87
36.40
37.36
38.10
39.08
40.81
43.51
47.02
50.79
54.18
56.73
58.21
58.79
58.75
58.40
57.89
57.14
55.86
53.69
50.37
45.89
40.60
35.05
29.88
25.60
22.36
20.04
18.22
16.44
14.30
11.52
8.00
3.84
-0.70
-5.26
-9.49
-13.26
-16.71
-20.25
-24.37
-29.35
-35.12
-41.24
-47.09
-52.19
-56.43
-60.17
-64.15
-69.31
-76.44
-85.89
-97.19
-108.81
-118.28
-122.71
-119.67
-108.12
-89.00
-64.97
-39.67
-16.46
2.40
16.21
25.47
31.32
34.89
36.97
38.11
38.71
39.22
40.16
41.97
44.85
48.65
52.89
56.90
60.13
62.27
63.36
63.74
63.79
63.64
63.13
61.85
59.35
55.49
50.47
44.87
39.42
34.74
31.12
28.45
26.28
24.01
21.15
17.47
13.13
8.56
4.32
0.80
-1.96
-4.32
-6.85
-10.10
-14.38
-19.61
-25.45
-31.46
-37.20
-42.36
-46.83
-50.73
-54.45
-58.71
-64.44
-72.38
-82.60
-94.01
-104.34
-110.59
-110.03
-101.19
-84.56
-62.44
-38.22
-15.28
3.97
18.42
28.23
34.20
37.30
38.33
37.95
36.75
35.35
34.44
34.57
36.13
39.13
43.22
47.81
52.19
55.72
58.04
59.03
58.81
57.57
55.46
52.60
49.05
44.92
40.35
35.53
30.62
25.66
20.67
15.66
10.77
6.25
2.34
-0.86
-3.52
-6.09
-9.14
-13.12
-18.14
-23.93
-29.89
-35.39
-39.99
-43.72
-47.10
-51.04
-56.61
-64.56
-74.94
-86.70
-97.76
-105.28
-106.52
-99.67
-84.60
-63.02
-38.11
-13.54
7.51
23.17
33.17
38.48
40.64
41.15
40.95
40.51
40.00
39.62
39.74
40.81
43.11
46.54
50.51
54.17
56.81
58.13
58.35
58.01
57.58
57.11
56.14
54.02
50.29
45.06
39.08
33.40
28.90
25.93
24.10
22.58
20.43
17.03
12.33
6.83
1.37
-3.27
-6.70
-9.13
-11.31
-14.22
-18.52
-24.33
-31.13
-38.00
-44.09
-49.00
-52.95
-56.59
-60.79
-66.37
-73.91
-83.64
-95.10
-106.90
-116.70
-121.55
-118.82
-107.18
-87.33
-61.97
-35.00
-10.24
9.64
23.74
32.55
37.43
39.75
40.54
40.46
39.99
39.60
39.77
40.93
43.26
46.67
50.79
55.02
58.79
61.58
63.16
63.59
63.12
62.02
60.48
58.46
55.78
52.24
47.79
42.67
37.38
32.49
28.43
25.32
22.90
20.65
17.96
14.40
9.92
4.87
-0.07
-4.24
-7.30
-9.45
-11.43
-14.19
-18.49
-24.45
-31.54
-38.75
-45.03
-49.77
-52.99
-55.36
-57.92
-61.83
-68.00
-76.82
-87.80
-99.31
-108.79
-113.17
-109.93
-98.00
-78.27
-53.50
-27.42
-3.58
15.60
29.24
37.78
42.34
44.16
44.22
43.23
41.76
40.47
40.03
40.93
43.29
46.76
50.57
53.95
56.38
57.79
58.46
58.76
58.84
58.52
57.40
55.03
51.25
46.21
40.38
34.27
28.32
22.79
17.84
13.55
9.98
7.15
4.86
2.77
0.34
-2.97
-7.52
-13.32
-20.03
-27.03
-33.69
-39.55
-44.45
-48.55
-52.40
-56.83
-62.84
-71.26
-82.29
-95.03
-107.31
-116.00
-117.87
-110.76
-94.44
-70.94
-43.99
-17.81
4.19
20.19
30.19
35.45
37.64
38.14
37.80
37.05
36.20
35.70
36.07
37.74
40.79
44.84
49.21
53.23
56.47
58.85
60.49
61.45
61.60
60.57
58.01
53.82
48.32
42.19
36.17
30.80
26.23
22.17
18.16
13.82
9.06
4.23
-0.16
-3.72
-6.38
-8.58
-11.02
-14.43
-19.23
-25.31
-32.14
-38.92
-45.00
-50.03
-54.22
-58.17
-62.81
-69.16
-77.99
-89.39
-102.42
-114.86
-123.59
-125.39
-118.08
-101.46
-77.57
-50.11
-23.27
-0.35
16.99
28.81
36.21
40.55
42.82
43.55
43.07
41.85
40.59
40.08
40.91
43.25
46.77
50.86
54.78
57.98
60.16
61.26
61.41
60.78
59.51
57.54
54.74
50.86
45.80
39.69
32.97
26.26
20.20
15.20
11.31
8.25
5.50
2.43
-1.45
-6.38
-12.18
-18.39
-24.36
-29.57
-33.84
-37.43
-40.99
-45.37
-51.41
-59.72
-70.40
-82.76
-95.18
-105.11
-109.71
-106.58
-94.80
-75.35
-50.95
-25.25
-1.65
17.54
31.49
40.50
45.47
47.38
47.06
45.20
42.59
40.11
38.66
38.90
41.01
44.69
49.20
53.70
57.48
60.15
61.59
61.88
61.11
59.31
56.49
52.68
47.98
42.63
36.84
30.83
24.77
18.74
12.91
7.51
2.72
-1.39
-4.98
-8.46
-12.34
-17.11
-22.90
-29.51
-36.35
-42.78
-48.33
-52.95
-57.07
-61.49
-67.22
-75.19
-85.86
-98.85
-112.57
-124.32
-130.77
-128.99
-117.51
-97.01
-70.29
-41.45
-14.59
7.31
23.09
33.21
39.07
42.30
44.14
45.35
46.33
47.38
48.85
51.03
54.05
57.72
61.55
64.96
67.55
69.30
70.50
71.53
72.55
73.28
73.08
71.18
67.17
61.23
54.15
47.05
40.95
36.29
32.87
29.93
26.66
22.52
17.52
12.15
7.02
2.57
-1.25
-4.85
-8.86
-13.74
-19.59
-26.06
-32.55
-38.50
-43.68
-48.25
-52.73
-57.82
-64.19
-72.32
-82.41
-94.15
-106.54
-117.66
-124.90
-125.47
-117.39
-100.33
-75.97
-47.77
-19.87
4.18
22.31
34.34
41.42
45.22
47.15
47.98
48.01
47.49
46.88
46.90
48.19
50.99
54.89
59.03
62.51
64.80
65.91
66.23
66.11
65.66
64.63
62.69
59.61
55.49
50.61
45.33
39.95
34.62
29.45
24.50
19.83
15.52
11.55
7.92
4.52
1.16
-2.50
-6.84
-12.10
-18.23
-24.83
-31.23
-36.79
-41.30
-45.08
-48.96
-53.95
-60.98
-70.48
-82.05
-94.33
-104.99
-111.14
-110.12
-100.50
-82.66
-58.94
-32.95
-8.38
11.99
26.99
36.86
42.63
45.51
46.39
45.89
44.57
43.05
42.02
42.05
43.33
45.68
48.64
51.68
54.45
56.78
58.59
59.81
60.20
59.45
57.25
53.42
48.09
41.62
34.65
27.85
21.77
16.63
12.32
8.45
4.70
0.87
-2.95
-6.66
-10.31
-14.16
-18.64
-24.03
-30.25
-36.85
-43.16
-48.69
-53.36
-57.66
-62.52
-68.92
-77.64
-88.79
-101.56
-114.08
-123.65
-127.35
-122.97
-109.79
-89.10
-63.78
-37.55
-13.80
5.26
18.96
27.89
33.32
36.59
38.74
40.42
41.92
43.39
44.93
46.68
48.80
51.38
54.40
57.69
61.00
64.03
66.55
68.25
68.91
68.28
66.19
62.68
57.98
52.53
46.79
41.07
35.52
30.11
24.84
19.77
15.07
10.82
6.97
3.28
-0.56
-4.81
-9.61
-14.94
-20.64
-26.55
-32.48
-38.32
-44.05
-49.75
-55.71
-62.43
-70.51
-80.35
-91.74
-103.45
-113.27
-118.37
-116.29
-105.82
-87.62
-64.14
-38.81
-14.95
5.10
20.37
31.06
37.95
41.86
43.41
43.03
41.26
38.88
36.87
36.19
37.41
40.43
44.49
48.48
51.46
53.06
53.55
53.58
53.76
54.13
54.19
53.06
50.01
44.76
37.67
29.64
21.76
14.96
9.68
5.80
2.70
-0.42
-4.26
-9.14
-14.89
-21.06
-27.07
-32.48
-37.17
-41.37
-45.71
-51.03
-58.22
-67.75
-79.30
-91.45
-101.78
-107.50
-106.26
-97.07
-80.62
-59.17
-35.73
-13.20
6.34
21.93
33.46
41.30
45.93
47.77
47.30
45.25
42.61
40.52
39.97
41.46
44.89
49.50
54.27
58.20
60.68
61.59
61.24
60.06
58.34
56.11
53.18
49.32
44.47
38.76
32.53
26.14
19.96
14.24
9.12
4.61
0.47
-3.68
-8.27
-13.58
-19.56
-25.86
-31.90
-37.30
-42.02
-46.39
-51.05
-56.70
-63.88
-72.93
-83.84
-96.10
-108.48
-118.92
-124.90
-124.04
-114.97
-97.97
-75.07
-49.51
-24.80
-3.62
12.67
24.12
31.70
36.72
40.35
43.33
46.01
48.57
51.07
53.57
56.12
58.71
61.30
63.79
66.09
68.10
69.78
70.99
71.56
71.27
69.87
67.21
63.28
58.35
52.87
47.38
42.27
37.70
33.54
29.40
24.94
19.98
14.63
9.31
4.43
0.27
-3.25
-6.52
-10.08
-14.38
-19.54
-25.33
-31.27
-36.85
-41.83
-46.39
-51.08
-56.71
-64.03
-73.37
-84.42
-95.91
-105.76
-111.46
-110.77
-102.48
-86.90
-65.92
-42.40
-19.30
1.08
17.49
29.66
37.87
42.63
44.49
44.11
42.26
39.89
37.95
37.24
38.18
40.77
44.56
48.84
52.80
55.81
57.54
58.06
57.67
56.67
55.18
53.02
49.82
45.32
39.49
32.67
25.46
18.58
12.59
7.77
3.99
0.76
-2.56
-6.53
-11.39
-16.98
-22.82
-28.39
-33.38
-37.78
-41.93
-46.30
-51.41
-57.77
-65.82
-75.76
-87.26
-99.05
-108.94
-114.18
-112.30
-102.15
-84.39
-61.39
-36.55
-13.15
6.53
21.50
31.93
38.63
42.53
44.45
45.07
45.03
44.97
45.51
46.98
49.41
52.45
55.53
58.09
59.81
60.67
60.86
60.63
60.04
58.99
57.20
54.45
50.70
46.19
41.28
36.38
31.70
27.18
22.71
18.15
13.50
8.95
4.69
0.76
-3.08
-7.29
-12.33
-18.38
-25.19
-32.17
-38.62
-44.06
-48.42
-52.12
-55.87
-60.52
-66.88
-75.41
-85.99
-97.59
-108.23
-115.17
-115.75
-108.29
-92.85
-71.34
-46.97
-23.15
-2.53
13.56
24.97
32.34
36.53
38.34
38.50
37.80
37.10
37.16
38.48
41.17
44.86
48.95
52.75
55.74
57.68
58.59
58.71
58.32
57.59
56.49
54.85
52.37
48.86
44.24
38.69
32.62
26.57
21.10
16.58
13.08
10.28
7.65
4.62
0.77
-3.97
-9.37
-15.05
-20.62
-25.79
-30.45
-34.63
-38.52
-42.45
-46.87
-52.35
-59.33
-67.98
-77.80
-87.51
-95.04
-98.00
-94.43
-83.54
-66.14
-44.55
-21.94
-1.30
15.30
27.14
34.63
38.74
40.43
40.33
38.78
36.18
33.18
30.68
29.62
30.56
33.45
37.64
42.06
45.73
48.07
49.01
48.84
47.93
46.42
44.12
40.68
35.84
29.74
22.91
16.15
10.19
5.41
1.72
-1.36
-4.43
-7.97
-12.23
-17.13
-22.45
-27.88
-33.09
-37.90
-42.30
-46.53
-51.12
-56.78
-64.21
-73.78
-85.09
-96.77
-106.54
-111.70
-109.96
-100.25
-83.27
-61.31
-37.63
-15.38
3.18
17.11
26.65
32.66
36.14
37.85
38.36
38.04
37.36
36.80
36.83
37.77
39.63
42.22
45.14
48.00
50.39
51.98
52.47
51.61
49.27
45.51
40.66
35.13
29.37
23.63
17.90
12.04
5.92
-0.41
-6.73
-12.74
-18.27
-23.34
-28.19
-33.16
-38.61
-44.90
-52.36
-61.17
-71.11
-81.25
-89.84
-94.59
-93.30
-84.77
-69.40
-49.32
-27.63
-7.48
9.01
21.18
29.59
35.39
39.44
42.02
42.94
42.12
39.95
37.48
35.96
36.29
38.58
42.07
45.55
47.92
48.60
47.61
45.40
42.50
39.22
35.59
31.41
26.33
20.11
12.78
4.72
-3.33
-10.59
-16.53
-21.18
-25.20
-29.59
-35.40
-43.25
-53.10
-64.19
-75.07
-83.82
-88.39
-87.04
-78.89
-64.38
-45.30
-24.32
-4.25
12.76
25.75
34.83
40.77
44.42
46.37
46.84
45.98
44.08
41.80
39.99
39.47
40.70
43.51
47.13
50.51
52.62
52.87
51.22
48.12
44.17
39.87
35.37
30.53
25.10
18.91
12.04
4.84
-2.22
-8.72
-14.43
-19.46
-24.09
-28.67
-33.54
-38.95
-45.23
-52.71
-61.64
-71.76
-81.93
-90.11
-93.79
-90.86
-80.48
-63.60
-42.73
-21.03
-1.30
14.79
26.85
35.40
41.19
44.78
46.42
46.26
44.72
42.56
40.84
40.45
41.85
44.79
48.45
51.84
54.16
55.21
55.22
54.68
53.86
52.64
50.56
47.08
42.00
35.61
28.62
21.95
16.25
11.76
8.24
5.11
1.77
-2.19
-6.91
-12.17
-17.58
-22.69
-27.21
-31.13
-34.76
-38.71
-43.69
-50.35
-58.95
-69.13
-79.69
-88.69
-93.79
-92.95
-85.09
-70.60
-51.32
-29.97
-9.34
8.50
22.52
32.57
38.99
42.18
42.50
40.40
36.66
32.46
29.11
27.72
28.79
32.09
36.81
41.84
46.19
49.27
50.93
51.29
50.52
48.66
45.61
41.24
35.58
28.93
21.88
15.17
9.39
4.81
1.27
-1.80
-5.06
-9.12
-14.19
-20.08
-26.18
-31.79
-36.35
-39.79
-42.54
-45.46
-49.66
-56.05
-65.05
-76.29
-88.42
-99.19
-105.97
-106.41
-99.15
-84.43
-63.99
-40.71
-17.73
2.37
18.11
29.22
36.37
40.62
42.94
43.97
44.04
43.42
42.49
41.90
42.30
44.11
47.30
51.35
55.50
59.00
61.41
62.56
62.43
60.98
58.15
54.02
48.84
43.14
37.52
32.45
28.13
24.40
20.89
17.17
13.02
8.43
3.66
-0.95
-5.19
-9.11
-13.01
-17.28
-22.22
-27.73
-33.47
-38.92
-43.73
-47.88
-51.79
-56.14
-61.69
-69.04
-78.41
-89.36
-100.66
-110.25
-115.64
-114.59
-105.82
-89.63
-67.90
-43.61
-19.95
0.59
16.71
28.34
36.21
41.34
44.58
46.50
47.41
47.61
47.52
47.60
48.35
49.99
52.40
55.15
57.69
59.57
60.63
60.94
60.65
59.87
58.47
56.19
52.77
48.23
42.94
37.56
32.76
28.95
26.11
23.79
21.33
18.16
14.03
9.12
3.97
-0.77
-4.62
-7.49
-9.72
-12.01
-15.12
-19.55
-25.28
-31.78
-38.12
-43.52
-47.64
-50.86
-54.03
-58.23
-64.32
-72.66
-82.84
-93.67
-103.21
-109.07
-108.94
-101.40
-86.43
-65.67
-42.07
-18.95
0.98
16.24
26.79
33.43
37.30
39.31
40.05
39.91
39.26
38.59
38.43
39.16
40.89
43.41
46.30
49.09
51.47
53.23
54.34
54.75
54.36
53.04
50.69
47.29
42.95
37.98
32.82
27.94
23.70
20.20
17.27
14.53
11.64
8.43
5.04
1.75
-1.18
-3.79
-6.47
-9.74
-13.96
-19.07
-24.58
-29.80
-34.28
-38.01
-41.49
-45.54
-50.96
-58.22
-67.31
-77.42
-87.05
-94.10
-96.28
-91.76
-79.92
-61.75
-39.72
-17.10
3.07
18.85
29.68
36.14
39.30
40.13
39.22
36.94
33.73
30.28
27.56
26.48
27.50
30.45
34.64
39.06
42.82
45.36
46.55
46.55
45.63
44.03
41.79
38.89
35.21
30.70
25.46
19.76
14.00
8.60
3.92
0.08
-2.98
-5.52
-7.92
-10.58
-13.83
-17.81
-22.48
-27.58
-32.73
-37.55
-41.82
-45.58
-49.18
-53.34
-58.84
-66.39
-76.14
-87.30
-98.02
-105.68
-107.62
-102.06
-88.80
-69.41
-46.75
-24.04
-3.88
12.21
23.94
31.77
36.49
38.80
39.28
38.46
36.94
35.44
34.68
35.18
37.12
40.29
44.13
47.90
50.97
52.96
53.79
53.70
52.97
51.79
50.14
47.86
44.76
40.79
36.13
31.03
25.78
20.57
15.50
10.72
6.40
2.67
-0.48
-3.39
-6.61
-10.67
-15.79
-21.73
-27.86
-33.47
-38.16
-42.05
-45.70
-49.93
-55.53
-62.99
-72.32
-82.83
-93.07
-100.93
-104.12
-100.84
-90.47
-73.91
-53.35
-31.62
-11.32
5.83
19.18
28.90
35.49
39.49
41.27
41.20
39.76
37.65
35.72
34.75
35.23
37.22
40.37
44.02
47.48
50.17
51.75
52.21
51.70
50.49
48.71
46.30
42.99
38.59
33.13
27.09
21.25
16.36
12.75
10.12
7.69
4.58
0.29
-5.07
-10.86
-16.30
-20.85
-24.45
-27.47
-30.59
-34.48
-39.72
-46.69
-55.46
-65.66
-76.14
-85.07
-90.15
-89.39
-81.79
-67.82
-49.35
-29.00
-9.39
7.62
21.12
30.94
37.33
40.61
41.12
39.36
36.12
32.46
29.52
28.24
29.08
31.95
36.20
40.85
44.86
47.52
48.60
48.31
47.17
45.57
43.66
41.30
38.14
33.93
28.71
22.77
16.61
10.76
5.57
1.16
-2.57
-5.94
-9.36
-13.23
-17.79
-23.01
-28.54
-33.90
-38.69
-42.84
-46.74
-51.15
-56.96
-64.85
-74.86
-86.23
-97.33
-105.89
-109.56
-106.55
-96.22
-79.49
-58.56
-36.43
-15.95
0.94
13.57
22.47
28.72
33.35
36.94
39.61
41.29
42.08
42.42
43.04
44.60
47.36
51.11
55.22
59.00
61.95
63.86
64.77
64.80
64.01
62.34
59.74
56.19
51.88
47.09
42.18
37.42
32.89
28.52
24.13
19.58
14.83
10.02
5.39
1.16
-2.59
-6.02
-9.47
-13.26
-17.57
-22.38
-27.43
-32.46
-37.34
-42.19
-47.44
-53.67
-61.52
-71.21
-82.25
-93.20
-101.78
-105.43
-102.13
-91.17
-73.58
-51.81
-29.01
-8.02
9.35
22.45
31.55
37.33
40.39
41.24
40.34
38.32
36.05
34.52
34.58
36.63
40.48
45.41
50.43
54.60
57.33
58.47
58.24
57.02
55.11
52.66
49.65
46.03
41.83
37.22
32.42
27.65
23.01
18.51
14.17
10.08
6.38
3.18
0.39
-2.33
-5.48
-9.43
-14.27
-19.64
-24.94
-29.65
-33.62
-37.26
-41.34
-46.75
-54.09
-63.42
-73.99
-84.32
-92.37
-95.98
-93.44
-84.03
-68.31
-48.13
-26.12
-5.07
12.85
26.46
35.59
40.77
42.87
42.70
40.95
38.28
35.42
33.19
32.35
33.37
36.24
40.43
45.05
49.20
52.21
53.81
54.01
53.02
51.06
48.30
44.88
40.85
36.34
31.48
26.51
21.68
17.25
13.36
9.97
6.88
3.78
0.35
-3.63
-8.16
-13.06
-18.07
-22.94
-27.54
-31.89
-36.08
-40.25
-44.57
-49.24
-54.61
-61.14
-69.32
-79.25
-90.25
-100.68
-108.13
-110.13
-104.98
-92.52
-74.19
-52.66
-30.91
-11.37
4.58
16.72
25.57
31.92
36.44
39.60
41.66
42.86
43.51
44.00
44.68
45.86
47.65
50.01
52.77
55.62
58.26
60.42
61.92
62.64
62.43
61.13
58.54
54.58
49.43
43.56
37.72
32.63
28.78
26.11
24.14
22.15
19.45
15.69
10.97
5.76
0.71
-3.61
-6.91
-9.38
-11.55
-14.12
-17.71
-22.60
-28.66
-35.43
-42.28
-48.60
-54.06
-58.71
-63.06
-67.93
-74.26
-82.65
-92.85
-103.54
-112.39
-116.66
-114.19
-104.05
-86.98
-65.15
-41.46
-18.77
0.72
15.81
26.26
32.63
35.96
37.43
38.09
38.69
39.63
41.05
43.03
45.62
48.81
52.41
56.01
59.11
61.29
62.44
62.63
62.06
60.80
58.76
55.80
51.96
47.50
42.93
38.73
35.18
32.22
29.58
26.83
23.67
19.95
15.74
11.33
7.08
3.36
0.38
-2.00
-4.28
-7.19
-11.40
-17.17
-24.21
-31.75
-38.85
-44.89
-49.71
-53.77
-57.91
-63.12
-70.12
-79.18
-89.78
-100.44
-108.91
-112.57
-109.30
-98.22
-80.22
-57.76
-34.10
-12.28
5.71
19.20
28.53
34.50
37.92
39.37
39.33
38.33
37.05
36.20
36.35
37.78
40.43
43.95
47.88
51.75
55.17
57.86
59.65
60.43
60.16
58.84
56.45
52.97
48.53
43.42
38.13
33.19
28.99
25.56
22.55
19.43
15.72
11.33
6.65
2.33
-1.11
-3.50
-5.24
-7.08
-9.79
-13.74
-18.88
-24.74
-30.71
-36.27
-41.19
-45.50
-49.49
-53.72
-58.89
-65.66
-74.23
-83.98
-93.25
-99.60
-100.52
-94.29
-80.82
-61.67
-39.68
-18.01
0.77
15.28
25.31
31.48
34.72
35.82
35.39
33.87
31.74
29.66
28.31
28.29
29.82
32.71
36.37
40.09
43.26
45.57
47.02
47.77
47.98
47.66
46.60
44.48
41.01
36.12
30.10
23.53
17.15
11.59
7.11
3.62
0.70
-2.16
-5.40
-9.21
-13.58
-18.33
-23.14
-27.68
-31.70
-35.16
-38.31
-41.69
-46.05
-52.06
-60.02
-69.56
-79.48
-87.86
-92.52
-91.58
-84.12
-70.44
-52.15
-31.66
-11.60
5.90
19.57
29.08
34.79
37.36
37.52
35.97
33.40
30.57
28.32
27.43
28.38
31.22
35.46
40.23
44.61
47.83
49.61
50.02
49.46
48.32
46.84
44.92
42.24
38.47
33.51
27.61
21.38
15.49
10.42
6.31
2.86
-0.46
-4.21
-8.70
-13.94
-19.68
-25.47
-30.89
-35.65
-39.74
-43.45
-47.37
-52.28
-58.91
-67.72
-78.59
-90.64
-102.11
-110.68
-113.93
-110.10
-98.78
-81.15
-59.71
-37.56
-17.45
-1.03
11.30
20.13
26.51
31.37
35.31
38.53
41.10
43.12
44.80
46.45
48.34
50.60
53.22
56.08
59.06
62.01
64.80
67.19
68.82
69.24
68.11
65.34
61.16
56.13
50.81
45.71
41.03
36.74
32.67
28.57
24.26
19.68
14.90
10.13
5.64
1.55
-2.28
-6.27
-10.91
-16.50
-23.01
-29.97
-36.77
-42.94
-48.35
-53.29
-58.37
-64.37
-71.99
-81.57
-92.71
-104.03
-113.23
-117.63
-115.01
-104.48
-86.92
-64.71
-41.00
-18.72
0.12
14.67
25.08
32.02
36.38
38.99
40.61
41.91
43.44
45.46
47.96
50.77
53.64
56.41
59.07
61.67
64.20
66.49
68.22
69.04
68.64
66.96
64.07
60.19
55.56
50.47
45.27
40.31
35.80
31.78
27.96
24.03
19.75
15.21
10.72
6.59
2.88
-0.69
-4.65
-9.41
-15.00
-21.06
-26.99
-32.31
-36.90
-41.10
-45.55
-50.95
-57.85
-66.44
-76.31
-86.31
-94.65
-99.18
-98.00
-90.14
-75.93
-57.06
-36.01
-15.41
2.72
17.18
27.68
34.49
38.14
39.28
38.55
36.73
34.67
33.23
33.09
34.58
37.64
41.83
46.53
51.08
54.98
57.86
59.53
59.86
58.76
56.16
52.15
47.01
41.23
35.48
30.34
26.17
22.88
19.98
16.84
13.00
8.42
3.52
-1.03
-4.74
-7.53
-9.89
-12.65
-16.54
-21.87
-28.38
-35.40
-42.17
-48.21
-53.50
-58.41
-63.61
-69.85
-77.73
-87.44
-98.38
-109.05
-117.21
-120.30
-116.33
-104.64
-86.30
-63.86
-40.55
-19.27
-1.85
11.24
20.55
27.12
31.85
35.27
37.60
39.05
40.05
41.27
43.43
46.95
51.69
56.99
61.98
65.96
68.65
70.14
70.69
70.47
69.42
67.31
63.98
59.49
54.20
48.62
43.35
38.79
35.13
32.26
29.88
27.49
24.59
20.89
16.38
11.40
6.49
2.19
-1.32
-4.32
-7.54
-11.80
-17.58
-24.76
-32.62
-40.06
-46.19
-50.75
-54.20
-57.61
-62.22
-69.00
-78.22
-89.33
-100.88
-110.71
-116.44
-115.95
-108.14
-93.27
-73.12
-50.45
-28.31
-9.12
5.78
16.32
23.36
28.10
31.59
34.47
36.98
39.17
41.11
43.03
45.27
48.11
51.60
55.51
59.36
62.64
64.97
66.24
66.53
66.06
64.98
63.26
60.71
57.14
52.51
47.13
41.60
36.67
32.86
30.26
28.48
26.81
24.52
21.22
16.97
12.26
7.75
3.95
0.99
-1.43
-3.96
-7.23
-11.63
-17.10
-23.13
-29.05
-34.33
-38.76
-42.62
-46.42
-50.84
-56.48
-63.76
-72.70
-82.78
-92.72
-100.52
-103.93
-101.09
-91.27
-75.23
-55.08
-33.61
-13.49
3.41
16.28
25.15
30.61
33.35
34.05
33.35
31.92
30.44
29.54
29.74
31.27
34.11
37.88
41.94
45.62
48.38
49.99
50.48
50.07
48.90
47.01
44.30
40.72
36.37
31.56
26.77
22.42
18.73
15.65
12.91
10.16
7.06
3.39
-0.93
-5.78
-10.91
-15.93
-20.53
-24.56
-28.12
-31.52
-35.16
-39.42
-44.59
-50.96
-58.74
-68.06
-78.64
-89.47
-98.73
-104.08
-103.34
-95.39
-80.71
-61.37
-40.30
-20.34
-3.34
10.08
20.28
27.90
33.43
37.03
38.73
38.82
37.94
37.01
36.92
38.17
40.75
44.23
47.99
51.43
54.13
55.91
56.76
56.74
55.97
54.44
52.14
49.08
45.30
41.02
36.48
31.94
27.46
23.00
18.39
13.53
8.56
3.80
-0.41
-3.91
-6.90
-9.88
-13.49
-18.10
-23.69
-29.88
-36.14
-42.01
-47.38
-52.38
-57.45
-63.13
-70.01
-78.43
-88.22
-98.39
-107.03
-111.74
-110.34
-101.73
-86.38
-66.28
-44.32
-23.27
-5.13
9.27
20.00
27.66
32.91
36.36
38.50
39.85
41.01
42.53
44.79
47.82
51.38
55.00
58.23
60.74
62.46
63.47
63.94
63.97
63.51
62.37
60.26
57.04
52.79
47.85
42.73
37.88
33.56
29.72
26.14
22.58
18.99
15.47
12.18
9.18
6.35
3.42
0.19
-3.49
-7.68
-12.43
-17.72
-23.50
-29.51
-35.33
-40.51
-44.80
-48.42
-52.01
-56.57
-62.97
-71.66
-82.25
-93.41
-103.04
-108.74
-108.42
-100.90
-86.49
-66.87
-44.80
-23.20
-4.45
10.15
20.50
27.25
31.41
33.83
35.12
35.65
35.71
35.70
36.13
37.49
40.02
43.64
47.89
52.12
55.74
58.37
59.96
60.60
60.40
59.29
57.15
53.83
49.51
44.64
39.85
35.65
32.18
29.18
26.10
22.47
18.11
13.25
8.41
4.10
0.64
-2.03
-4.34
-6.88
-10.20
-14.61
-20.06
-26.10
-32.20
-37.81
-42.73
-47.19
-51.78
-57.33
-64.52
-73.55
-83.84
-94.01
-102.03
-105.69
-103.32
-94.22
-79.02
-59.50
-38.19
-17.58
0.36
14.54
24.78
31.52
35.47
37.34
37.81
37.45
36.81
36.38
36.66
37.92
40.25
43.45
47.18
51.00
54.48
57.22
58.94
59.40
58.52
56.36
53.18
49.28
45.00
40.54
36.05
31.58
27.15
22.80
18.60
14.65
11.05
7.83
4.93
2.16
-0.73
-4.02
-7.87
-12.26
-16.97
-21.73
-26.26
-30.50
-34.65
-39.11
-44.37
-50.90
-58.89
-68.15
-77.91
-86.81
-93.06
-94.82
-90.67
-80.19
-64.22
-44.68
-24.18
-5.27
10.21
21.41
28.44
32.02
33.04
32.24
30.21
27.54
24.92
23.20
23.12
25.11
28.99
34.00
39.05
43.06
45.37
45.91
45.20
43.92
42.58
41.25
39.46
36.60
32.20
26.37
19.75
13.29
7.80
3.60
0.40
-2.46
-5.65
-9.55
-14.17
-19.17
-24.19
-28.89
-33.15
-36.97
-40.59
-44.41
-48.98
-54.95
-62.72
-72.19
-82.30
-91.19
-96.52
-96.23
-89.24
-75.94
-58.04
-38.08
-18.57
-1.44
12.30
22.52
29.58
34.01
36.34
37.05
36.65
35.72
34.91
34.80
35.76
37.91
40.95
44.42
47.67
50.22
51.73
52.13
51.50
49.99
47.75
44.87
41.45
37.52
33.11
28.26
23.09
17.80
12.73
8.26
4.66
1.84
-0.61
-3.39
-7.11
-12.03
-17.94
-24.20
-30.09
-35.19
-39.51
-43.49
-47.78
-53.05
-59.77
-68.20
-78.24
-89.27
-99.98
-108.32
-111.96
-108.94
-98.45
-81.31
-59.79
-36.92
-15.54
2.44
16.29
26.22
32.88
37.01
39.25
40.22
40.58
40.95
41.89
43.67
46.26
49.38
52.65
55.74
58.40
60.52
62.04
62.92
63.10
62.53
61.18
59.03
56.16
52.66
48.66
44.28
39.64
34.84
29.99
25.16
20.47
16.01
11.87
8.14
4.85
1.88
-1.07
-4.41
-8.59
-13.78
-19.84
-26.30
-32.54
-38.07
-42.69
-46.61
-50.38
-54.78
-60.67
-68.66
-78.76
-89.99
-100.33
-107.02
-107.44
-100.03
-85.09
-64.65
-41.90
-20.04
-1.40
13.00
23.26
30.06
34.13
36.14
36.64
36.28
35.81
35.98
37.23
39.64
42.82
46.18
49.21
51.67
53.60
55.21
56.57
57.58
57.86
57.02
54.80
51.24
46.67
41.62
36.68
32.25
28.42
25.01
21.64
17.97
13.85
9.49
5.24
1.47
-1.82
-4.96
-8.47
-12.78
-17.91
-23.46
-28.83
-33.56
-37.62
-41.42
-45.64
-51.01
-58.11
-67.13
-77.70
-88.76
-98.49
-104.57
-104.76
-97.74
-83.67
-64.35
-42.65
-21.59
-3.44
10.77
21.12
28.25
32.84
35.43
36.35
36.10
35.37
34.96
35.48
37.20
39.93
43.27
46.80
50.23
53.38
56.04
57.97
58.86
58.54
57.04
54.62
51.55
47.98
43.88
39.15
33.83
28.21
22.74
17.88
13.83
10.51
7.55
4.52
1.03
-3.07
-7.74
-12.70
-17.61
-22.15
-26.15
-29.67
-32.98
-36.52
-40.80
-46.25
-53.16
-61.49
-70.69
-79.56
-86.30
-88.87
-85.62
-75.92
-60.56
-41.53
-21.50
-3.01
12.21
23.48
30.99
35.37
37.32
37.39
36.00
33.62
30.87
28.52
27.32
27.76
29.95
33.50
37.69
41.65
44.66
46.34
46.73
46.12
44.81
42.96
40.50
37.22
33.00
28.01
22.66
17.54
13.12
9.58
6.70
4.03
1.08
-2.48
-6.78
-11.70
-17.04
-22.52
-27.89
-32.94
-37.56
-41.79
-45.90
-50.41
-56.05
-63.51
-73.05
-84.06
-94.86
-102.94
-105.72
-101.36
-89.56
-71.76
-50.61
-29.20
-10.04
5.41
16.89
24.93
30.34
33.87
36.03
37.18
37.69
37.89
38.20
38.98
40.52
42.95
46.15
49.75
53.18
55.79
57.07
56.87
55.43
53.31
51.06
49.01
47.11
45.04
42.41
38.94
34.65
29.69
24.39
19.02
13.86
9.11
4.89
1.14
-2.34
-5.96
-10.09
-14.98
-20.51
-26.35
-32.00
-37.11
-41.65
-46.01
-50.85
-56.93
-64.80
-74.39
-84.87
-94.58
-101.30
-102.87
-97.81
-85.90
-68.36
-47.53
-26.18
-6.87
8.74
20.07
27.43
31.70
33.85
34.67
34.65
34.07
33.23
32.54
32.58
33.89
36.74
40.86
45.51
49.74
52.80
54.39
54.73
54.27
53.39
52.10
50.15
47.15
42.98
37.86
32.34
27.11
22.73
19.35
16.67
14.09
10.91
6.71
1.45
-4.48
-10.40
-15.73
-20.17
-23.82
-27.08
-30.47
-34.51
-39.52
-45.72
-53.22
-61.91
-71.34
-80.48
-87.72
-91.15
-89.06
-80.56
-66.11
-47.42
-27.08
-7.76
8.52
20.84
29.20
34.23
36.59
36.79
35.26
32.50
29.35
26.81
25.80
26.83
29.78
33.99
38.53
42.55
45.48
47.13
47.52
46.81
45.13
42.63
39.43
35.73
31.66
27.33
22.78
18.02
13.17
8.42
4.02
0.18
-3.17
-6.31
-9.73
-13.85
-18.81
-24.34
-29.90
-34.93
-39.12
-42.64
-46.10
-50.32
-56.13
-64.08
-74.14
-85.61
-96.99
-106.20
-110.94
-109.31
-100.45
-84.94
-64.73
-42.62
-21.46
-3.44
10.39
20.09
26.46
30.58
33.38
35.54
37.38
39.04
40.56
42.01
43.46
45.01
46.75
48.78
51.16
53.88
56.88
59.91
62.56
64.26
64.45
62.77
59.15
53.94
47.78
41.48
35.69
30.81
26.82
23.39
20.04
16.40
12.35
8.09
4.00
0.38
-2.75
-5.70
-8.98
-13.00
-17.89
-23.40
-29.11
-34.60
-39.69
-44.52
-49.56
-55.53
-63.12
-72.72
-83.95
-95.46
-104.98
-109.93
-108.16
-98.78
-82.58
-61.81
-39.45
-18.25
-0.18
13.92
24.14
31.06
35.44
37.91
39.03
39.24
39.02
38.84
39.15
40.32
42.50
45.61
49.37
53.30
56.89
59.66
61.30
61.69
60.93
59.19
56.66
53.36
49.26
44.34
38.79
33.01
27.56
22.95
19.38
16.65
14.19
11.34
7.58
2.77
-2.91
-8.99
-14.95
-20.28
-24.70
-28.23
-31.24
-34.38
-38.44
-44.17
-51.99
-61.71
-72.39
-82.35
-89.44
-91.59
-87.44
-76.76
-60.61
-41.06
-20.61
-1.61
14.29
26.25
34.18
38.49
39.77
38.70
35.96
32.34
28.76
26.15
25.31
26.66
30.05
34.79
39.83
44.16
47.07
48.33
48.10
46.78
44.67
41.90
38.40
34.03
28.85
23.07
17.21
11.83
7.30
3.63
0.50
-2.66
-6.33
-10.73
-15.75
-21.10
-26.45
-31.59
-36.51
-41.27
-46.04
-51.15
-57.05
-64.37
-73.53
-84.39
-95.90
-106.04
-112.24
-112.14
-104.56
-89.89
-70.14
-48.22
-27.07
-8.85
5.45
15.90
23.19
28.16
31.47
33.49
34.49
34.72
34.59
34.72
35.71
38.02
41.64
46.12
50.63
54.36
56.78
57.85
57.83
57.07
55.74
53.72
50.80
46.83
41.86
36.17
30.17
24.27
18.82
14.02
9.92
6.32
2.83
-1.06
-5.74
-11.31
-17.51
-23.88
-29.94
-35.43
-40.45
-45.30
-50.49
-56.62
-64.21
-73.59
-84.62
-96.40
-107.27
-115.00
-117.39
-112.94
-101.39
-83.90
-62.69
-40.53
-19.90
-2.49
11.11
21.19
28.59
34.18
38.57
42.02
44.62
46.47
47.88
49.31
51.20
53.77
56.90
60.23
63.31
65.86
67.73
68.92
69.41
69.14
68.00
65.87
62.73
58.61
53.66
48.05
42.03
35.94
30.11
24.88
20.40
16.58
13.08
9.44
5.23
0.18
-5.62
-11.87
-18.12
-23.99
-29.29
-34.09
-38.68
-43.45
-48.94
-55.72
-64.25
-74.60
-86.09
-97.07
-105.13
-107.73
-103.07
-90.88
-72.56
-50.82
-28.74
-8.88
7.32
19.52
28.16
33.98
37.62
39.62
40.46
40.69
40.95
41.86
43.78
46.76
50.44
54.29
57.74
60.44
62.27
63.27
63.56
63.14
61.93
59.84
56.81
52.94
48.44
43.52
38.34
32.96
27.44
21.90
16.59
11.75
7.52
3.76
0.09
-3.93
-8.61
-13.89
-19.45
-24.87
-29.90
-34.61
-39.34
-44.59
-50.83
-58.46
-67.70
-78.37
-89.77
-100.41
-108.27
-111.11
-107.31
-96.34
-79.17
-57.96
-35.47
-14.24
3.92
18.18
28.55
35.56
39.95
42.48
43.81
44.50
45.00
45.68
46.82
48.64
51.16
54.24
57.58
60.78
63.46
65.40
66.51
66.79
66.15
64.42
61.40
56.99
51.42
45.26
39.21
33.91
29.62
26.13
22.93
19.43
15.26
10.45
5.34
0.46
-3.81
-7.40
-10.67
-14.20
-18.57
-24.03
-30.38
-37.09
-43.50
-49.15
-53.99
-58.44
-63.33
-69.59
-77.95
-88.49
-100.31
-111.51
-119.48
-121.61
-116.16
-102.99
-83.67
-61.02
-38.21
-17.82
-1.29
11.17
20.19
26.74
31.70
35.69
39.06
42.03
44.76
47.43
50.21
53.20
56.43
59.78
62.99
65.76
67.84
69.13
69.71
69.74
69.27
68.14
66.01
62.60
57.89
52.26
46.40
41.03
36.62
33.21
30.45
27.82
24.81
21.14
16.81
12.04
7.19
2.61
-1.47
-5.14
-8.69
-12.59
-17.23
-22.75
-28.98
-35.49
-41.72
-47.22
-51.85
-55.82
-59.74
-64.43
-70.70
-78.98
-89.04
-99.69
-108.98
-114.52
-114.18
-106.75
-92.39
-72.77
-50.49
-28.46
-9.06
6.39
17.71
25.52
30.74
34.20
36.43
37.80
38.58
39.25
40.26
42.01
44.59
47.78
51.13
54.17
56.64
58.50
59.86
60.78
61.14
60.65
58.96
55.93
51.73
46.94
42.14
37.75
33.75
29.78
25.36
20.29
14.80
9.47
4.90
1.31
-1.55
-4.34
-7.73
-12.05
-17.24
-22.94
-28.67
-34.09
-39.01
-43.44
-47.58
-51.92
-57.21
-64.25
-73.40
-84.06
-94.49
-102.08
-104.16
-99.03
-86.53
-68.16
-46.59
-24.72
-4.98
11.13
23.12
31.26
36.20
38.75
39.65
39.48
38.75
37.90
37.38
37.56
38.72
40.88
43.79
47.04
50.15
52.85
54.97
56.44
57.14
56.80
55.14
51.96
47.37
41.87
36.19
31.08
26.99
23.93
21.46
18.96
15.86
11.98
7.44
2.66
-1.96
-6.17
-9.92
-13.42
-17.02
-21.07
-25.81
-31.25
-37.18
-43.20
-48.89
-53.96
-58.42
-62.59
-67.08
-72.59
-79.73
-88.56
-98.38
-107.55
-113.74
-114.56
-108.38
-95.04
-75.93
-53.65
-31.07
-10.61
6.29
19.15
28.20
33.97
37.13
38.43
38.70
38.82
39.51
41.25
44.13
47.90
52.05
55.96
59.09
61.11
62.03
62.09
61.62
60.81
59.64
57.84
55.13
51.33
46.56
41.21
35.87
31.06
27.07
23.91
21.32
18.94
16.42
13.56
10.35
6.91
3.50
0.30
-2.63
-5.44
-8.39
-11.80
-15.85
-20.54
-25.68
-30.94
-35.99
-40.62
-44.81
-48.75
-52.91
-57.90
-64.36
-72.69
-82.65
-93.15
-102.28
-107.69
-107.31
-100.03
-86.14
-67.22
-45.71
-24.22
-4.97
10.62
22.00
29.32
33.18
34.47
34.06
32.83
31.52
30.74
30.86
32.06
34.24
37.20
40.63
44.25
47.83
51.15
54.02
56.15
57.30
57.16
55.64
52.78
48.87
44.34
39.64
35.16
31.06
27.34
23.81
20.27
16.58
12.79
9.08
5.58
2.28
-0.95
-4.37
-8.21
-12.56
-17.35
-22.36
-27.29
-31.89
-36.03
-39.82
-43.62
-48.05
-53.82
-61.49
-70.98
-81.30
-90.54
-96.21
-96.05
-88.84
-74.90
-56.07
-35.05
-14.61
3.16
17.20
27.35
33.95
37.49
38.47
37.41
34.96
31.91
29.11
27.27
26.88
28.05
30.62
34.19
38.30
42.46
46.28
49.46
51.73
52.83
52.54
50.72
47.42
42.93
37.78
32.53
27.64
23.34
19.52
15.90
12.18
8.21
4.07
0.04
-3.65
-6.86
-9.74
-12.61
-15.84
-19.70
-24.23
-29.20
-34.23
-38.90
-43.06
-46.78
-50.50
-54.85
-60.51
-67.95
-77.09
-87.00
-95.93
-101.58
-101.78
-95.14
-81.64
-62.79
-41.13
-19.55
-0.47
14.70
25.52
32.34
35.80
36.57
35.34
32.92
30.27
28.38
27.99
29.38
32.23
35.86
39.52
42.78
45.56
48.00
50.23
52.15
53.40
53.53
52.20
49.38
45.33
40.55
35.56
30.77
26.44
22.56
19.01
15.63
12.26
8.87
5.49
2.26
-0.76
-3.60
-6.48
-9.75
-13.69
-18.39
-23.67
-29.09
-34.22
-38.82
-43.05
-47.41
-52.62
-59.45
-68.33
-79.11
-90.72
-101.14
-107.75
-108.07
-100.57
-85.43
-64.58
-41.11
-18.35
1.18
16.20
26.68
33.26
36.80
38.03
37.58
36.06
34.22
32.88
32.65
33.83
36.35
39.76
43.46
46.89
49.72
51.82
53.27
54.19
54.60
54.42
53.42
51.46
48.52
44.78
40.55
36.13
31.70
27.25
22.80
18.36
14.15
10.40
7.33
4.93
2.91
0.85
-1.76
-5.27
-9.79
-15.10
-20.73
-26.14
-30.93
-35.01
-38.67
-42.62
-47.73
-54.79
-64.08
-75.08
-86.21
-95.10
-99.12
-96.21
-85.66
-68.42
-47.00
-24.57
-4.01
12.70
24.87
32.77
37.17
38.80
38.27
36.07
32.73
29.05
25.93
24.25
24.55
26.86
30.69
35.19
39.51
43.00
45.40
46.74
47.18
46.82
45.69
43.69
40.74
36.83
32.03
26.56
20.68
14.80
9.32
4.58
0.78
-2.23
-4.82
-7.52
-10.77
-14.81
-19.48
-24.43
-29.28
-33.76
-37.82
-41.64
-45.53
-49.96
-55.44
-62.41
-71.04
-80.88
-90.57
-98.01
-100.73
-96.76
-85.43
-67.78
-46.27
-24.07
-4.03
12.08
23.64
31.03
35.10
36.77
36.87
36.12
35.13
34.45
34.44
35.24
36.89
39.27
42.26
45.66
49.24
52.70
55.80
58.33
60.04
60.67
59.88
57.36
53.08
47.43
41.24
35.47
30.83
27.49
24.94
22.32
18.83
14.21
8.80
3.39
-1.17
-4.47
-6.68
-8.50
-10.88
-14.55
-19.70
-25.95
-32.53
-38.71
-44.15
-48.99
-53.76
-59.17
-65.81
-74.03
-83.74
-94.20
-103.95
-110.90
-112.76
-107.68
-95.10
-76.08
-53.20
-29.77
-8.84
7.68
19.36
26.91
31.58
34.46
36.24
37.18
37.48
37.57
38.07
39.66
42.67
46.89
51.64
56.05
59.47
61.70
63.00
63.79
64.36
64.69
64.46
63.26
60.81
57.12
52.45
47.28
42.11
37.37
33.29
29.86
26.81
23.73
20.25
16.25
11.98
7.85
4.25
1.28
-1.47
-4.62
-8.73
-13.92
-19.79
-25.58
-30.49
-34.16
-36.79
-39.01
-41.67
-45.51
-51.05
-58.60
-68.14
-79.12
-90.23
-99.33
-103.73
-101.11
-90.35
-72.30
-49.56
-25.70
-4.08
13.16
25.47
33.48
38.26
40.60
40.89
39.36
36.44
32.99
30.13
28.83
29.51
31.98
35.57
39.50
43.20
46.36
48.92
50.81
51.89
51.92
50.71
48.17
44.50
40.07
35.36
30.83
26.72
22.98
19.37
15.59
11.47
7.13
2.94
-0.74
-3.74
-6.25
-8.72
-11.69
-15.50
-20.17
-25.39
-30.69
-35.69
-40.18
-44.24
-48.22
-52.64
-58.16
-65.40
-74.64
-85.41
-96.27
-104.80
-108.25
-104.43
-92.60
-73.95
-51.27
-27.98
-7.09
9.63
21.84
30.14
35.45
38.53
39.79
39.53
38.15
36.24
34.55
33.83
34.52
36.73
40.16
44.26
48.41
52.07
54.91
56.79
57.68
57.54
56.28
53.84
50.27
45.84
41.05
36.44
32.45
29.23
26.55
23.87
20.68
16.57
11.59
6.19
1.03
-3.28
-6.54
-9.10
-11.69
-15.05
-19.59
-25.13
-31.03
-36.57
-41.29
-45.25
-48.98
-53.27
-58.92
-66.57
-76.35
-87.68
-99.09
-108.28
-112.56
-109.72
-98.86
-80.86
-58.24
-34.32
-12.19
6.11
19.81
29.16
34.90
37.78
38.47
37.59
35.87
34.13
33.13
33.31
34.77
37.25
40.37
43.78
47.31
50.81
54.15
57.08
59.23
60.15
59.56
57.36
53.71
48.99
43.65
38.17
32.93
28.15
23.94
20.22
16.84
13.55
10.16
6.62
3.02
-0.49
-3.84
-7.17
-10.77
-14.95
-19.78
-24.98
-29.98
-34.27
-37.72
-40.71
-44.16
-49.13
-56.46
-66.27
-77.74
-89.07
-97.79
-101.41
-98.10
-87.38
-70.29
-49.21
-27.07
-6.64
10.18
22.54
30.58
35.00
36.74
36.64
35.34
33.34
31.09
29.19
28.35
29.20
32.04
36.59
42.00
47.14
51.03
53.15
53.64
52.91
51.44
49.40
46.67
43.02
38.35
32.86
26.96
21.18
15.98
11.60
8.06
5.09
2.30
-0.78
-4.51
-9.12
-14.51
-20.35
-26.10
-31.24
-35.46
-38.90
-42.04
-45.67
-50.61
-57.55
-66.70
-77.69
-89.32
-99.64
-106.24
-106.80
-99.86
-85.40
-65.01
-41.55
-18.36
1.76
17.17
27.64
33.95
37.36
39.01
39.65
39.70
39.39
39.01
38.99
39.81
41.82
45.05
49.13
53.45
57.41
60.63
62.96
64.41
64.90
64.27
62.27
58.76
53.86
48.07
42.14
36.85
32.72
29.74
27.43
24.99
21.66
17.09
11.56
5.81
0.72
-3.14
-5.82
-8.02
-10.69
-14.60
-20.00
-26.50
-33.32
-39.64
-45.00
-49.46
-53.55
-58.13
-64.11
-72.20
-82.58
-94.53
-106.31
-115.32
-118.75
-114.43
-101.73
-81.91
-57.79
-32.91
-10.43
7.62
20.63
29.14
34.21
36.92
38.13
38.43
38.33
38.40
39.20
41.19
44.51
48.86
53.58
57.90
61.21
63.30
64.39
64.97
65.39
65.66
65.42
64.12
61.36
57.11
51.75
45.96
40.38
35.39
31.06
27.20
23.46
19.53
15.21
10.54
5.78
1.33
-2.41
-5.26
-7.47
-9.68
-12.66
-17.03
-22.83
-29.59
-36.44
-42.58
-47.62
-51.80
-55.93
-61.06
-68.11
-77.41
-88.35
-99.31
-107.81
-111.20
-107.45
-95.92
-77.64
-55.10
-31.46
-9.65
8.35
21.85
31.13
37.06
40.52
42.21
42.56
41.91
40.69
39.43
38.76
39.17
40.89
43.74
47.29
50.97
54.27
56.93
58.83
59.98
60.27
59.47
57.33
53.69
48.72
42.89
36.95
31.55
27.10
23.54
20.40
17.06
13.08
8.44
3.54
-1.00
-4.71
-7.57
-10.05
-12.91
-16.77
-21.83
-27.69
-33.62
-38.90
-43.21
-46.78
-50.33
-54.77
-60.91
-69.18
-79.34
-90.25
-99.96
-105.93
-105.68
-97.64
-81.84
-60.14
-35.74
-12.22
7.53
21.97
31.02
35.63
37.13
36.72
35.31
33.51
31.82
30.68
30.47
31.45
33.63
36.81
40.62
44.59
48.31
51.45
53.75
55.02
55.12
54.00
51.72
48.43
44.41
39.91
35.19
30.41
25.69
21.12
16.78
12.80
9.26
6.23
3.63
1.26
-1.25
-4.36
-8.35
-13.23
-18.60
-23.79
-28.02
-30.78
-32.12
-32.64
-33.42
-35.75
-40.78
-49.05
-60.13
-72.35
-82.95
-88.67
-86.66
-75.59
-56.21
-31.30
-4.81
19.36
38.43
51.19
57.84
59.39
57.01
51.75
44.51
36.23
27.99
20.85
15.68
12.94
12.63
14.29
17.20
20.48
23.30
24.96
25.02
23.40
20.33
16.22
11.54
6.76
2.29
-1.44
-4.06
-5.35
-5.32
-4.23
-2.51
-0.63
1.03
2.11
2.33
1.43
-0.72
-3.93
-7.79
-11.73
-15.19
-17.88
-19.85
-21.56
-23.80
-27.63
-34.08
-43.71
-56.10
-69.48
-80.94
-87.16
-85.54
-75.21
-57.37
-34.84
-11.07
10.97
29.48
43.86
54.24
60.86
63.68
62.42
56.95
47.79
36.38
24.91
15.88
11.40
12.60
19.20
29.46
40.46
48.82
51.58
47.13
35.68
19.30
1.30
-14.75
-25.96
-30.87
-29.69
-24.03
-16.49
-9.82
-6.32
-7.19
-12.31
-20.37
-29.44
-37.83
-44.74
-50.44
-55.92
-62.10
-69.10
-75.90
-80.56
-80.89
-75.31
-63.50
-46.51
-26.41
-5.66
13.60
29.89
42.33
50.48
54.19
53.57
49.20
42.26
34.45
27.62
23.21
21.80
23.00
25.77
28.88
31.44
33.09
33.94
34.23
34.01
32.98
30.66
26.59
20.62
13.04
4.49
-4.27
-12.56
-19.94
-26.27
-31.71
-36.73
-42.05
-48.51
-56.68
-66.45
-76.66
-85.20
-89.55
-87.72
-78.98
-64.20
-45.54
-25.69
-7.04
8.81
21.10
29.67
34.67
36.44
35.49
32.55
28.55
24.47
21.15
19.10
18.42
18.86
19.88
20.91
21.45
21.30
20.57
19.54
18.54
17.63
16.50
14.58
11.25
6.23
-0.28
-7.59
-14.79
-21.17
-26.53
-31.26
-36.24
-42.44
-50.57
-60.75
-72.38
-84.10
-94.00
-99.99
-100.29
-93.99
-81.40
-63.98
-43.97
-23.70
-5.04
10.96
24.02
34.35
42.25
47.88
51.28
52.55
52.07
50.52
48.79
47.65
47.53
48.38
49.72
50.94
51.56
51.47
50.84
49.97
48.96
47.54
45.19
41.29
35.53
28.02
19.37
10.41
1.88
-5.79
-12.58
-18.83
-25.01
-31.69
-39.41
-48.58
-59.34
-71.18
-82.84
-92.35
-97.47
-96.42
-88.56
-74.65
-56.66
-37.07
-18.06
-0.98
13.78
26.48
37.50
46.98
54.77
60.57
64.32
66.31
67.22
67.85
68.87
70.58
72.89
75.46
77.91
79.92
81.31
82.02
82.01
81.17
79.42
76.63
72.76
67.87
62.18
56.05
49.87
44.07
38.89
34.41
30.49
26.90
23.37
19.72
15.88
11.87
7.80
3.78
-0.05
-3.62
-6.96
-10.29
-14.00
-18.56
-24.37
-31.56
-39.80
-48.46
-56.73
-63.98
-69.95
-74.91
-79.64
-85.20
-92.67
-102.72
-115.27
-129.16
-142.18
-151.44
-154.11
-148.21
-133.36
-110.94
-83.83
-55.54
-29.29
-7.20
10.03
22.91
32.67
40.54
47.35
53.41
58.67
62.97
66.31
68.88
70.95
72.80
74.50
76.01
77.18
77.92
78.23
78.21
77.97
77.48
76.46
74.46
70.94
65.60
58.56
50.43
42.08
34.39
27.86
22.56
18.05
13.64
8.68
2.81
-3.96
-11.20
-18.31
-24.73
-30.26
-35.15
-40.08
-45.98
-53.75
-63.89
-76.26
-89.92
-103.05
-113.25
-118.05
-115.53
-105.03
-87.48
-65.25
-41.43
-19.05
-0.08
14.77
25.98
34.63
41.72
47.73
52.62
56.09
57.93
58.32
57.71
56.74
55.94
55.63
55.97
57.02
58.71
60.89
63.22
65.18
66.14
65.51
62.94
58.41
52.25
44.96
37.09
29.02
20.94
12.89
4.88
-3.01
-10.55
-17.46
-23.54
-28.86
-33.81
-39.06
-45.39
-53.48
-63.65
-75.54
-87.99
-99.03
-106.23
-107.32
-100.95
-87.16
-67.51
-44.66
-21.57
-0.67
16.66
30.11
40.11
47.37
52.45
55.68
57.24
57.39
56.60
55.51
54.79
54.87
55.81
57.27
58.65
59.38
59.06
57.64
55.31
52.32
48.92
45.17
40.98
36.16
30.51
23.88
16.25
7.83
-0.90
-9.31
-16.77
-22.93
-27.84
-32.00
-36.16
-41.10
-47.42
-55.36
-64.67
-74.47
-83.23
-88.93
-89.54
-83.64
-71.02
-52.89
-31.61
-10.04
9.29
24.78
35.96
43.21
47.32
49.07
48.97
47.42
44.84
41.81
39.09
37.44
37.25
38.42
40.33
42.13
43.06
42.81
41.46
39.38
36.86
33.90
30.21
25.40
19.25
11.94
4.03
-3.74
-10.67
-16.40
-20.99
-24.89
-28.80
-33.44
-39.44
-47.05
-56.09
-65.72
-74.51
-80.57
-82.00
-77.38
-66.36
-49.78
-29.64
-8.53
11.04
27.21
39.05
46.53
50.14
50.60
48.66
45.06
40.61
36.17
32.51
30.25
29.58
30.33
32.01
34.03
35.95
37.52
38.64
39.21
39.04
37.78
35.07
30.75
25.08
18.65
12.25
6.60
1.99
-1.67
-4.87
-8.18
-12.07
-16.73
-22.04
-27.63
-33.03
-37.75
-41.52
-44.37
-46.70
-49.28
-53.06
-58.77
-66.54
-75.58
-84.16
-89.94
-90.62
-84.64
-71.74
-53.08
-30.98
-8.25
12.42
29.06
40.71
47.27
49.37
47.97
44.12
38.88
33.23
28.10
24.28
22.38
22.59
24.70
28.13
32.05
35.62
38.19
39.38
39.09
37.46
34.77
31.32
27.43
23.28
19.03
14.75
10.60
6.75
3.35
0.42
-2.15
-4.56
-7.00
-9.55
-12.23
-15.00
-17.95
-21.15
-24.67
-28.44
-32.24
-35.80
-38.90
-41.58
-44.10
-46.83
-50.16
-54.40
-59.79
-66.30
-73.46
-80.11
-84.45
-84.42
-78.39
-65.91
-47.94
-26.78
-5.29
13.86
28.87
39.04
44.56
46.14
44.64
40.91
35.83
30.31
25.28
21.51
19.52
19.43
21.00
23.70
26.93
30.16
32.99
35.12
36.31
36.32
34.98
32.29
28.48
24.04
19.52
15.34
11.65
8.35
5.11
1.68
-2.03
-5.77
-9.18
-11.95
-14.00
-15.63
-17.24
-19.26
-21.81
-24.73
-27.62
-30.16
-32.18
-33.82
-35.35
-37.16
-39.57
-42.93
-47.55
-53.62
-60.90
-68.44
-74.49
-76.86
-73.63
-63.91
-48.31
-28.79
-8.06
11.26
27.22
38.77
45.65
48.12
46.73
42.30
35.92
28.89
22.47
17.63
14.88
14.23
15.36
17.81
21.11
24.76
28.30
31.22
33.12
33.82
33.29
31.69
29.21
25.96
22.07
17.66
12.98
8.35
4.06
0.25
-3.14
-6.19
-8.99
-11.50
-13.69
-15.63
-17.57
-19.89
-22.83
-26.35
-30.08
-33.51
-36.16
-37.94
-39.16
-40.53
-42.91
-46.93
-52.77
-59.84
-66.77
-71.62
-72.35
-67.44
-56.41
-40.12
-20.60
-0.53
17.49
31.63
41.09
46.01
47.10
45.19
41.02
35.24
28.61
22.08
16.67
13.28
12.32
13.52
16.16
19.26
22.08
24.25
25.78
26.85
27.52
27.64
26.87
24.87
21.48
16.87
11.55
6.21
1.52
-2.13
-4.72
-6.63
-8.40
-10.57
-13.37
-16.66
-20.06
-23.06
-25.33
-26.78
-27.65
-28.35
-29.43
-31.48
-34.97
-40.14
-46.71
-53.77
-59.76
-62.78
-61.14
-53.97
-41.54
-25.35
-7.66
9.13
23.09
33.15
39.09
41.34
40.55
37.42
32.54
26.50
19.98
13.85
9.01
6.19
5.71
7.38
10.60
14.61
18.64
22.20
24.85
26.26
26.13
24.21
20.58
15.76
10.54
5.80
2.00
-0.87
-3.35
-6.08
-9.45
-13.35
-17.34
-20.88
-23.65
-25.77
-27.70
-30.01
-33.24
-37.72
-43.49
-50.17
-56.83
-62.06
-64.08
-61.32
-52.94
-39.30
-22.00
-3.45
13.76
27.61
37.09
42.14
43.30
41.39
37.15
31.22
24.33
17.41
11.54
7.65
6.21
7.11
9.61
12.85
16.08
18.91
21.26
23.05
24.08
24.00
22.49
19.53
15.55
11.23
7.21
3.77
0.72
-2.46
-6.18
-10.60
-15.41
-20.09
-24.11
-27.27
-29.79
-32.24
-35.26
-39.38
-44.91
-51.78
-59.40
-66.64
-71.90
-73.32
-69.42
-59.56
-44.33
-25.56
-5.76
12.54
27.44
37.97
44.11
46.34
45.42
42.09
37.11
31.26
25.50
20.78
17.93
17.37
18.96
22.04
25.71
29.06
31.64
33.32
34.30
34.77
34.68
33.69
31.42
27.72
22.87
17.62
12.74
8.73
5.54
2.67
-0.55
-4.59
-9.47
-14.79
-19.92
-24.38
-28.02
-31.10
-34.18
-37.94
-42.94
-49.46
-57.25
-65.38
-72.30
-76.10
-75.05
-68.15
-55.56
-38.62
-19.50
-0.61
16.03
29.13
38.25
43.53
45.40
44.40
41.12
36.24
30.63
25.34
21.40
19.59
20.16
22.74
26.53
30.53
33.98
36.49
38.12
39.10
39.64
39.70
39.00
37.14
33.82
29.05
23.22
16.99
11.14
6.26
2.51
-0.42
-3.23
-6.62
-10.94
-16.00
-21.16
-25.72
-29.27
-32.00
-34.53
-37.69
-42.11
-48.00
-55.11
-62.77
-69.89
-75.03
-76.49
-72.75
-63.00
-47.62
-28.33
-7.80
11.23
26.66
37.50
43.81
46.23
45.55
42.46
37.59
31.75
25.98
21.38
18.88
18.87
21.07
24.62
28.55
32.00
34.63
36.56
38.11
39.54
40.66
40.98
39.85
36.88
32.14
26.19
19.92
14.11
9.28
5.48
2.37
-0.66
-4.12
-8.32
-13.08
-17.89
-22.15
-25.46
-27.88
-29.82
-31.97
-34.93
-39.13
-44.82
-52.00
-60.29
-68.60
-75.15
-77.62
-74.03
-63.50
-46.84
-26.52
-5.70
12.65
26.78
36.28
41.72
44.01
43.83
41.56
37.50
32.23
26.73
22.24
19.84
20.08
22.71
26.87
31.47
35.61
38.86
41.21
42.81
43.67
43.60
42.18
39.11
34.41
28.52
22.18
16.14
10.99
6.97
3.97
1.64
-0.47
-2.83
-5.83
-9.58
-13.96
-18.64
-23.13
-27.04
-30.15
-32.73
-35.35
-38.98
-44.46
-52.18
-61.62
-71.16
-78.43
-80.87
-76.74
-65.72
-49.11
-29.37
-9.32
8.64
23.00
33.25
39.50
42.20
41.91
39.22
34.83
29.61
24.62
20.94
19.45
20.54
23.95
28.83
34.02
38.49
41.64
43.42
44.21
44.37
44.08
43.14
41.17
37.88
33.24
27.63
21.70
16.18
11.57
8.03
5.33
2.93
0.28
-3.00
-7.00
-11.46
-16.01
-20.28
-24.07
-27.41
-30.55
-33.88
-37.87
-42.97
-49.43
-57.11
-65.18
-72.14
-76.02
-74.96
-67.91
-55.05
-37.90
-18.83
-0.34
15.62
27.95
36.38
41.11
42.46
40.80
36.61
30.68
24.18
18.47
14.73
13.68
15.37
19.19
24.19
29.35
33.85
37.19
39.15
39.72
38.96
36.95
33.77
29.56
24.52
19.02
13.52
8.46
4.04
0.13
-3.73
-8.07
-13.19
-18.99
-24.88
-30.13
-34.23
-37.23
-39.78
-42.88
-47.52
-54.22
-62.73
-71.86
-79.70
-84.02
-82.91
-75.44
-62.03
-44.37
-24.88
-6.04
10.33
23.28
32.67
38.71
41.77
42.14
40.21
36.64
32.35
28.46
25.94
25.41
26.93
30.11
34.22
38.49
42.29
45.25
47.23
48.22
48.15
46.86
44.06
39.61
33.64
26.70
19.62
13.25
8.09
4.05
0.54
-3.29
-8.11
-14.10
-20.87
-27.72
-33.86
-38.87
-42.71
-45.78
-48.77
-52.48
-57.71
-65.00
-74.37
-84.96
-94.91
-101.72
-102.81
-96.53
-82.78
-63.21
-40.73
-18.51
0.92
16.27
27.41
35.02
39.99
43.05
44.70
45.23
44.93
44.20
43.58
43.65
44.87
47.31
50.65
54.21
57.28
59.48
60.77
61.47
61.80
61.70
60.70
58.24
54.04
48.37
41.95
35.61
29.96
25.14
20.96
17.06
13.29
9.59
5.97
2.32
-1.57
-5.93
-10.80
-15.92
-20.92
-25.46
-29.47
-33.26
-37.30
-42.15
-48.25
-55.89
-65.18
-75.79
-86.74
-96.26
-101.97
-101.59
-93.80
-78.84
-58.55
-35.81
-13.69
5.52
20.63
31.50
38.65
42.74
44.36
44.05
42.35
39.97
37.72
36.40
36.51
38.18
41.17
44.99
49.09
52.93
56.12
58.34
59.39
59.18
57.75
55.19
51.65
47.27
42.16
36.50
30.61
24.90
19.80
15.58
12.19
9.33
6.49
3.18
-0.87
-5.65
-10.84
-15.93
-20.44
-24.05
-26.77
-28.93
-31.12
-33.95
-38.08
-44.03
-52.15
-62.28
-73.46
-83.81
-90.79
-91.91
-85.61
-71.95
-52.70
-30.75
-9.23
9.48
24.15
34.63
41.36
44.93
45.73
44.11
40.56
35.88
31.23
27.85
26.67
28.04
31.59
36.42
41.42
45.66
48.59
50.07
50.23
49.26
47.35
44.66
41.28
37.30
32.85
28.07
23.15
18.32
13.77
9.60
5.78
2.13
-1.54
-5.34
-9.32
-13.41
-17.58
-21.84
-26.18
-30.52
-34.74
-38.74
-42.60
-46.72
-51.82
-58.72
-67.97
-79.39
-91.79
-102.96
-110.17
-110.90
-103.76
-89.05
-68.70
-45.74
-23.25
-3.58
12.09
23.70
31.75
36.91
39.75
40.70
40.31
39.24
38.29
38.11
39.11
41.23
44.10
47.19
50.07
52.49
54.42
55.93
57.06
57.72
57.69
56.78
54.84
51.90
48.15
43.95
39.67
35.61
31.99
28.79
25.80
22.67
19.08
14.96
10.53
6.28
2.67
-0.09
-2.24
-4.38
-7.19
-11.18
-16.41
-22.53
-28.84
-34.69
-39.65
-43.77
-47.59
-51.97
-57.82
-65.74
-75.69
-86.77
-97.23
-104.80
-107.19
-102.82
-91.31
-73.76
-52.44
-30.26
-9.95
6.65
18.82
26.91
31.89
34.82
36.46
37.20
37.18
36.63
35.97
35.83
36.78
39.11
42.68
47.00
51.40
55.36
58.55
60.82
62.07
62.12
60.75
57.85
53.54
48.25
42.59
37.23
32.65
29.03
26.20
23.72
21.07
17.82
13.88
9.51
5.21
1.53
-1.21
-3.09
-4.60
-6.47
-9.33
-13.50
-18.80
-24.70
-30.57
-35.93
-40.65
-44.96
-49.39
-54.61
-61.19
-69.46
-79.20
-89.39
-98.16
-103.17
-102.20
-94.01
-78.97
-59.02
-37.10
-16.21
1.53
15.24
25.10
31.79
36.01
38.16
38.56
37.59
35.86
34.15
33.21
33.52
35.24
38.20
42.04
46.39
50.79
54.82
58.04
60.04
60.53
59.33
56.46
52.09
46.58
40.43
34.25
28.60
23.82
19.95
16.68
13.55
10.12
6.24
2.07
-1.97
-5.45
-8.25
-10.64
-13.14
-16.23
-20.09
-24.47
-28.87
-32.79
-36.10
-39.09
-42.41
-46.80
-52.84
-60.74
-70.19
-80.26
-89.35
-95.45
-96.44
-90.86
-78.37
-60.13
-38.53
-16.57
3.00
18.34
28.79
34.72
37.11
37.08
35.63
33.50
31.23
29.27
28.07
27.96
29.16
31.62
35.03
38.84
42.46
45.46
47.61
48.90
49.36
48.96
47.54
44.98
41.27
36.69
31.75
27.00
22.82
19.28
16.09
12.88
9.42
5.69
1.91
-1.68
-4.98
-8.09
-11.28
-14.76
-18.54
-22.50
-26.39
-29.99
-33.26
-36.31
-39.48
-43.27
-48.27
-55.04
-63.73
-73.81
-83.83
-91.58
-94.67
-91.24
-80.72
-64.12
-43.74
-22.50
-3.08
12.77
24.37
31.93
36.00
37.19
35.93
32.73
28.28
23.70
20.22
18.82
19.91
23.05
27.25
31.41
34.78
37.22
39.01
40.54
41.92
42.80
42.58
40.67
36.82
31.34
24.94
18.56
12.97
8.59
5.30
2.59
-0.24
-3.75
-8.13
-13.17
-18.34
-23.07
-26.94
-29.95
-32.41
-34.97
-38.41
-43.50
-50.68
-59.78
-69.79
-78.78
-84.38
-84.41
-77.75
-64.77
-47.29
-27.98
-9.48
6.38
18.82
27.88
34.03
37.67
38.96
38.05
35.19
31.07
26.79
23.56
22.42
23.78
27.33
32.19
37.18
41.32
43.99
45.15
45.06
44.08
42.43
40.08
36.84
32.50
27.06
20.83
14.41
8.43
3.39
-0.59
-3.82
-6.92
-10.52
-15.05
-20.56
-26.73
-33.06
-39.02
-44.30
-48.88
-53.07
-57.45
-62.76
-69.75
-78.77
-89.56
-100.93
-110.88
-117.09
-117.56
-111.25
-98.49
-80.76
-60.11
-38.70
-18.20
0.22
15.79
28.04
36.77
42.13
44.71
45.49
45.59
46.00
47.41
50.11
54.05
58.92
64.27
69.50
74.00
77.24
78.92
79.04
77.79
75.51
72.52
69.03
65.19
61.05
56.69
52.25
47.82
43.43
39.05
34.56
29.85
24.87
19.65
14.33
9.08
4.00
-0.95
-5.90
-11.12
-16.85
-23.19
-30.07
-37.29
-44.66
-52.22
-60.33
-69.67
-80.86
-93.91
-107.78
-120.33
-128.74
-130.42
-123.93
-109.52
-89.09
-65.57
-42.09
-21.14
-4.25
8.12
16.26
20.89
22.91
23.19
22.52
21.61
21.08
21.39
22.93
25.79
29.76
34.31
38.79
42.62
45.45
47.30
48.30
48.58
48.03
46.27
42.94
37.91
31.48
24.43
17.69
11.96
7.39
3.62
-0.06
-4.22
-9.03
-14.20
-19.18
-23.55
-27.21
-30.51
-34.10
-38.83
-45.35
-54.02
-64.50
-75.54
-85.02
-90.37
-89.38
-80.94
-65.60
-45.40
-23.27
-2.05
16.21
30.54
40.81
47.36
50.72
51.44
50.15
47.70
44.99
42.87
41.86
42.17
43.62
45.92
48.72
51.80
55.02
58.35
61.72
64.97
67.75
69.52
69.68
67.77
63.79
58.29
52.33
47.07
43.38
41.45
40.73
40.16
38.51
34.81
28.45
19.17
7.08
-7.50
-23.95
-41.46
-59.11
-76.20
-92.34
-107.39
-121.15
-132.91
-141.39
-144.87
-142.01
-132.42
-117.09
-98.20
-78.36
-59.82
-43.88
-30.83
-20.20
-11.30
-3.56
3.32
9.42
14.85
19.75
24.38
29.01
33.79
38.68
43.45
47.77
51.34
54.00
55.82
57.02
57.89
58.67
59.48
60.30
60.94
61.16
60.75
59.75
58.50
57.56
57.40
58.09
59.08
59.33
57.70
53.46
46.61
37.81
28.06
18.23
8.80
-0.23
-9.16
-18.34
-28.02
-38.20
-48.51
-58.09
-65.63
-69.57
-68.55
-61.98
-50.36
-35.22
-18.66
-2.76
10.97
21.72
29.31
33.87
35.68
35.11
32.79
29.55
26.46
24.44
24.07
25.43
28.08
31.30
34.39
36.78
38.17
38.44
37.59
35.59
32.39
27.93
22.23
15.47
8.03
0.37
-6.98
-13.73
-19.74
-25.17
-30.30
-35.33
-40.29
-44.90
-48.80
-51.62
-53.39
-54.51
-55.74
-58.00
-62.00
-67.90
-75.19
-82.64
-88.52
-91.08
-88.93
-81.47
-69.01
-52.63
-33.98
-14.83
3.16
18.77
31.24
40.35
46.32
49.61
50.86
50.72
49.81
48.71
48.00
48.18
49.55
52.06
55.27
58.47
60.96
62.33
62.51
61.72
60.18
58.03
55.24
51.69
47.45
42.77
37.99
33.43
29.16
25.01
20.70
