1520267119.00
64.000000
-0.00
-0.00
-0.00
-0.00
-0.00
-0.00
-0.00
-0.00
-0.00
-0.00
0.00
0.01
0.01
-0.00
-0.03
-0.05
-0.05
0.00
0.13
0.36
0.66
1.01
1.37
1.72
2.06
2.40
2.79
3.24
3.80
4.42
5.06
5.66
6.20
6.68
7.15
7.68
8.31
9.14
10.09
11.04
11.88
12.56
13.14
13.76
14.65
15.96
17.91
20.32
22.90
25.38
27.58
29.57
31.68
34.32
37.81
42.54
48.15
54.10
59.83
64.97
69.58
74.14
79.34
85.71
93.76
103.00
112.62
121.73
129.77
136.75
143.30
150.75
157.77
166.64
177.95
191.79
206.97
220.57
228.25
225.36
208.53
176.87
132.76
80.05
23.07
-34.94
-92.44
-149.16
-205.23
-260.37
-313.74
-363.87
-409.83
-450.91
-486.50
-515.74
-537.23
-549.22
-549.96
-538.37
-514.21
-478.67
-433.88
-382.45
-327.02
-269.84
-212.63
-156.66
-102.95
-52.37
-5.90
35.58
71.43
101.35
125.50
144.38
158.69
169.15
176.37
180.75
182.57
182.07
179.51
175.23
169.65
163.18
156.15
148.81
141.30
133.69
126.02
118.33
110.69
103.16
95.80
88.68
81.83
75.25
68.95
62.95
57.25
51.86
46.78
42.03
37.59
33.45
29.61
26.07
22.81
19.83
17.11
14.67
12.48
10.54
8.83
7.35
6.07
4.97
4.05
3.27
2.62
2.09
1.65
1.30
1.01
0.79
0.61
0.47
0.37
0.28
0.22
0.18
0.15
0.13
0.12
0.12
0.13
0.14
0.17
0.19
0.23
0.26
0.30
0.34
0.39
0.44
0.48
0.53
0.58
0.63
0.69
0.75
0.81
0.88
0.96
1.04
1.13
1.24
1.35
1.48
1.62
1.79
1.97
2.17
2.39
2.64
2.91
3.22
3.55
3.91
4.31
4.74
5.21
5.72
6.26
6.85
7.48
8.15
8.86
9.62
10.43
11.28
12.18
13.12
14.11
15.17
16.29
17.47
18.72
20.00
21.29
22.52
23.63
24.51
25.02
25.07
24.51
23.28
21.32
18.64
15.32
11.42
7.13
2.60
-1.99
-6.45
-10.60
-14.23
-17.19
-19.38
-20.76
-21.34
-21.28
-20.75
-19.90
-18.88
-17.75
-16.54
-15.20
-13.73
-12.14
-10.54
-9.06
-7.79
-6.74
-5.82
-4.85
-3.67
-2.15
-0.31
1.53
3.04
3.95
4.19
3.99
3.78
4.03
5.08
6.96
9.03
10.58
11.03
10.23
8.53
6.71
5.64
5.90
7.58
9.61
10.74
9.99
7.03
2.39
-2.84
-7.38
-10.33
-11.40
-11.82
-13.16
-17.19
-25.60
-39.56
-59.29
-83.76
-110.99
-133.04
-144.14
-140.72
-122.82
-94.21
-61.05
-29.57
-3.88
15.00
28.62
38.74
46.74
52.89
56.69
57.84
56.76
54.68
53.04
52.92
54.05
55.57
56.56
56.44
55.27
53.57
51.98
50.88
50.27
49.42
47.61
44.40
39.80
34.27
28.54
23.35
19.15
15.97
13.25
10.26
6.45
1.70
-3.58
-8.75
-13.24
-16.94
-20.18
-23.64
-27.89
-33.08
-38.93
-44.93
-50.57
-55.58
-59.99
-64.11
-68.40
-73.46
-79.91
-88.07
-97.55
-107.01
-114.14
-116.30
-111.41
-98.82
-79.67
-56.48
-32.41
-10.16
8.58
23.27
34.21
42.09
47.64
51.42
53.89
55.40
56.18
56.41
56.29
56.00
55.75
55.75
56.09
56.75
57.58
58.42
59.11
59.56
59.67
59.24
58.00
55.65
52.05
47.36
42.03
36.67
31.78
27.60
24.03
20.66
17.03
12.76
7.73
2.12
-3.63
-9.06
-13.80
-17.80
-21.38
-25.09
-29.54
-35.10
-41.73
-48.98
-56.23
-62.96
-68.91
-74.19
-79.21
-84.61
-91.10
-99.31
-109.43
-120.85
-131.94
-140.23
-143.07
-138.54
-126.24
-107.46
-84.91
-61.69
-40.46
-22.83
-9.29
0.45
6.98
10.89
12.61
12.48
10.85
8.13
4.78
1.28
-2.02
-5.00
-7.70
-10.26
-12.69
-14.77
-16.00
-15.83
-13.77
-9.61
-3.41
4.53
13.85
24.22
35.40
47.20
59.40
71.65
83.40
93.95
102.53
108.49
111.38
111.12
107.97
102.48
95.34
87.27
78.77
70.03
60.97
51.30
40.82
29.60
18.06
6.89
-3.27
-12.13
-19.86
-27.07
-34.64
-43.51
-54.33
-67.16
-81.13
-94.33
-104.07
-107.63
-103.13
-90.32
-70.78
-47.36
-23.27
-1.14
17.54
32.37
43.62
51.79
57.31
60.55
61.85
61.67
60.55
59.01
57.52
56.41
55.82
55.82
56.38
57.45
58.92
60.64
62.38
63.89
64.86
65.04
64.19
62.19
58.98
54.66
49.49
43.96
38.57
33.76
29.64
25.99
22.30
18.13
13.24
7.74
2.04
-3.38
-8.09
-11.92
-14.98
-17.69
-20.63
-24.43
-29.42
-35.60
-42.48
-49.35
-55.54
-60.72
-65.04
-69.11
-73.80
-79.97
-88.21
-98.47
-109.74
-120.02
-126.55
-126.60
-118.43
-102.07
-79.39
-53.55
-27.86
-4.86
14.22
29.28
40.82
49.42
55.41
59.03
60.53
60.42
59.36
58.08
57.15
56.89
57.36
58.41
59.76
61.13
62.28
63.13
63.72
64.07
64.18
63.86
62.80
60.65
57.21
52.51
46.94
41.04
35.40
30.42
26.18
22.41
18.71
14.72
10.33
5.73
1.33
-2.51
-5.68
-8.40
-11.15
-14.47
-18.76
-24.18
-30.54
-37.41
-44.23
-50.48
-55.82
-60.24
-64.08
-68.03
-72.98
-79.74
-88.74
-99.62
-111.06
-120.78
-126.11
-124.60
-114.96
-97.50
-74.16
-47.98
-22.14
0.81
19.48
33.62
43.75
50.73
55.39
58.31
59.89
60.42
60.22
59.63
59.04
58.73
58.86
59.40
60.23
61.24
62.42
63.78
65.26
66.64
67.46
67.21
65.48
62.18
57.54
52.01
46.15
40.44
35.28
30.89
27.35
24.51
22.07
19.60
16.68
13.08
8.82
4.19
-0.43
-4.72
-8.58
-12.21
-15.96
-20.24
-25.31
-31.21
-37.72
-44.42
-50.83
-56.59
-61.59
-66.00
-70.32
-75.24
-81.52
-89.67
-99.61
-110.38
-120.05
-126.06
-125.93
-118.08
-102.47
-80.73
-55.64
-30.34
-7.40
11.66
26.38
37.12
44.57
49.45
52.32
53.65
53.88
53.50
53.02
52.89
53.44
54.72
56.61
58.83
61.06
63.10
64.81
66.13
66.98
67.23
66.69
65.17
62.56
58.84
54.16
48.83
43.28
38.00
33.38
29.49
26.13
22.91
19.40
15.41
11.07
6.73
2.78
-0.52
-3.22
-5.70
-8.49
-12.17
-17.13
-23.37
-30.51
-37.88
-44.75
-50.59
-55.29
-59.11
-62.64
-66.62
-71.78
-78.67
-87.49
-97.64
-107.59
-115.00
-117.20
-112.18
-99.32
-79.82
-56.32
-32.08
-9.91
8.47
22.61
32.91
40.14
45.04
48.11
49.75
50.34
50.31
50.11
50.14
50.69
51.80
53.30
54.92
56.34
57.41
58.16
58.75
59.33
59.85
60.05
59.56
58.06
55.41
51.73
47.33
42.59
37.81
33.25
29.03
25.22
21.75
18.51
15.27
11.82
8.06
4.03
-0.07
-3.93
-7.34
-10.26
-12.91
-15.69
-19.04
-23.25
-28.31
-33.95
-39.69
-45.07
-49.78
-53.82
-57.50
-61.44
-66.42
-73.07
-81.57
-91.19
-100.25
-106.33
-107.07
-100.93
-87.87
-69.41
-48.09
-26.69
-7.42
8.49
20.74
29.63
35.72
39.65
41.99
43.31
44.10
44.77
45.53
46.43
47.36
48.18
48.81
49.30
49.77
50.38
51.18
52.05
52.73
52.95
52.45
51.14
49.01
46.09
42.46
38.25
33.71
29.23
25.20
21.83
19.05
16.51
13.75
10.44
6.54
2.33
-1.73
-5.20
-7.92
-10.09
-12.21
-14.93
-18.71
-23.62
-29.31
-35.14
-40.50
-45.07
-48.89
-52.31
-55.81
-59.89
-64.97
-71.40
-79.22
-87.93
-96.25
-102.25
-103.71
-98.97
-87.57
-70.59
-50.31
-29.57
-10.74
4.74
16.54
25.15
31.28
35.54
38.21
39.46
39.56
38.99
38.38
38.31
39.00
40.32
41.84
43.07
43.77
43.94
43.86
43.81
43.89
43.92
43.46
42.00
39.18
34.93
29.61
23.84
18.35
13.68
9.97
6.90
3.88
0.27
-4.35
-9.96
-16.16
-22.43
-28.36
-33.86
-39.23
-45.04
-51.82
-59.88
-69.13
-79.13
-89.23
-98.84
-107.57
-115.45
-122.80
-130.19
-138.18
-147.04
-156.40
-165.02
-170.75
-170.97
-163.29
-146.44
-120.79
-88.39
-52.41
-16.23
17.37
46.71
71.15
90.80
106.17
117.82
126.27
131.97
135.29
136.46
135.75
133.48
130.07
126.08
122.02
118.21
114.77
111.59
108.57
105.56
102.47
99.13
95.26
90.53
84.69
77.81
70.31
62.84
56.07
50.37
45.67
41.54
37.37
32.68
27.28
21.35
15.33
9.71
4.82
0.66
-3.08
-6.92
-11.29
-16.43
-22.23
-28.34
-34.29
-39.73
-44.44
-48.54
-52.36
-56.41
-61.35
-67.71
-75.61
-84.53
-93.10
-99.40
-101.42
-97.74
-88.09
-73.43
-55.68
-37.09
-19.65
-4.58
7.71
17.46
25.28
31.74
37.23
41.90
45.75
48.78
50.99
52.52
53.51
54.08
54.28
54.14
53.75
53.21
52.62
52.00
51.26
50.20
48.64
46.43
43.54
40.08
36.21
32.22
28.42
25.09
22.35
20.07
17.94
15.51
12.46
8.71
4.46
0.13
-3.82
-7.19
-10.09
-12.92
-16.23
-20.41
-25.41
-30.80
-35.89
-40.13
-43.37
-45.95
-48.57
-52.01
-56.82
-63.19
-70.83
-78.87
-85.96
-90.32
-90.29
-84.75
-73.73
-58.45
-41.07
-23.96
-8.96
3.07
12.26
19.35
25.24
30.57
35.58
40.22
44.29
47.59
50.05
51.67
52.57
52.85
52.63
52.05
51.28
50.50
49.83
49.34
48.94
48.43
47.51
45.93
43.47
40.14
36.11
31.74
27.52
23.92
21.22
19.39
18.09
16.75
14.85
12.05
8.42
4.32
0.25
-3.43
-6.65
-9.68
-12.88
-16.62
-20.97
-25.77
-30.68
-35.37
-39.59
-43.33
-46.78
-50.25
-54.16
-58.92
-64.84
-71.98
-79.92
-87.71
-93.86
-96.75
-95.00
-88.00
-76.16
-60.86
-44.01
-27.58
-13.00
-0.89
8.86
16.90
23.92
30.42
36.54
42.14
46.90
50.55
52.99
54.29
54.66
54.35
53.59
52.53
51.32
50.09
48.92
47.90
46.98
46.08
44.99
43.52
41.47
38.73
35.35
31.56
27.74
24.28
21.45
19.23
17.30
15.19
12.49
9.07
5.17
1.20
-2.40
-5.42
-7.96
-10.31
-12.89
-16.06
-19.96
-24.57
-29.66
-34.91
-39.99
-44.68
-48.92
-52.81
-56.61
-60.73
-65.56
-71.36
-78.00
-84.77
-90.29
-92.88
-90.98
-83.83
-71.86
-56.64
-40.32
-24.98
-11.94
-1.58
6.51
13.09
18.85
24.20
29.19
33.68
37.48
40.45
42.59
44.01
44.87
45.33
45.43
45.21
44.70
44.05
43.45
43.10
42.98
42.88
42.40
41.14
38.92
35.89
32.40
28.90
25.78
23.19
21.15
19.47
17.91
16.15
13.88
10.91
7.26
3.21
-0.80
-4.35
-7.24
-9.60
-11.84
-14.52
-18.04
-22.50
-27.65
-32.96
-37.86
-41.95
-45.20
-47.89
-50.49
-53.53
-57.49
-62.67
-69.11
-76.43
-83.71
-89.48
-92.05
-90.08
-83.09
-71.72
-57.59
-42.69
-28.73
-16.65
-6.58
1.96
9.56
16.70
23.54
29.98
35.79
40.70
44.52
47.17
48.77
49.61
50.01
50.26
50.50
50.69
50.70
50.42
49.83
48.95
47.85
46.49
44.80
42.68
40.12
37.18
34.08
31.06
28.26
25.74
23.45
21.23
18.99
16.66
14.22
11.68
9.03
6.25
3.29
0.14
-3.19
-6.70
-10.40
-14.35
-18.58
-23.07
-27.68
-32.17
-36.24
-39.70
-42.53
-44.90
-47.08
-49.44
-52.41
-56.48
-62.07
-69.32
-77.75
-86.11
-92.55
-95.11
-92.43
-84.23
-71.51
-56.14
-40.28
-25.68
-13.30
-3.29
4.82
11.68
17.95
23.96
29.74
35.08
39.63
43.10
45.38
46.57
46.90
46.74
46.41
46.17
46.15
46.38
46.72
46.99
46.97
46.42
45.21
43.26
40.60
37.36
33.79
30.21
26.94
24.20
21.97
20.09
18.25
16.22
13.90
11.34
8.72
6.16
3.76
1.53
-0.54
-2.56
-4.69
-7.18
-10.29
-14.13
-18.63
-23.49
-28.25
-32.48
-35.95
-38.70
-41.02
-43.35
-46.17
-49.92
-54.91
-61.22
-68.56
-76.11
-82.56
-86.28
-85.83
-80.40
-70.20
-56.47
-41.07
-25.96
-12.54
-1.42
7.50
14.78
20.99
26.53
31.51
35.86
39.51
42.47
44.83
46.73
48.27
49.54
50.58
51.40
51.99
52.35
52.43
52.14
51.40
50.11
48.28
45.97
43.35
40.63
38.00
35.62
33.50
31.55
29.55
27.27
24.62
21.66
18.64
15.83
13.35
11.14
8.92
6.35
3.26
-0.30
-4.07
-7.71
-11.04
-14.12
-17.25
-20.78
-24.93
-29.63
-34.58
-39.36
-43.68
-47.43
-50.79
-54.11
-57.84
-62.44
-68.27
-75.40
-83.36
-91.05
-96.78
-98.71
-95.49
-86.80
-73.55
-57.58
-41.08
-25.88
-13.00
-2.57
5.90
13.15
19.79
26.14
32.28
38.03
43.22
47.64
51.10
53.52
54.90
55.37
55.25
54.93
54.76
54.91
55.32
55.70
55.68
54.98
53.47
51.22
48.43
45.30
42.02
38.76
35.64
32.74
30.06
27.56
25.16
22.81
20.47
18.15
15.83
13.45
10.88
7.96
4.58
0.75
-3.38
-7.55
-11.52
-15.22
-18.74
-22.38
-26.40
-30.87
-35.60
-40.25
-44.48
-48.15
-51.46
-54.87
-58.95
-64.17
-70.79
-78.68
-87.19
-95.07
-100.69
-102.33
-98.76
-89.67
-75.93
-59.33
-42.02
-25.89
-12.10
-0.95
7.91
15.20
21.60
27.59
33.32
38.64
43.29
46.97
49.63
51.37
52.51
53.37
54.22
55.10
55.91
56.48
56.68
56.44
55.78
54.71
53.30
51.55
49.47
47.05
44.34
41.43
38.47
35.57
32.79
30.12
27.53
25.03
22.67
20.53
18.54
16.48
14.03
10.93
7.17
2.99
-1.20
-5.06
-8.49
-11.70
-15.09
-19.05
-23.73
-29.00
-34.49
-39.77
-44.58
-48.87
-52.85
-56.93
-61.61
-67.39
-74.53
-82.83
-91.42
-98.74
-102.83
-101.98
-95.26
-83.05
-66.90
-49.09
-31.86
-16.75
-4.33
5.67
13.96
21.23
27.91
34.09
39.62
44.36
48.21
51.22
53.57
55.43
56.92
58.12
59.03
59.66
60.07
60.33
60.49
60.47
60.09
59.06
57.17
54.37
50.85
46.96
43.06
39.44
36.19
33.25
30.48
27.78
25.14
22.64
20.36
18.30
16.31
14.15
11.57
8.44
4.83
0.99
-2.73
-6.06
-9.00
-11.76
-14.77
-18.40
-22.82
-27.91
-33.30
-38.54
-43.26
-47.32
-50.84
-54.24
-58.10
-63.08
-69.69
-77.92
-87.08
-95.68
-101.76
-103.36
-99.23
-89.25
-74.53
-57.07
-39.07
-22.47
-8.41
2.79
11.45
18.29
24.08
29.41
34.58
39.56
44.12
47.97
50.87
52.79
53.81
54.16
54.06
53.76
53.50
53.46
53.72
54.16
54.43
54.06
52.66
50.10
46.51
42.32
38.03
34.04
30.57
27.62
25.07
22.80
20.72
18.73
16.72
14.54
12.04
9.13
5.81
2.21
-1.47
-4.97
-8.07
-10.68
-12.90
-15.02
-17.39
-20.31
-23.80
-27.64
-31.44
-34.79
-37.51
-39.70
-41.76
-44.23
-47.71
-52.63
-59.17
-66.93
-74.88
-81.38
-84.61
-83.06
-76.10
-64.25
-49.05
-32.57
-16.77
-2.98
8.22
16.99
23.85
29.39
34.03
37.90
40.96
43.17
44.60
45.46
46.08
46.73
47.53
48.48
49.47
50.42
51.28
51.96
52.34
52.21
51.36
49.65
47.14
44.00
40.54
37.06
33.81
30.92
28.40
26.13
23.96
21.75
19.42
17.00
14.59
12.20
9.79
7.22
4.40
1.28
-2.04
-5.39
-8.68
-11.92
-15.25
-18.90
-23.01
-27.59
-32.45
-37.27
-41.72
-45.58
-48.85
-51.75
-54.70
-58.27
-63.03
-69.32
-77.12
-85.73
-93.78
-99.41
-100.82
-96.78
-87.18
-73.14
-56.60
-39.80
-24.52
-11.73
-1.51
6.72
13.78
20.39
26.92
33.35
39.36
44.46
48.30
50.78
52.14
52.78
53.11
53.36
53.53
53.52
53.23
52.67
51.90
50.99
49.88
48.42
46.39
43.69
40.43
36.86
33.34
30.13
27.30
24.69
21.99
18.88
15.18
10.98
6.51
2.14
-1.90
-5.61
-9.19
-12.97
-17.21
-22.01
-27.30
-32.98
-38.93
-45.16
-51.69
-58.55
-65.66
-72.84
-79.83
-86.42
-92.53
-98.24
-103.88
-109.97
-117.14
-125.93
-136.49
-148.27
-159.87
-169.17
-173.78
-171.69
-161.87
-144.56
-121.22
-94.07
-65.43
-37.18
-10.44
14.34
37.16
58.04
76.84
93.21
106.69
116.93
123.77
127.44
128.38
127.27
124.84
121.78
118.59
115.58
112.83
110.27
107.71
104.94
101.76
98.02
93.66
88.74
83.39
77.82
72.25
66.88
61.80
57.02
52.49
48.16
43.93
39.70
35.34
30.79
26.06
21.27
16.63
12.36
8.56
5.20
2.03
-1.25
-4.92
-9.15
-13.89
-18.94
-24.03
-28.87
-33.27
-37.17
-40.65
-43.96
-47.48
-51.64
-56.94
-63.70
-71.80
-80.49
-88.33
-93.47
-94.20
-89.53
-79.61
-65.68
-49.71
-33.74
-19.28
-7.09
2.82
10.86
17.56
23.32
28.37
32.80
36.70
40.13
43.14
45.77
47.92
49.49
50.35
50.55
50.30
49.91
49.70
49.75
49.93
49.88
49.26
47.81
45.55
42.70
39.60
36.61
33.92
31.59
29.52
27.57
25.59
23.49
21.25
18.86
16.32
13.58
10.59
7.31
3.82
0.29
-3.06
-6.04
-8.60
-10.86
-13.06
-15.53
-18.56
-22.31
-26.74
-31.61
-36.50
-40.98
-44.73
-47.71
-50.17
-52.67
-55.96
-60.65
-67.16
-75.30
-84.16
-92.16
-97.32
-97.84
-92.72
-82.13
-67.46
-50.79
-34.34
-19.72
-7.71
1.74
9.16
15.26
20.63
25.63
30.40
34.91
39.03
42.57
45.40
47.45
48.74
49.37
49.50
49.30
48.96
48.60
48.33
48.12
47.81
47.14
45.79
43.56
40.47
36.77
32.90
29.32
26.36
24.06
22.26
20.66
18.96
17.02
14.92
12.83
10.94
9.34
7.90
6.38
4.51
2.10
-0.79
-3.89
-6.85
-9.43
-11.67
-13.90
-16.57
-20.03
-24.25
-28.78
-32.93
-36.09
-38.06
-39.20
-40.38
-42.62
-46.72
-52.80
-60.22
-67.56
-72.99
-74.75
-71.59
-63.21
-50.34
-34.54
-17.69
-1.41
13.36
26.50
38.45
49.66
60.12
68.87
74.20
74.13
67.30
53.97
36.51
19.15
6.73
2.95
8.90
22.60
39.88
55.98
67.27
72.22
71.26
65.94
58.05
48.96
39.69
31.04
23.78
18.58
15.67
14.66
14.48
13.79
11.27
6.10
-1.83
-12.02
-23.45
-34.99
-45.59
-54.28
-60.27
-63.10
-62.83
-60.15
-56.21
-52.33
-49.49
-48.14
-48.12
-48.81
-49.36
-48.90
-46.77
-42.74
-37.21
-31.28
-26.42
-23.92
-24.45
-27.85
-33.46
-40.57
-48.64
-57.10
-64.82
-70.05
-70.87
-66.09
-55.99
-42.49
-28.50
-16.77
-8.88
-4.80
-3.22
-2.36
-0.94
1.19
2.97
2.55
-1.95
-11.54
-25.82
-42.91
-60.06
-74.53
-84.54
-89.78
-91.28
-90.73
-89.63
-88.74
-88.05
-87.14
-85.86
-84.77
-84.89
-87.09
-91.28
-96.20
-99.75
-99.95
-95.89
-88.29
-79.32
-71.88
-68.63
-71.23
-80.04
-94.11
-111.56
-129.96
-147.00
-161.03
-171.48
-178.85
-184.30
-188.91
-192.97
-195.62
-195.14
-189.51
-177.37
-158.38
-133.43
-104.15
-72.33
-39.34
-5.87
28.12
63.29
100.57
140.56
182.85
225.42
264.73
296.59
317.56
326.30
324.09
314.26
300.62
285.89
270.95
255.28
238.14
219.72
201.31
184.60
170.54
158.58
147.06
134.22
119.29
102.87
86.47
71.36
57.61
43.98
28.65
10.55
-9.72
-29.68
-45.98
-55.68
-57.54
-52.32
-42.29
-30.11
-17.82
-6.31
4.35
14.45
23.94
32.35
39.03
43.59
46.15
47.22
47.38
46.85
45.43
42.65
38.20
32.19
25.15
17.85
11.01
5.07
0.34
-2.90
-4.18
-2.89
1.55
9.32
20.06
32.79
46.13
58.64
69.18
77.06
82.22
84.97
85.88
85.55
84.45
82.88
80.99
78.79
76.24
73.22
69.66
65.53
60.91
55.90
50.64
45.32
40.14
35.41
31.41
28.36
26.23
24.64
23.06
20.95
18.10
14.73
11.40
8.69
6.87
5.74
4.65
2.81
-0.42
-5.28
-11.54
-18.63
-25.77
-32.19
-37.22
-40.41
-41.70
-41.43
-40.34
-39.37
-39.45
-41.12
-44.37
-48.56
-52.61
-55.29
-55.58
-52.90
-47.27
-39.28
-29.92
-20.31
-11.37
-3.62
2.85
8.27
12.95
17.10
20.71
23.62
25.66
26.79
27.09
26.79
26.12
25.24
24.21
22.99
21.42
19.22
16.10
11.79
6.16
-0.70
-8.51
-16.73
-24.71
-31.81
-37.57
-41.84
-44.84
-46.97
-48.73
-50.50
-52.59
-55.19
-58.49
-62.57
-67.26
-71.94
-75.62
-77.26
-76.15
-72.33
-66.50
-59.80
-53.29
-47.68
-43.17
-39.64
-36.80
-34.22
-31.39
-27.64
-22.42
-15.39
-6.73
2.92
12.68
21.70
29.49
36.02
41.57
46.49
51.04
55.27
59.02
62.10
64.38
65.89
66.77
67.24
67.46
67.55
67.51
67.30
66.92
66.33
65.55
64.52
63.14
61.30
58.91
55.94
52.46
48.66
44.75
40.96
37.41
34.11
30.94
27.76
24.43
20.94
17.35
13.70
9.99
6.14
2.08
-2.30
-6.95
-11.83
-16.90
-22.27
-28.07
-34.34
-40.78
-46.69
-51.03
-52.82
-51.52
-47.23
-40.73
-33.11
-25.37
-18.19
-11.84
-6.33
-1.60
2.37
5.63
8.31
10.72
13.23
16.14
19.49
23.01
26.17
28.45
29.49
29.27
28.10
26.41
24.63
22.96
21.36
19.62
17.52
14.96
12.02
8.92
5.94
3.27
0.94
-1.16
-3.24
-5.44
-7.80
-10.20
-12.51
-14.69
-16.86
-19.27
-22.13
-25.50
-29.30
-33.44
-38.10
-43.70
-50.86
-59.97
-70.83
-82.48
-93.33
-101.55
-105.61
-104.80
-99.33
-90.22
-79.00
-67.16
-55.87
-45.75
-36.97
-29.36
-22.63
-16.55
-10.97
-5.84
-1.20
2.90
6.44
9.42
11.91
13.98
15.74
17.29
18.72
20.11
21.52
22.94
24.36
25.67
26.74
27.39
27.49
26.98
25.93
24.50
22.87
21.23
19.62
18.06
16.45
14.71
12.79
10.68
8.35
5.77
2.87
-0.36
-3.92
-7.66
-11.45
-15.18
-18.91
-22.79
-27.10
-32.11
-37.95
-44.46
-51.15
-57.16
-61.50
-63.20
-61.67
-56.88
-49.37
-40.15
-30.37
-21.02
-12.74
-5.72
0.19
5.31
9.92
14.16
17.99
21.34
24.19
26.65
28.97
31.33
33.75
36.04
37.89
39.05
39.44
39.21
38.56
37.67
36.57
35.21
33.54
31.61
29.51
27.34
25.13
22.76
20.14
17.25
14.21
11.19
8.36
5.72
3.13
0.31
-2.96
-6.74
-10.88
-15.06
-18.95
-22.39
-25.44
-28.48
-32.05
-36.66
-42.51
-49.32
-56.36
-62.52
-66.66
-67.86
-65.75
-60.48
-52.77
-43.65
-34.21
-25.37
-17.67
-11.20
-5.74
-0.90
3.63
7.99
12.11
15.84
19.01
21.50
23.28
24.41
25.01
25.29
25.52
25.95
26.69
27.70
28.69
29.30
29.20
28.28
26.64
24.53
22.18
19.73
17.17
14.46
11.56
8.54
5.50
2.52
-0.41
-3.42
-6.66
-10.19
-13.93
-17.67
-21.18
-24.31
-27.10
-29.71
-32.38
-35.30
-38.60
-42.34
-46.59
-51.46
-57.01
-63.05
-68.97
-73.63
-75.71
-74.06
-68.18
-58.55
-46.43
-33.45
-21.11
-10.28
-1.16
6.57
13.36
19.55
25.13
29.92
33.70
36.39
38.14
39.23
39.98
40.57
41.08
41.48
41.78
42.07
42.49
43.14
43.91
44.51
44.51
43.58
41.65
38.95
35.85
32.70
29.62
26.52
23.22
19.57
15.63
11.59
7.65
3.90
0.28
-3.38
-7.19
-11.15
-15.18
-19.12
-22.86
-26.34
-29.61
-32.77
-36.04
-39.67
-43.94
-49.08
-55.18
-62.01
-68.94
-74.92
-78.66
-78.94
-75.05
-67.02
-55.73
-42.58
-29.12
-16.55
-5.51
3.93
12.05
19.21
25.62
31.28
36.14
40.15
43.38
46.00
48.20
50.10
51.72
53.01
53.97
54.64
55.12
55.50
55.77
55.79
55.32
54.14
52.06
49.09
45.37
41.18
36.87
32.73
28.98
25.65
22.60
19.60
16.44
13.03
9.42
5.79
2.31
-0.98
-4.21
-7.64
-11.53
-16.04
-21.06
-26.30
-31.40
-36.07
-40.25
-44.12
-48.07
-52.56
-57.92
-64.21
-71.07
-77.68
-82.84
-85.19
-83.62
-77.60
-67.40
-54.13
-39.41
-24.91
-11.96
-1.26
7.11
13.57
18.63
22.72
26.04
28.63
30.51
31.80
32.81
33.87
35.27
37.07
39.16
41.29
43.24
44.94
46.36
47.51
48.26
48.35
47.44
45.29
41.94
37.77
33.43
29.57
26.61
24.55
22.93
21.10
18.48
14.86
10.48
5.91
1.76
-1.55
-4.02
-5.97
-7.94
-10.42
-13.71
-17.78
-22.37
-27.09
-31.64
-35.94
-40.20
-44.76
-50.00
-56.08
-62.77
-69.42
-74.96
-78.10
-77.68
-73.02
-64.20
-52.11
-38.22
-24.12
-11.04
0.38
10.05
18.18
24.95
30.44
34.61
37.54
39.55
41.09
42.63
44.42
46.46
48.55
50.42
51.90
52.88
53.35
53.27
52.64
51.45
49.74
47.59
45.08
42.27
39.13
35.64
31.81
27.80
23.88
20.32
17.21
14.40
11.56
8.37
4.70
0.73
-3.16
-6.57
-9.31
-11.55
-13.71
-16.28
-19.59
-23.66
-28.21
-32.82
-37.08
-40.82
-44.11
-47.30
-50.87
-55.35
-61.06
-67.93
-75.40
-82.35
-87.31
-88.77
-85.71
-77.90
-66.11
-51.87
-37.00
-23.11
-11.12
-1.23
6.88
13.74
19.75
25.06
29.64
33.44
36.53
39.10
41.40
43.60
45.72
47.64
49.16
50.16
50.63
50.72
50.59
50.37
50.03
49.40
48.24
46.37
43.78
40.68
37.43
34.35
31.65
29.35
27.30
25.27
23.06
20.48
17.44
13.90
9.94
5.80
1.77
-1.84
-4.98
-7.83
-10.77
-14.21
-18.33
-23.04
-28.00
-32.86
-37.36
-41.54
-45.63
-50.06
-55.25
-61.50
-68.72
-76.38
-83.46
-88.60
-90.46
-88.16
-81.53
-71.21
-58.46
-44.75
-31.34
-19.04
-8.19
1.28
9.53
16.70
22.80
27.79
31.63
34.49
36.64
38.45
40.26
42.22
44.32
46.39
48.23
49.66
50.58
50.96
50.79
50.12
48.95
47.29
45.07
42.22
38.77
34.88
30.92
27.32
24.41
22.24
20.54
18.82
16.63
13.78
10.43
6.97
3.84
1.25
-0.92
-3.08
-5.76
-9.38
-14.01
-19.35
-24.83
-29.88
-34.12
-37.58
-40.58
-43.67
-47.39
-52.16
-58.14
-65.14
-72.53
-79.20
-83.73
-84.70
-81.16
-72.94
-60.79
-46.20
-30.97
-16.68
-4.39
5.54
13.33
19.54
24.72
29.23
33.14
36.36
38.82
40.60
42.00
43.37
44.89
46.49
47.87
48.71
48.85
48.39
47.58
46.68
45.79
44.81
43.51
41.62
38.97
35.63
31.83
27.95
24.37
21.32
18.80
16.59
14.35
11.84
8.97
5.86
2.73
-0.24
-2.99
-5.60
-8.30
-11.31
-14.79
-18.81
-23.26
-27.95
-32.64
-37.09
-41.16
-44.85
-48.32
-51.94
-56.24
-61.71
-68.54
-76.35
-84.06
-90.04
-92.56
-90.36
-83.11
-71.57
-57.30
-42.17
-27.82
-15.21
-4.64
4.13
11.59
18.20
24.23
29.73
34.63
38.82
42.24
44.90
46.89
48.34
49.41
50.28
51.14
52.14
53.28
54.41
55.18
55.21
54.25
52.33
49.67
46.62
43.42
40.17
36.87
33.57
30.42
27.60
25.23
23.20
21.18
18.79
15.78
12.20
8.32
4.48
0.93
-2.32
-5.50
-8.89
-12.74
-17.17
-22.10
-27.34
-32.58
-37.54
-42.02
-45.91
-49.28
-52.39
-55.66
-59.58
-64.60
-70.79
-77.66
-84.07
-88.48
-89.32
-85.57
-77.18
-65.04
-50.73
-36.04
-22.37
-10.50
-0.54
7.79
14.91
21.10
26.46
30.94
34.48
37.14
39.16
40.89
42.58
44.35
46.03
47.34
48.06
48.21
48.01
47.83
47.89
48.11
48.16
47.55
45.96
43.35
40.02
36.47
33.15
30.31
27.96
25.88
23.77
21.36
18.50
15.18
11.58
7.96
4.64
1.83
-0.45
-2.44
-4.57
-7.31
-10.95
-15.45
-20.46
-25.39
-29.72
-33.24
-36.08
-38.73
-41.79
-45.87
-51.30
-58.06
-65.64
-73.04
-78.83
-81.57
-80.13
-74.17
-64.30
-51.94
-38.86
-26.63
-16.17
-7.64
-0.66
5.39
10.94
16.11
20.73
24.53
27.37
29.32
30.64
31.66
32.58
33.44
34.13
34.49
34.44
33.93
32.98
31.58
29.71
27.37
24.57
21.39
17.98
14.57
11.38
8.69
6.69
5.45
4.87
4.67
4.47
3.94
2.89
1.34
-0.49
-2.39
-4.17
-5.80
-7.47
-9.43
-11.97
-15.25
-19.19
-23.54
-27.97
-32.13
-35.84
-39.08
-42.00
-44.85
-47.96
-51.72
-56.40
-62.00
-68.02
-73.41
-76.76
-76.66
-72.19
-63.32
-50.96
-36.69
-22.29
-9.15
2.04
11.32
19.21
26.35
33.14
39.55
45.27
49.94
53.39
55.75
57.43
58.89
60.43
62.14
63.95
65.74
67.36
68.63
69.31
68.99
67.21
63.60
58.12
51.11
43.27
35.53
28.71
23.37
19.65
17.30
15.86
14.81
13.76
12.54
11.15
9.79
8.65
7.84
7.29
6.69
5.57
3.42
-0.13
-5.11
-11.18
-17.71
-23.93
-29.29
-33.56
-36.99
-40.16
-43.80
-48.55
-54.68
-61.89
-69.25
-75.36
-78.73
-78.14
-73.14
-64.15
-52.38
-39.43
-26.77
-15.40
-5.67
2.65
10.02
16.86
23.30
29.12
33.98
37.57
39.88
41.21
41.99
42.63
43.36
44.10
44.71
45.08
45.24
45.35
45.49
45.60
45.37
44.43
42.51
39.62
36.06
32.36
28.97
26.15
23.85
21.75
19.47
16.68
13.30
9.52
5.67
2.10
-0.96
-3.54
-5.90
-8.43
-11.43
-15.02
-19.06
-23.24
-27.21
-30.77
-33.98
-37.13
-40.67
-45.02
-50.49
-57.10
-64.45
-71.67
-77.51
-80.59
-79.85
-74.85
-65.99
-54.42
-41.62
-28.96
-17.39
-7.25
1.60
9.48
16.72
23.41
29.44
34.56
38.58
41.46
43.39
44.73
45.82
46.92
48.04
49.06
49.81
50.16
50.15
49.83
49.27
48.41
47.17
45.44
43.17
40.44
37.40
34.26
31.16
28.14
25.09
21.85
18.27
14.29
10.06
5.88
2.12
-0.95
-3.25
-5.05
-6.82
-9.09
-12.25
-16.36
-21.13
-26.08
-30.76
-34.95
-38.70
-42.24
-45.87
-49.86
-54.44
-59.73
-65.64
-71.73
-77.09
-80.44
-80.53
-76.59
-68.73
-57.93
-45.72
-33.64
-22.76
-13.46
-5.53
1.53
8.19
14.72
21.14
27.28
32.85
37.63
41.45
44.30
46.28
47.54
48.27
48.66
48.88
49.06
49.25
49.41
49.36
48.90
47.88
46.28
44.17
41.74
39.15
36.47
33.68
30.76
27.73
24.70
21.80
19.09
16.53
13.97
11.29
8.43
5.51
2.73
0.28
-1.82
-3.72
-5.78
-8.38
-11.79
-16.02
-20.73
-25.42
-29.60
-33.06
-35.93
-38.68
-41.79
-45.65
-50.37
-55.82
-61.71
-67.63
-72.94
-76.75
-78.03
-75.88
-69.97
-60.78
-49.59
-37.99
-27.40
-18.48
-11.10
-4.55
1.94
8.81
15.91
22.73
28.61
33.15
36.35
38.56
40.30
41.96
43.69
45.34
46.66
47.48
47.84
47.93
47.90
47.71
47.18
46.03
44.15
41.67
38.94
36.35
34.13
32.28
30.60
28.82
26.76
24.37
21.72
18.93
16.13
13.37
10.70
8.16
5.71
3.32
0.93
-1.51
-4.07
-6.80
-9.77
-13.03
-16.61
-20.45
-24.41
-28.32
-31.98
-35.27
-38.20
-40.87
-43.57
-46.61
-50.34
-54.96
-60.41
-66.25
-71.63
-75.43
-76.51
-74.16
-68.27
-59.51
-49.04
-38.21
-28.17
-19.56
-12.46
-6.55
-1.30
3.76
8.87
13.99
18.85
23.13
26.52
28.94
30.52
31.57
32.43
33.36
34.47
35.70
36.98
38.17
39.14
39.74
39.73
38.94
37.28
34.92
32.19
29.57
27.43
25.85
24.70
23.63
22.39
20.84
19.05
17.13
15.15
13.09
10.87
8.42
5.76
2.98
0.20
-2.53
-5.22
-7.94
-10.77
-13.81
-17.04
-20.43
-23.87
-27.19
-30.22
-32.85
-35.08
-37.09
-39.27
-42.03
-45.76
-50.53
-55.96
-61.23
-65.18
-66.63
-64.82
-59.61
-51.61
-41.96
-31.97
-22.72
-14.88
-8.59
-3.58
0.62
4.48
8.35
12.31
16.25
19.92
23.09
25.61
27.54
29.00
30.11
30.98
31.64
32.14
32.55
32.98
33.44
33.84
33.92
33.44
32.23
30.29
27.87
25.27
22.80
20.59
18.65
16.81
14.95
13.07
11.34
10.04
9.44
9.56
10.24
11.12
11.80
11.99
11.60
10.64
9.18
7.23
4.83
1.92
-1.49
-5.39
-9.75
-14.47
-19.35
-24.15
-28.61
-32.57
-36.10
-39.46
-43.07
-47.35
-52.50
-58.36
-64.35
-69.49
-72.65
-72.87
-69.69
-63.36
-54.76
-45.15
-35.72
-27.27
-20.05
-13.94
-8.62
-3.80
0.68
4.88
8.87
12.71
16.48
20.24
23.93
27.43
30.60
33.25
35.29
36.71
37.65
38.29
38.81
39.28
39.63
39.69
39.32
38.45
37.15
35.52
33.66
31.67
29.67
27.72
25.86
24.00
22.05
19.92
17.68
15.53
13.73
12.37
11.25
9.99
8.17
5.65
2.68
-0.29
-2.77
-4.55
-5.77
-6.81
-8.14
-10.12
-12.92
-16.42
-20.25
-23.87
-26.68
-28.33
-28.86
-28.89
-29.45
-31.60
-35.92
-42.12
-48.87
-54.16
-55.97
-53.02
-45.30
-34.19
-21.83
-10.31
-0.84
6.72
13.45
20.67
29.08
38.20
46.54
52.21
53.86
51.25
45.25
37.28
28.58
19.55
9.58
-2.82
-19.49
-42.23
-72.16
-108.98
-150.15
-190.34
-221.88
-236.67
-228.97
-198.27
-150.31
-95.74
-46.45
-11.40
6.18
8.93
2.93
-5.51
-12.41
-16.69
-19.03
-20.23
-20.29
-18.68
-15.33
-11.32
-8.59
-9.06
-13.23
-19.77
-25.92
-28.82
-26.81
-20.23
-11.19
-2.58
3.04
4.34
1.48
-4.08
-10.09
-14.08
-13.99
-8.76
1.35
14.78
29.28
42.76
54.19
63.98
73.73
85.45
100.68
119.88
142.29
166.24
189.66
210.62
227.73
240.24
248.07
251.70
252.04
250.11
246.76
242.39
236.78
229.21
218.81
204.96
187.68
167.83
146.79
125.91
106.03
87.21
68.93
50.48
31.30
11.06
-10.48
-33.54
-58.08
-83.45
-108.10
-129.75
-145.95
-154.95
-156.33
-151.05
-141.02
-128.39
-114.97
-101.96
-89.88
-78.85
-68.63
-58.93
-49.37
-39.68
-29.67
-19.33
-8.97
0.57
7.90
11.21
8.93
0.46
-13.25
-29.98
-47.11
-62.82
-76.87
-90.46
-105.06
-121.21
-137.72
-152.05
-161.51
-164.53
-161.28
-153.41
-142.95
-131.43
-119.46
-107.15
-94.75
-83.08
-73.49
-67.24
-64.82
-65.64
-68.28
-70.99
-72.42
-71.86
-69.25
-64.93
-59.24
-52.34
-44.13
-34.63
-24.09
-13.15
-2.52
7.46
17.24
28.00
41.06
57.00
75.10
93.52
110.09
123.39
133.32
141.00
147.84
154.56
160.67
164.67
164.95
160.62
151.97
140.16
126.69
112.73
98.83
84.99
71.09
57.14
43.39
30.18
17.73
6.14
-4.42
-13.43
-19.96
-22.88
-21.41
-15.63
-6.63
3.73
13.38
20.74
25.14
26.93
27.13
26.97
27.40
28.80
30.96
33.31
35.20
36.15
36.06
35.17
33.99
33.06
32.88
33.67
35.31
37.22
38.41
37.73
34.20
27.38
17.60
5.91
-6.27
-17.61
-27.24
-34.91
-40.81
-45.36
-48.92
-51.71
-53.90
