1520863001.00
64.000000
-0.00
-0.00
-0.00
-0.00
-0.00
-0.00
-0.00
-0.00
-0.00
-0.00
0.00
0.01
0.01
-0.00
-0.03
-0.05
-0.05
0.00
0.13
0.36
0.66
1.01
1.37
1.72
2.06
2.40
2.79
3.24
3.80
4.42
5.06
5.66
6.20
6.68
7.15
7.68
8.31
9.14
10.09
11.04
11.88
12.56
13.14
13.76
14.65
15.96
17.91
20.32
22.90
25.38
27.58
29.57
31.68
34.32
37.81
42.54
48.15
54.10
59.83
64.97
69.58
74.14
79.34
85.71
93.76
103.00
112.62
121.73
129.77
136.75
143.30
150.75
157.77
166.64
177.95
191.79
206.97
220.57
228.25
225.36
208.53
176.87
132.76
80.05
23.07
-34.94
-92.44
-149.16
-205.23
-260.37
-313.74
-363.87
-409.83
-450.91
-486.50
-515.74
-537.23
-549.22
-549.96
-538.37
-514.21
-478.68
-433.88
-382.45
-327.02
-269.84
-212.63
-156.65
-102.93
-52.33
-5.85
35.67
71.54
101.51
125.70
144.62
158.99
169.50
176.78
181.22
183.10
182.66
180.16
175.96
170.45
164.05
157.10
149.84
142.43
134.92
127.36
119.80
112.29
104.92
97.74
90.81
84.17
77.83
71.81
66.10
60.73
55.70
51.02
46.71
42.75
39.14
35.87
32.95
30.36
28.09
26.15
24.53
23.23
22.24
21.53
21.11
20.95
21.04
21.36
21.89
22.64
23.59
24.72
26.01
27.40
28.85
30.26
31.51
32.45
32.93
32.78
31.87
30.09
27.42
23.86
19.47
14.41
8.90
3.17
-2.49
-7.84
-12.63
-16.69
-19.88
-22.15
-23.50
-23.98
-23.72
-22.83
-21.46
-19.73
-17.76
-15.64
-13.43
-11.14
-8.82
-6.49
-4.14
-1.77
0.65
3.12
5.67
8.32
11.11
13.99
16.92
19.89
22.90
25.95
29.06
32.27
35.63
39.25
43.03
46.95
51.00
55.21
59.60
64.23
69.15
74.44
80.22
86.29
92.56
98.93
105.33
111.70
117.94
124.07
130.07
136.06
141.76
146.96
151.48
155.06
157.40
158.05
156.41
151.64
145.38
138.21
130.52
122.56
114.44
106.21
97.90
89.54
81.30
73.45
65.93
58.78
52.00
45.47
39.00
32.36
25.41
18.24
11.13
4.24
-2.22
-8.21
-13.92
-19.78
-26.29
-33.76
-42.15
-50.98
-59.77
-68.01
-75.51
-82.62
-90.06
-98.71
-109.17
-121.48
-135.07
-149.14
-162.91
-175.99
-188.57
-201.30
-215.10
-231.03
-250.12
-273.00
-299.43
-327.58
-353.91
-373.75
-382.73
-378.40
-361.24
-334.50
-302.88
-270.73
-240.77
-213.79
-189.35
-166.84
-146.13
-127.56
-111.41
-97.49
-84.99
-72.95
-60.73
-48.38
-36.52
-26.07
-17.63
-11.26
-6.44
-2.35
1.73
6.06
10.34
13.88
15.94
16.12
14.56
11.92
9.29
7.73
8.08
10.65
15.19
21.01
27.28
33.28
38.59
43.15
47.07
50.51
53.47
55.79
57.25
57.70
57.25
56.20
55.01
54.05
53.53
53.38
53.41
53.36
53.03
52.34
51.28
49.82
47.85
45.29
42.07
38.25
33.99
29.51
25.01
20.61
16.29
11.95
7.45
2.59
-2.73
-8.42
-14.11
-19.11
-22.63
-23.93
-22.68
-19.01
-13.52
-7.03
-0.36
5.91
11.47
16.23
20.17
23.30
25.60
27.11
27.96
28.40
28.71
29.19
29.96
30.99
32.08
33.00
33.59
33.82
33.85
33.84
33.84
33.74
33.23
31.92
29.51
25.93
21.39
16.30
11.16
6.37
2.12
-1.67
-5.29
-9.12
-13.48
-18.51
-24.05
-29.62
-34.47
-37.69
-38.47
-36.32
-31.30
-24.04
-15.59
-7.03
0.79
7.48
13.02
17.53
21.08
23.59
24.93
25.11
24.39
23.27
22.28
21.75
21.69
21.80
21.68
21.00
19.70
17.97
16.18
14.62
13.36
12.27
10.97
9.11
6.49
3.17
-0.53
-4.20
-7.47
-10.17
-12.39
-14.44
-16.75
-19.70
-23.50
-28.13
-33.21
-38.08
-41.87
-43.69
-42.86
-39.09
-32.62
-24.13
-14.59
-4.95
4.05
11.96
18.64
24.07
28.31
31.40
33.42
34.58
35.20
35.63
36.17
36.93
37.86
38.76
39.46
39.79
39.72
39.25
38.40
37.24
35.82
34.21
32.39
30.29
27.76
24.62
20.81
16.47
11.91
7.52
3.55
-0.01
-3.45
-7.25
-11.82
-17.34
-23.66
-30.28
-36.43
-41.30
-44.12
-44.40
-41.93
-36.91
-29.88
-21.59
-12.86
-4.43
3.13
9.48
14.49
18.20
20.75
22.39
23.42
24.14
24.87
25.82
27.10
28.70
30.42
32.04
33.35
34.17
34.45
34.17
33.32
31.85
29.73
26.96
23.59
19.75
15.63
11.42
7.30
3.40
-0.25
-3.69
-7.04
-10.46
-14.13
-18.15
-22.54
-27.13
-31.56
-35.25
-37.53
-37.81
-35.75
-31.40
-25.26
-18.08
-10.65
-3.62
2.62
7.89
12.12
15.19
17.01
17.52
16.88
15.47
13.86
12.59
11.99
12.05
12.48
12.92
13.12
13.07
12.92
12.87
12.93
12.89
12.44
11.34
9.53
7.18
4.61
2.09
-0.27
-2.53
-4.97
-7.96
-11.85
-16.73
-22.35
-28.00
-32.63
-35.18
-34.93
-31.74
-26.11
-18.94
-11.21
-3.78
2.78
8.11
11.93
14.17
14.91
14.50
13.48
12.36
11.46
10.86
10.46
10.12
9.78
9.47
9.30
9.25
9.28
9.22
8.93
8.26
7.08
5.33
2.95
0.02
-3.37
-7.00
-10.74
-14.59
-18.68
-23.26
-28.57
-34.64
-41.14
-47.37
-52.31
-54.94
-54.49
-50.74
-44.10
-35.46
-25.93
-16.50
-7.93
-0.61
5.31
9.83
13.06
15.23
16.58
17.43
18.05
18.65
19.37
20.24
21.22
22.19
22.99
23.44
23.43
22.98
22.20
21.16
19.81
17.98
15.42
12.04
7.92
3.41
-1.10
-5.37
-9.46
-13.74
-18.68
-24.56
-31.31
-38.39
-44.88
-49.75
-52.10
-51.33
-47.35
-40.58
-31.90
-22.36
-12.99
-4.50
2.77
8.77
13.68
17.65
20.78
23.14
24.83
26.07
27.11
28.16
29.29
30.42
31.37
31.96
32.15
32.04
31.85
31.80
31.99
32.25
32.19
31.25
29.01
25.33
20.47
15.00
9.53
4.46
-0.17
-4.68
-9.56
-15.23
-21.87
-29.35
-37.21
-44.63
-50.63
-54.20
-54.52
-51.30
-44.81
-35.90
-25.75
-15.47
-5.93
2.41
9.40
15.04
19.38
22.49
24.50
25.65
26.27
26.79
27.51
28.53
29.77
30.94
31.77
32.07
31.85
31.23
30.40
29.48
28.41
27.06
25.16
22.56
19.16
15.07
10.53
5.88
1.44
-2.61
-6.29
-9.87
-13.71
-18.20
-23.58
-29.77
-36.32
-42.47
-47.24
-49.70
-49.22
-45.60
-39.18
-30.72
-21.16
-11.41
-2.14
6.18
13.27
18.93
23.07
25.74
27.22
28.01
28.69
29.75
31.46
33.75
36.29
38.57
40.13
40.66
40.11
38.61
36.49
34.07
31.55
28.97
26.13
22.76
18.65
13.80
8.48
3.09
-1.99
-6.55
-10.63
-14.46
-18.38
-22.77
-27.87
-33.78
-40.38
-47.25
-53.68
-58.71
-61.37
-60.97
-57.36
-51.04
-42.94
-34.23
-25.80
-18.17
-11.40
-5.37
0.03
4.76
8.64
11.56
13.61
15.15
16.67
18.57
21.01
23.80
26.59
28.93
30.58
31.43
31.58
31.17
30.32
29.06
27.41
25.33
22.83
19.95
16.73
13.27
9.67
6.03
2.46
-0.98
-4.32
-7.64
-11.06
-14.70
-18.68
-23.07
-27.88
-32.96
-37.90
-42.05
-44.57
-44.69
-41.96
-36.43
-28.65
-19.60
-10.33
-1.77
5.51
11.29
15.64
18.75
20.81
22.02
22.58
22.76
22.86
23.19
23.94
25.09
26.42
27.58
28.28
28.35
27.78
26.70
25.28
23.70
22.12
20.60
19.11
17.46
15.43
12.83
9.58
5.80
1.76
-2.28
-6.09
-9.67
-13.11
-16.64
-20.48
-24.86
-29.83
-35.23
-40.57
-45.07
-47.83
-48.00
-45.15
-39.41
-31.47
-22.35
-13.16
-4.75
2.45
8.33
13.08
16.86
19.78
21.87
23.18
23.88
24.28
24.77
25.63
26.93
28.48
29.96
31.07
31.67
31.75
31.43
30.79
29.90
28.76
27.37
25.74
23.84
21.65
19.08
16.11
12.73
9.05
5.22
1.46
-2.09
-5.36
-8.42
-11.45
-14.68
-18.37
-22.64
-27.42
-32.34
-36.74
-39.77
-40.61
-38.75
-34.19
-27.43
-19.41
-11.17
-3.61
2.76
7.76
11.51
14.19
15.95
16.87
17.11
16.88
16.55
16.50
17.04
18.28
20.11
22.25
24.31
25.96
26.95
27.21
26.81
25.96
24.84
23.56
22.07
20.23
17.87
14.94
11.61
8.17
4.93
2.08
-0.39
-2.72
-5.26
-8.36
-12.28
-17.08
-22.58
-28.34
-33.67
-37.79
-39.99
-39.78
-37.07
-32.18
-25.72
-18.48
-11.23
-4.60
1.02
5.45
8.72
10.97
12.40
13.25
13.77
14.24
14.93
16.00
17.48
19.25
21.07
22.68
23.91
24.70
25.10
25.17
24.95
24.36
23.33
21.76
19.62
16.95
13.90
10.63
7.33
4.15
1.16
-1.63
-4.30
-7.03
-10.07
-13.68
-18.07
-23.24
-28.92
-34.55
-39.35
-42.53
-43.46
-41.84
-37.75
-31.68
-24.34
-16.51
-8.93
-2.14
3.55
7.97
11.14
13.19
14.33
14.85
15.04
15.22
15.56
16.15
16.93
17.80
18.67
19.47
20.17
20.77
21.22
21.40
21.20
20.51
19.30
17.63
15.63
13.39
10.96
8.31
5.36
2.11
-1.33
-4.78
-8.02
-10.97
-13.71
-16.51
-19.74
-23.67
-28.34
-33.46
-38.39
-42.27
-44.29
-43.86
-40.85
-35.61
-28.83
-21.33
-13.84
-6.88
-0.77
4.30
8.27
11.12
13.00
14.18
14.99
15.76
16.68
17.80
19.06
20.39
21.71
22.96
24.07
24.92
25.43
25.52
25.17
24.39
23.24
21.74
19.99
18.08
16.08
14.03
11.85
9.43
6.71
3.71
0.61
-2.35
-4.98
-7.33
-9.64
-12.30
-15.68
-19.94
-25.03
-30.54
-35.88
-40.27
-42.97
-43.37
-41.24
-36.74
-30.40
-22.99
-15.28
-7.89
-1.31
4.18
8.40
11.25
12.90
13.65
13.94
14.22
14.75
15.59
16.65
17.81
18.99
20.20
21.43
22.64
23.63
24.15
24.00
23.12
21.66
19.88
18.09
16.50
15.15
13.85
12.33
10.30
7.60
4.32
0.71
-2.87
-6.13
-8.97
-11.49
-13.97
-16.82
-20.35
-24.67
-29.57
-34.45
-38.48
-40.78
-40.75
-38.21
-33.48
-27.25
-20.30
-13.28
-6.65
-0.61
4.78
9.52
13.66
17.22
20.20
22.57
24.30
25.38
25.93
26.15
26.35
26.75
27.37
28.00
28.32
28.08
27.30
26.23
25.20
24.42
23.77
22.95
21.60
19.58
17.04
14.36
11.93
9.91
8.15
6.32
4.08
1.30
-1.91
-5.30
-8.68
-12.07
-15.62
-19.57
-23.92
-28.35
-32.24
-34.88
-35.70
-34.48
-31.38
-26.81
-21.34
-15.49
-9.71
-4.34
0.36
4.21
7.17
9.27
10.64
11.49
12.00
12.36
12.76
13.35
14.23
15.44
16.86
18.31
19.61
20.64
21.33
21.67
21.66
21.28
20.45
19.16
17.40
15.21
12.63
9.74
6.67
3.57
0.57
-2.23
-4.83
-7.28
-9.72
-12.25
-14.99
-18.10
-21.73
-25.98
-30.70
-35.44
-39.40
-41.72
-41.76
-39.36
-34.88
-29.07
-22.74
-16.55
-10.81
-5.59
-0.84
3.46
7.20
10.21
12.39
13.80
14.70
15.49
16.47
17.80
19.35
20.89
22.17
23.12
23.79
24.34
24.86
25.30
25.49
25.23
24.38
22.97
21.09
18.94
16.61
14.13
11.46
8.58
5.55
2.48
-0.51
-3.34
-6.07
-8.86
-11.97
-15.60
-19.82
-24.49
-29.20
-33.35
-36.24
-37.26
-36.02
-32.51
-27.12
-20.56
-13.67
-7.18
-1.62
2.78
5.98
8.07
9.23
9.67
9.68
9.59
9.73
10.37
11.58
13.25
15.10
16.83
18.17
18.95
19.12
18.74
17.97
16.96
15.87
14.76
13.61
12.24
10.52
8.36
5.82
3.03
0.19
-2.54
-5.12
-7.60
-10.16
-13.00
-16.33
-20.28
-24.82
-29.65
-34.25
-37.90
-39.90
-39.77
-37.36
-32.94
-27.07
-20.46
-13.83
-7.74
-2.59
1.44
4.30
6.08
7.00
7.32
7.31
7.29
7.50
8.08
9.06
10.34
11.71
12.96
13.95
14.63
15.05
15.23
15.09
14.51
13.31
11.41
8.91
6.04
3.07
0.22
-2.45
-5.07
-7.80
-10.82
-14.27
-18.14
-22.34
-26.56
-30.31
-32.99
-34.00
-32.94
-29.79
-24.92
-18.99
-12.74
-6.82
-1.64
2.58
5.77
7.91
9.05
9.34
9.00
8.35
7.72
7.35
7.37
7.78
8.49
9.34
10.16
10.82
11.24
11.41
11.31
10.93
10.13
8.77
6.73
4.04
0.89
-2.39
-5.51
-8.28
-10.71
-12.97
-15.32
-18.03
-21.28
-25.13
-29.49
-34.02
-38.23
-41.43
-42.99
-42.45
-39.62
-34.76
-28.39
-21.22
-13.92
-7.05
-0.97
4.13
8.14
11.06
12.91
13.84
14.12
14.10
14.18
14.65
15.59
16.84
18.10
19.06
19.52
19.51
19.18
18.72
18.23
17.67
16.85
15.56
13.66
11.14
8.13
4.83
1.45
-1.84
-4.96
-7.93
-10.90
-14.10
-17.80
-22.20
-27.24
-32.57
-37.53
-41.26
-42.94
-41.99
-38.33
-32.39
-24.96
-17.02
-9.43
-2.77
2.74
7.15
10.65
13.44
15.64
17.30
18.48
19.29
19.88
20.40
20.97
21.62
22.30
22.91
23.36
23.57
23.54
23.27
22.76
21.98
20.88
19.42
17.61
15.50
13.10
10.43
7.54
4.49
1.39
-1.60
-4.46
-7.25
-10.21
-13.63
-17.73
-22.55
-27.84
-33.09
-37.58
-40.52
-41.21
-39.27
-34.77
-28.25
-20.62
-12.86
-5.75
0.32
5.33
9.43
12.76
15.32
17.07
17.99
18.29
18.38
18.68
19.46
20.73
22.26
23.70
24.77
25.31
25.39
25.13
24.61
23.88
22.91
21.62
19.99
18.03
15.77
13.27
10.62
7.90
5.22
2.66
0.21
-2.22
-4.80
-7.69
-11.00
-14.79
-19.05
-23.70
-28.59
-33.38
-37.57
-40.45
-41.32
-39.70
-35.53
-29.29
-21.78
-13.96
-6.62
-0.21
5.05
9.14
12.07
13.83
14.51
14.33
13.68
13.09
13.03
13.71
15.06
16.71
18.21
19.25
19.70
19.67
19.37
18.91
18.27
17.27
15.74
13.57
10.88
7.93
5.01
2.33
-0.04
-2.11
-4.03
-5.98
-8.20
-10.94
-14.43
-18.73
-23.63
-28.56
-32.68
-35.07
-35.02
-32.31
-27.25
-20.60
-13.28
-6.14
0.24
5.61
9.92
13.20
15.44
16.62
16.79
16.17
15.17
14.30
14.03
14.53
15.70
17.15
18.45
19.28
19.57
19.41
18.95
18.27
17.33
16.01
14.21
11.91
9.17
6.14
2.95
-0.31
-3.52
-6.64
-9.64
-12.63
-15.82
-19.49
-23.87
-28.88
-34.10
-38.70
-41.68
-42.18
-39.77
-34.64
-27.53
-19.49
-11.53
-4.37
1.67
6.54
10.35
13.23
15.27
16.63
17.46
18.03
18.57
19.25
20.11
21.11
22.10
22.92
23.42
23.52
23.21
22.62
21.89
21.12
20.30
19.27
17.82
15.80
13.24
10.29
7.18
4.13
1.24
-1.47
-4.10
-6.76
-9.61
-12.86
-16.73
-21.35
-26.61
-32.09
-37.02
-40.48
-41.64
-40.01
-35.65
-29.11
-21.32
-13.30
-5.88
0.46
5.57
9.57
12.63
14.91
16.48
17.39
17.76
17.84
17.98
18.49
19.51
20.97
22.61
24.08
25.14
25.69
25.78
25.53
25.08
24.44
23.58
22.40
20.87
18.96
16.72
14.20
11.51
8.71
5.87
3.00
0.12
-2.72
-5.43
-8.00
-10.49
-13.16
-16.40
-20.52
-25.54
-31.05
-36.19
-39.94
-41.42
-40.14
-36.19
-30.14
-22.81
-15.09
-7.76
-1.37
3.81
7.73
10.51
12.36
13.57
14.38
15.03
15.69
16.48
17.46
18.60
19.86
21.12
22.28
23.26
24.01
24.46
24.55
24.22
23.38
22.03
20.21
18.09
15.89
13.78
11.84
10.01
8.13
6.04
3.66
1.01
-1.78
-4.57
-7.25
-9.80
-12.32
-15.02
-18.13
-21.77
-25.93
-30.28
-34.22
-37.03
-38.02
-36.76
-33.23
-27.80
-21.12
-13.93
-6.96
-0.73
4.44
8.41
11.27
13.16
14.31
14.95
15.29
15.51
15.79
16.29
17.15
18.43
20.04
21.81
23.43
24.64
25.29
25.38
25.03
24.37
23.46
22.28
20.82
19.02
16.93
14.56
11.97
9.20
6.26
3.21
0.16
-2.74
-5.35
-7.62
-9.66
-11.75
-14.27
-17.55
-21.71
-26.56
-31.52
-35.73
-38.26
-38.39
-35.83
-30.86
-24.23
-16.94
-9.91
-3.83
1.01
4.62
7.16
8.75
9.47
9.40
8.68
7.63
6.62
6.06
6.15
6.89
8.11
9.54
10.94
12.19
13.23
14.07
14.64
14.82
14.45
13.39
11.61
9.24
6.50
3.65
0.92
-1.58
-3.85
-6.01
-8.24
-10.78
-13.81
-17.42
-21.50
-25.73
-29.58
-32.43
-33.74
-33.16
-30.65
-26.48
-21.16
-15.27
-9.41
-4.01
0.68
4.53
7.53
9.63
10.79
11.02
10.46
9.43
8.41
7.94
8.32
9.60
11.55
13.74
15.75
17.23
18.02
18.08
17.53
16.54
15.27
13.86
12.31
10.55
8.45
5.95
3.06
-0.10
-3.38
-6.64
-9.77
-12.72
-15.51
-18.29
-21.27
-24.74
-28.81
-33.29
-37.59
-40.80
-41.96
-40.46
-36.24
-29.90
-22.41
-14.77
-7.80
-1.88
2.92
6.73
9.69
11.83
13.11
13.53
13.24
12.56
11.92
11.73
12.15
13.06
14.15
15.05
15.58
15.76
15.78
15.82
15.88
15.80
15.32
14.22
12.48
10.18
7.51
4.64
1.68
-1.29
-4.21
-7.04
-9.80
-12.58
-15.57
-18.98
-22.89
-27.13
-31.29
-34.78
-36.94
-37.25
-35.43
-31.56
-26.02
-19.42
-12.42
-5.68
0.31
5.18
8.72
10.94
11.95
12.06
11.66
11.14
10.82
10.90
11.41
12.30
13.40
14.52
15.44
15.97
16.04
15.71
15.16
14.57
14.00
13.35
12.41
10.95
8.88
6.26
3.29
0.21
-2.85
-5.79
-8.65
-11.49
-14.39
-17.49
-20.96
-24.86
-29.04
-33.15
-36.53
-38.50
-38.53
-36.43
-32.40
-26.94
-20.62
-14.00
-7.53
-1.55
3.61
7.68
10.48
11.99
12.43
12.15
11.64
11.36
11.64
12.59
14.15
16.07
17.98
19.54
20.52
20.86
20.71
20.28
19.77
19.19
18.38
17.11
15.17
12.54
9.41
6.12
2.98
0.17
-2.37
-4.87
-7.66
-10.98
-14.96
-19.50
-24.34
-29.05
-33.13
-36.07
-37.39
-36.78
-34.15
-29.65
-23.76
-17.12
-10.54
-4.67
-0.02
3.30
5.43
6.67
7.36
7.79
8.08
8.33
8.65
9.16
9.95
11.02
12.25
13.41
14.30
14.78
14.85
14.58
14.03
13.19
11.91
10.04
7.54
4.52
1.30
-1.81
-4.57
-6.97
-9.27
-11.85
-15.01
-18.89
-23.29
-27.76
-31.66
-34.32
-35.19
-33.96
-30.64
-25.56
-19.34
-12.72
-6.34
-0.69
3.97
7.59
10.18
11.79
12.51
12.53
12.12
11.63
11.41
11.68
12.46
13.64
15.00
16.28
17.29
17.86
17.90
17.41
16.45
15.17
13.69
12.09
10.31
8.27
5.86
3.07
0.01
-3.16
-6.30
-9.34
-12.31
-15.29
-18.39
-21.75
-25.47
-29.61
-34.07
-38.47
-42.20
-44.49
-44.66
-42.36
-37.73
-31.35
-24.04
-16.60
-9.63
-3.42
1.92
6.34
9.80
12.25
13.71
14.36
14.51
14.58
14.88
15.57
16.63
17.88
19.12
20.19
21.04
21.65
22.07
22.26
22.21
21.78
20.87
19.38
17.27
14.59
11.50
8.22
5.01
2.05
-0.58
-2.94
-5.17
-7.45
-9.96
-12.85
-16.27
-20.37
-25.17
-30.49
-35.85
-40.47
-43.37
-43.77
-41.27
-36.09
-28.99
-21.05
-13.28
-6.38
-0.58
4.25
8.37
12.02
15.24
17.97
20.09
21.63
22.77
23.77
24.85
26.08
27.34
28.41
29.11
29.39
29.35
29.17
28.94
28.60
27.98
26.86
25.11
22.81
20.18
17.51
15.03
12.76
10.56
8.20
5.49
2.41
-0.90
-4.20
-7.30
-10.15
-12.94
-15.96
-19.58
-24.01
-29.17
-34.66
-39.72
-43.43
-44.99
-43.87
-40.06
-34.02
-26.55
-18.54
-10.82
-3.94
1.78
6.29
9.65
12.05
13.73
14.97
16.00
17.04
18.22
19.60
21.16
22.85
24.52
26.06
27.36
28.39
29.16
29.74
30.13
30.30
30.15
29.53
28.37
26.69
24.63
22.43
20.27
18.17
16.00
13.56
10.64
7.27
3.66
0.18
-2.94
-5.63
-8.11
-10.74
-13.85
-17.59
-21.91
-26.60
-31.31
-35.59
-38.91
-40.69
-40.41
-37.81
-33.01
-26.52
-19.16
-11.77
-5.03
0.67
5.24
8.76
11.37
13.23
14.49
15.35
16.00
16.66
17.48
18.50
19.68
20.94
22.19
23.33
24.32
25.09
25.61
25.85
25.78
25.39
24.63
23.44
21.78
19.71
17.38
15.03
12.89
11.00
9.23
7.34
5.07
2.37
-0.63
-3.65
-6.49
-9.11
-11.74
-14.74
-18.43
-22.95
-28.13
-33.53
-38.54
-42.47
-44.64
-44.52
-41.89
-36.89
-30.08
-22.31
-14.50
-7.40
-1.47
3.19
6.65
9.09
10.67
11.51
11.81
11.84
11.95
12.47
13.54
15.13
17.02
18.91
20.53
21.72
22.44
22.69
22.50
21.89
20.88
19.55
17.90
15.98
13.77
11.26
8.44
5.40
2.27
-0.80
-3.70
-6.39
-8.88
-11.22
-13.45
-15.71
-18.19
-21.13
-24.68
-28.75
-32.88
-36.30
-38.16
-37.76
-34.89
-29.89
-23.48
-16.53
-9.78
-3.73
1.42
5.59
8.76
10.95
12.23
12.78
12.87
12.84
12.94
13.30
13.92
14.71
15.53
16.31
17.01
17.60
18.04
18.25
18.14
17.61
16.63
15.26
13.62
11.85
10.05
8.23
6.31
4.17
1.75
-0.94
-3.79
-6.66
-9.40
-11.99
-14.59
-17.47
-20.95
-25.25
-30.32
-35.71
-40.66
-44.23
-45.63
-44.44
-40.73
-35.01
-28.09
-20.76
-13.73
-7.44
-2.11
2.19
5.52
8.01
9.81
11.13
12.16
13.06
13.97
14.97
16.10
17.35
18.68
19.98
21.11
21.94
22.37
22.37
21.97
21.25
20.30
19.18
17.89
16.37
14.57
12.45
10.03
7.42
4.74
2.10
-0.45
-2.89
-5.31
-7.81
-10.56
-13.78
-17.67
-22.32
-27.65
-33.27
-38.50
-42.52
-44.56
-44.11
-41.08
-35.84
-29.03
-21.49
-14.01
-7.21
-1.38
3.41
7.27
10.36
12.77
14.56
15.79
16.60
17.24
17.97
18.91
20.07
21.30
22.41
23.33
24.08
24.66
25.06
25.09
24.56
23.35
21.53
19.34
17.07
14.92
12.97
11.09
9.08
6.79
4.18
1.31
-1.68
-4.64
-7.46
-10.12
-12.78
-15.68
-19.11
-23.30
-28.22
-33.58
-38.75
-42.95
-45.36
-45.36
-42.70
-37.58
-30.57
-22.52
-14.34
-6.76
-0.29
4.90
8.84
11.70
13.65
14.87
15.51
15.78
15.90
16.08
16.48
17.16
18.10
19.20
20.36
21.45
22.35
22.92
23.04
22.59
21.56
20.01
18.09
15.99
13.88
11.86
9.94
8.08
6.17
4.13
1.87
-0.61
-3.29
-6.06
-8.89
-11.82
-15.02
-18.72
-23.10
-28.13
-33.44
-38.31
-41.87
-43.30
-42.16
-38.49
-32.79
-25.85
-18.53
-11.52
-5.30
-0.08
4.08
7.23
9.46
10.88
11.66
12.02
12.19
12.43
12.94
13.82
15.05
16.51
17.97
19.26
20.22
20.77
20.89
20.61
19.95
18.95
17.60
15.90
13.82
11.35
8.53
5.50
2.45
-0.46
-3.13
-5.63
-8.12
-10.82
-13.89
-17.44
-21.45
-25.82
-30.31
-34.47
-37.68
-39.25
-38.61
-35.55
-30.35
-23.71
-16.54
-9.68
-3.68
1.19
4.94
7.73
9.70
10.99
11.68
11.89
11.78
11.62
11.69
12.22
13.29
14.79
16.38
17.70
18.47
18.58
18.12
17.33
16.42
15.50
14.50
13.27
11.59
9.33
6.51
3.28
-0.08
-3.31
-6.23
-8.84
-11.28
-13.80
-16.69
-20.17
-24.34
-29.09
-34.05
-38.62
-41.98
-43.39
-42.31
-38.67
-32.86
-25.64
-17.89
-10.41
-3.77
1.71
5.89
8.81
10.61
11.52
11.84
11.87
11.89
12.11
12.65
13.54
14.75
16.12
17.49
18.68
19.56
20.09
20.27
20.13
19.70
18.96
17.86
16.39
14.52
12.27
9.71
6.95
4.10
1.28
-1.45
-4.11
-6.76
-9.50
-12.46
-15.78
-19.69
-24.35
-29.81
-35.82
-41.73
-46.58
-49.35
-49.27
-46.10
-40.27
-32.68
-24.46
-16.60
-9.72
-4.02
0.64
4.50
7.81
10.63
12.95
14.71
15.97
16.88
17.71
18.70
19.99
21.58
23.34
25.07
26.55
27.58
28.06
27.96
27.33
26.24
24.75
22.88
20.64
18.07
15.23
12.24
9.21
6.21
3.27
0.36
-2.48
-5.24
-7.86
-10.37
-12.96
-15.90
-19.57
-24.19
-29.66
-35.50
-40.87
-44.77
-46.36
-45.12
-41.13
-34.93
-27.36
-19.32
-11.56
-4.54
1.55
6.64
10.73
13.87
16.11
17.59
18.58
19.41
20.36
21.62
23.17
24.87
26.50
27.89
28.97
29.74
30.19
30.30
30.00
29.19
27.81
25.90
23.59
21.05
18.52
16.15
14.04
12.13
10.25
8.18
5.79
3.06
0.15
-2.72
-5.36
-7.75
-10.09
-12.75
-16.14
-20.55
-25.99
-32.11
-38.16
-43.11
-45.91
-45.78
-42.46
-36.36
-28.45
-19.91
-11.81
-4.87
0.69
4.95
8.13
10.43
11.96
12.83
13.20
13.31
13.45
13.87
14.69
15.92
17.44
19.07
20.64
21.96
22.92
23.45
23.56
23.32
22.82
22.11
21.19
20.00
18.43
16.41
13.93
11.08
8.04
5.00
2.15
-0.43
-2.75
-4.93
-7.17
-9.70
-12.75
-16.54
-21.14
-26.46
-32.07
-37.20
-40.89
-42.25
-40.75
-36.40
-29.82
-21.95
-13.85
-6.36
-0.03
4.95
8.59
11.05
12.54
13.29
13.53
13.50
13.45
13.63
14.29
15.53
17.29
19.31
21.19
22.57
23.24
23.23
22.75
22.02
21.19
20.21
18.91
17.05
14.49
11.26
7.55
3.68
-0.05
-3.40
-6.34
-8.98
-11.56
-14.39
-17.71
-21.69
-26.39
-31.68
-37.17
-42.22
-45.92
-47.36
-45.87
-41.30
-34.15
-25.48
-16.53
-8.36
-1.57
3.74
7.76
10.81
13.07
14.66
15.64
16.22
16.69
17.38
18.45
19.87
21.42
22.87
24.04
24.90
25.52
25.91
26.01
25.65
24.72
23.16
21.09
18.74
16.35
14.04
11.80
9.46
6.83
3.80
0.36
-3.37
-7.20
-10.97
-14.63
-18.23
-21.92
-25.90
-30.39
-35.51
-41.14
-46.81
-51.70
-54.79
-55.15
-52.28
-46.32
-38.01
-28.45
-18.76
-9.80
-2.12
4.09
8.82
12.18
14.40
15.85
16.92
18.02
19.40
21.13
23.08
25.04
26.85
28.47
29.92
31.28
32.52
33.50
33.98
33.77
32.78
31.11
28.98
26.69
24.46
22.34
20.21
17.87
15.10
11.81
8.06
4.00
-0.14
-4.17
-7.96
-11.50
-14.88
-18.32
-22.09
-26.47
-31.57
-37.19
-42.70
-47.18
-49.61
-49.26
-45.89
-39.84
-31.87
-22.95
-13.96
-5.58
1.73
7.71
12.24
15.34
17.19
18.13
18.64
19.17
20.10
21.58
23.59
25.90
28.23
30.32
32.00
33.25
34.10
34.59
34.75
34.53
33.87
32.73
31.12
29.09
26.73
24.14
21.42
18.64
15.77
12.78
9.54
6.00
2.18
-1.79
-5.69
-9.33
-12.61
-15.64
-18.73
-22.25
-26.53
-31.69
-37.49
-43.35
-48.40
-51.65
-52.25
-49.74
-44.20
-36.23
-26.79
-16.97
-7.68
0.46
7.15
12.33
16.07
18.43
19.56
19.71
19.30
18.83
18.79
19.44
20.81
22.68
24.71
26.59
28.12
29.22
29.87
30.08
29.82
29.11
27.94
26.32
24.29
21.91
19.31
16.63
13.96
11.32
8.61
5.72
2.57
-0.83
-4.32
-7.74
-10.98
-14.03
-17.02
-20.22
-23.91
-28.35
-33.57
-39.26
-44.69
-48.83
-50.55
-49.06
-44.20
-36.52
-27.11
-17.26
-8.06
-0.18
6.16
10.97
14.38
16.48
17.35
17.19
16.34
15.26
14.44
14.22
14.73
15.87
17.32
18.79
19.97
20.71
20.98
20.83
20.37
19.64
18.64
17.29
15.46
13.03
9.97
6.39
2.55
-1.25
-4.77
-7.89
-10.66
-13.28
-16.02
-19.11
-22.72
-26.91
-31.65
-36.84
-42.14
-46.94
-50.38
-51.54
-49.70
-44.68
-36.95
-27.53
-17.71
-8.61
-0.94
5.07
9.53
12.67
14.68
15.68
15.80
15.30
14.57
14.03
14.02
14.65
15.81
17.25
18.69
19.97
21.03
21.84
22.39
22.56
22.27
21.41
19.96
18.05
15.82
13.41
10.77
7.78
4.23
0.08
-4.54
-9.28
-13.76
-17.73
-21.17
-24.36
-27.75
-31.80
-36.82
-42.76
-49.21
-55.37
-60.18
-62.57
-61.75
-57.46
-50.12
-40.61
-30.12
-19.78
-10.44
-2.59
3.60
8.19
11.36
13.36
14.54
15.22
15.74
16.38
17.27
18.47
19.89
21.40
22.88
24.25
25.52
26.68
27.68
28.38
28.59
28.13
26.96
25.14
22.92
20.48
17.99
15.48
12.85
9.96
6.74
3.21
-0.51
-4.25
-7.89
-11.41
-14.88
-18.50
-22.59
-27.45
-33.28
-40.01
-47.19
-53.93
-59.03
-61.31
-59.93
-54.73
-46.29
-35.77
-24.55
-13.87
-4.56
3.03
8.92
13.31
16.49
18.72
20.26
21.37
22.30
23.24
24.34
25.63
27.10
28.67
30.26
31.71
32.94
33.80
34.21
34.10
33.42
32.13
30.19
27.63
24.61
21.35
18.12
15.07
12.17
9.21
5.91
2.10
-2.15
-6.56
-10.76
-14.47
-17.70
-20.72
-24.05
-28.20
-33.50
-39.86
-46.69
-52.97
-57.41
-58.84
-56.57
-50.59
-41.62
-30.89
-19.71
-9.19
-0.04
7.43
13.21
17.39
20.19
21.87
22.76
23.29
23.82
24.63
25.78
27.16
28.54
29.73
30.68
31.41
32.08
32.79
33.54
34.17
34.35
33.79
32.27
29.84
26.74
23.35
20.03
16.94
14.07
11.25
8.24
4.92
1.31
-2.45
-6.15
-9.65
-12.93
-16.15
-19.60
-23.60
-28.42
-34.15
-40.60
-47.21
-53.07
-57.07
-58.17
-55.71
-49.63
-40.56
-29.65
-18.26
-7.59
1.51
8.69
14.00
17.71
20.18
21.72
22.60
23.06
23.36
23.78
24.55
25.80
27.52
29.50
31.45
33.11
34.29
34.95
35.07
34.63
33.56
31.77
29.31
26.34
23.17
20.11
17.30
14.68
12.00
8.91
5.21
0.89
-3.81
-8.51
-12.85
-16.65
-19.98
-23.14
-26.61
-30.79
-35.91
-41.83
-47.98
-53.42
-57.05
-57.91
-55.43
-49.66
-41.28
-31.39
-21.19
-11.69
-3.54
3.01
8.00
11.57
13.84
15.00
15.23
14.86
14.29
13.97
14.29
15.42
17.34
19.78
22.32
24.50
25.95
26.48
26.13
25.08
23.64
22.07
20.43
18.66
16.54
13.88
10.62
6.89
2.91
-1.04
-4.78
-8.25
-11.51
-14.72
-18.06
-21.76
-26.02
-30.98
-36.53
-42.28
-47.43
-50.95
-51.81
-49.31
-43.40
-34.65
-24.20
-13.35
-3.27
5.27
11.93
16.70
19.79
21.42
21.86
21.42
20.46
19.37
18.51
18.15
18.42
19.29
20.59
22.05
23.37
24.28
24.57
24.15
23.08
21.48
19.51
17.28
14.80
12.02
8.87
5.34
1.50
-2.55
-6.69
-10.83
-14.94
-18.98
-22.96
-26.89
-30.92
-35.30
-40.33
-46.19
-52.68
-59.04
-64.05
-66.30
-64.75
-59.05
-49.78
-38.22
-25.93
-14.29
-4.21
3.97
10.27
14.94
18.23
20.39
21.69
22.41
22.90
23.43
24.25
25.44
26.98
28.74
30.57
32.29
33.73
34.71
35.03
34.54
33.16
30.97
28.20
25.14
22.00
18.84
15.57
12.04
8.18
4.05
-0.20
-4.40
-8.46
-12.38
-16.18
-19.96
-23.88
-28.20
-33.27
-39.39
-46.46
-53.82
-60.27
-64.32
-64.70
-60.83
-53.03
-42.40
-30.47
-18.67
-8.07
0.80
7.84
13.18
17.04
19.65
21.19
21.90
22.08
22.09
22.26
22.80
23.80
25.15
26.72
28.34
29.86
31.13
32.00
32.28
31.86
30.72
28.96
26.80
24.45
22.01
19.44
16.59
13.31
9.56
5.44
1.19
-2.96
-6.85
-10.50
-14.04
-17.78
-22.10
-27.32
-33.63
-40.89
-48.49
-55.38
-60.20
-61.75
-59.29
-52.82
-43.12
-31.46
-19.25
-7.65
2.54
10.93
17.41
22.08
25.10
26.79
27.54
27.82
28.07
28.65
29.68
31.09
32.66
34.19
35.49
36.52
37.31
37.82
37.96
37.56
36.43
34.49
31.81
28.58
25.05
21.44
17.81
14.16
10.37
6.37
2.18
-2.12
-6.41
-10.58
-14.62
-18.63
-22.81
-27.44
-32.80
-38.98
-45.83
-52.75
-58.75
-62.56
-63.02
-59.44
-51.94
-41.45
-29.44
-17.45
-6.68
2.25
9.22
14.39
18.01
20.23
21.23
21.31
20.90
20.57
20.79
21.79
23.48
25.51
27.48
29.05
30.04
30.41
30.21
29.50
28.33
26.74
24.76
22.42
19.71
16.60
13.05
9.05
4.74
0.36
-3.82
-7.64
-11.08
-14.38
-17.88
-21.95
-26.88
-32.69
-39.10
-45.50
-50.93
-54.26
-54.51
-51.09
-44.08
-34.26
-22.93
-11.50
-1.21
7.19
13.49
17.80
20.43
21.65
21.74
20.94
19.63
18.29
17.47
17.60
18.75
20.67
22.80
24.55
25.50
25.59
24.98
23.95
22.70
21.25
19.51
17.37
14.70
11.50
7.77
3.59
-0.88
-5.43
-9.81
-13.83
-17.47
-20.91
-24.52
-28.74
-33.93
-40.21
-47.31
-54.54
-60.79
-64.73
-65.17
-61.41
-53.55
-42.50
-29.73
-16.87
-5.29
4.25
11.53
16.68
20.05
21.96
22.74
22.75
22.38
22.07
22.21
23.02
24.49
26.41
28.45
30.22
31.46
32.01
31.88
31.12
29.83
28.04
25.80
23.18
20.26
17.09
13.75
10.21
6.49
2.62
-1.26
-5.04
-8.65
-12.21
-15.92
-20.10
-25.02
-30.85
-37.57
-44.96
-52.41
-58.95
-63.33
-64.31
-61.11
-53.76
-43.18
-30.87
-18.47
-7.23
2.15
9.57
15.22
19.39
22.33
24.31
25.57
26.41
27.07
27.75
28.55
29.50
30.64
31.93
33.32
34.69
35.83
36.56
36.70
36.17
34.95
33.11
30.77
28.07
25.10
21.89
18.40
14.50
10.14
5.39
0.46
-4.39
-8.94
-13.12
-17.15
-21.41
-26.36
-32.35
-39.43
-47.21
-54.82
-60.96
-64.23
-63.50
-58.31
-49.11
-37.17
-24.21
-11.88
-1.32
7.00
13.19
17.64
20.80
23.04
24.64
25.87
26.99
28.22
29.69
31.38
33.10
34.63
35.81
36.62
37.21
37.72
38.28
38.80
38.99
38.48
36.96
34.36
30.89
26.94
22.90
19.01
15.28
11.55
7.65
3.49
-0.83
-5.10
-9.11
-12.73
-16.05
-19.36
-23.11
-27.78
-33.60
-40.46
-47.70
-54.17
-58.48
-59.41
-56.31
-49.29
-39.26
-27.59
-15.75
-4.94
4.12
11.17
16.29
19.70
21.69
22.60
22.79
22.65
22.57
22.86
23.67
25.01
26.76
28.70
30.63
32.34
33.67
34.47
34.65
34.15
32.99
31.26
29.11
26.69
24.11
21.39
18.47
15.28
11.76
7.97
4.02
0.08
-3.73
-7.36
-10.89
-14.49
-18.40
-22.91
-28.28
-34.58
-41.51
-48.35
-53.91
-56.86
-56.16
-51.43
-43.18
-32.62
-21.31
-10.62
-1.45
5.85
11.27
14.93
16.96
17.48
16.76
15.29
13.72
12.72
12.75
13.91
15.94
18.36
20.62
22.34
23.30
23.56
23.24
22.53
21.55
20.27
18.59
16.31
13.28
9.46
5.00
0.26
-4.35
-8.49
-12.02
-15.09
-18.12
-21.64
-26.07
-31.57
-37.81
-44.03
-49.06
-51.67
-50.91
-46.44
-38.65
-28.59
-17.57
-6.87
2.63
10.47
16.53
20.84
23.47
24.53
24.23
22.96
21.28
19.75
18.84
18.76
19.47
20.74
22.26
23.71
24.80
25.29
25.04
23.95
22.09
19.56
16.53
13.02
8.96
4.11
-1.78
-8.82
-16.94
-25.87
-35.22
-44.68
-54.02
-63.17
-72.24
-81.35
-90.62
-100.00
-109.11
-117.17
-122.99
-125.17
-122.41
-113.95
-99.81
-80.89
-58.75
-35.25
-12.11
9.46
28.80
45.75
60.48
73.22
84.23
93.71
101.91
109.12
115.64
121.65
127.13
131.87
135.64
138.28
139.87
140.67
140.99
141.08
141.05
140.86
140.35
139.38
137.81
135.50
132.36
128.31
123.30
117.36
110.56
102.96
94.58
85.38
75.29
64.26
52.30
39.47
25.89
11.64
-3.21
-18.57
-34.20
-49.52
-63.70
-75.73
-84.71
-90.27
-92.60
-92.44
-90.73
-88.24
-85.51
-82.81
-80.35
-78.31
-76.88
-76.07
-75.65
-75.25
-74.46
-73.04
-70.88
-67.92
-64.03
-59.00
-52.72
-45.42
-37.68
-30.33
-24.07
-19.22
-15.61
-12.70
-9.88
-6.76
-3.38
-0.19
2.15
3.05
2.17
-0.41
-4.27
-8.81
-13.43
-17.73
-21.55
-24.93
-28.03
-31.06
-34.32
-38.14
-42.92
-48.83
-55.69
-62.70
