1520864786.00
64.000000
-0.00
-0.00
-0.00
-0.00
-0.00
-0.00
-0.00
-0.00
-0.00
-0.00
0.00
0.01
0.01
-0.00
-0.03
-0.05
-0.05
0.00
0.13
0.36
0.66
1.01
1.37
1.72
2.06
2.40
2.79
3.24
3.80
4.42
5.06
5.66
6.20
6.68
7.15
7.68
8.31
9.14
10.09
11.04
11.88
12.56
13.14
13.76
14.65
15.96
17.91
20.32
22.90
25.38
27.58
29.57
31.68
34.32
37.81
42.54
48.15
54.10
59.83
64.97
69.58
74.14
79.34
85.71
93.76
103.00
112.62
121.73
129.77
136.75
143.30
150.75
157.77
166.64
177.95
191.79
206.97
220.57
228.25
225.36
208.53
176.87
132.76
80.05
23.07
-34.94
-92.44
-149.16
-205.23
-260.37
-313.74
-363.87
-409.83
-450.91
-486.50
-515.74
-537.23
-549.22
-549.96
-538.37
-514.21
-478.67
-433.88
-382.45
-327.02
-269.84
-212.63
-156.66
-102.95
-52.37
-5.90
35.58
71.43
101.35
125.50
144.38
158.69
169.15
176.37
180.75
182.57
182.07
179.51
175.23
169.65
163.18
156.15
148.81
141.30
133.69
126.02
118.33
110.69
103.16
95.80
88.68
81.83
75.25
68.95
62.95
57.25
51.86
46.78
42.03
37.59
33.45
29.61
26.07
22.81
19.83
17.11
14.67
12.48
10.54
8.83
7.35
6.07
4.97
4.05
3.27
2.62
2.09
1.65
1.30
1.01
0.79
0.61
0.47
0.37
0.29
0.23
0.19
0.16
0.15
0.15
0.16
0.17
0.19
0.22
0.26
0.29
0.33
0.38
0.42
0.47
0.52
0.56
0.61
0.67
0.73
0.79
0.86
0.93
1.01
1.10
1.20
1.31
1.43
1.57
1.73
1.90
2.10
2.31
2.55
2.82
3.11
3.43
3.78
4.17
4.58
5.04
5.53
6.06
6.63
7.24
7.89
8.59
9.33
10.12
10.95
11.83
12.75
13.73
14.76
15.85
17.01
18.23
19.49
20.77
22.01
23.15
24.09
24.72
24.91
24.54
23.53
21.81
19.37
16.26
12.53
8.35
3.92
-0.58
-4.92
-8.91
-12.37
-15.19
-17.26
-18.60
-19.19
-19.13
-18.50
-17.43
-16.03
-14.44
-12.78
-11.11
-9.48
-7.86
-6.24
-4.62
-2.97
-1.28
0.44
2.19
3.95
5.77
7.74
9.84
12.07
14.42
16.88
19.38
21.84
24.24
26.64
29.25
32.01
34.99
38.21
41.63
45.09
48.41
51.47
54.40
57.55
60.93
64.67
68.86
73.31
77.60
81.26
83.93
85.62
86.83
87.65
88.35
88.97
89.05
87.55
83.05
73.95
58.48
39.86
19.59
-1.04
-21.22
-40.72
-59.95
-79.72
-101.06
-125.00
-151.97
-182.12
-213.76
-243.40
-266.53
-278.91
-278.23
-265.06
-242.65
-215.62
-188.73
-164.93
-144.99
-128.29
-113.85
-101.14
-90.25
-81.56
-75.14
-70.92
-68.29
-66.37
-64.25
-61.00
-55.82
-48.07
-37.41
-23.92
-8.35
8.21
24.47
39.22
51.46
60.58
66.36
69.03
69.16
67.46
64.74
61.67
58.78
56.35
54.58
53.44
52.78
52.25
51.40
49.78
47.18
43.68
39.60
35.28
30.94
26.52
21.80
16.57
10.77
4.45
-2.37
-9.76
-17.71
-25.90
-33.47
-38.96
-40.81
-37.90
-30.15
-18.59
-5.07
8.38
20.20
29.58
36.41
40.94
43.52
44.39
43.71
41.74
38.90
35.74
32.86
30.74
29.64
29.48
29.93
30.58
30.96
30.74
29.74
27.95
25.40
22.19
18.40
14.11
9.35
4.09
-1.75
-8.32
-15.68
-23.67
-31.67
-38.61
-43.07
-43.67
-39.63
-31.08
-19.17
-5.76
7.16
18.11
26.43
32.24
36.09
38.56
39.95
40.33
39.68
38.18
36.28
34.55
33.43
33.04
33.08
33.02
32.32
30.69
28.11
24.88
21.40
18.03
14.91
11.92
8.77
5.12
0.75
-4.40
-10.24
-16.59
-23.23
-29.72
-35.35
-39.09
-39.78
-36.52
-29.09
-18.20
-5.35
7.64
19.14
28.18
34.47
38.24
39.96
40.09
39.01
37.06
34.63
32.17
30.04
28.45
27.46
26.91
26.58
26.24
25.70
24.86
23.62
21.88
19.54
16.50
12.74
8.36
3.64
-1.04
-5.29
-8.89
-11.93
-14.82
-18.21
-22.68
-28.41
-34.94
-41.07
-45.21
-45.83
-42.02
-33.87
-22.43
-9.41
3.39
14.59
23.43
29.74
33.65
35.44
35.39
33.87
31.42
28.76
26.62
25.50
25.49
26.23
27.05
27.31
26.67
25.16
23.13
20.98
18.99
17.15
15.27
13.07
10.39
7.20
3.64
-0.01
-3.43
-6.40
-8.79
-10.73
-12.63
-15.01
-18.37
-22.96
-28.59
-34.63
-40.05
-43.66
-44.35
-41.43
-34.78
-25.02
-13.35
-1.35
9.50
18.14
24.10
27.49
28.66
28.09
26.21
23.43
20.24
17.21
14.89
13.67
13.63
14.52
15.81
16.93
17.41
17.09
16.06
14.60
13.01
11.41
9.74
7.76
5.26
2.23
-1.16
-4.55
-7.61
-10.14
-12.15
-13.92
-15.88
-18.46
-22.01
-26.58
-31.76
-36.76
-40.46
-41.70
-39.70
-34.25
-25.86
-15.63
-4.90
5.05
13.28
19.26
22.85
24.14
23.36
20.93
17.38
13.38
9.66
6.87
5.43
5.43
6.57
8.29
9.91
10.90
11.02
10.36
9.16
7.72
6.16
4.44
2.37
-0.17
-3.16
-6.36
-9.42
-12.06
-14.13
-15.73
-17.18
-18.94
-21.48
-25.15
-29.93
-35.29
-40.29
-43.67
-44.30
-41.50
-35.32
-26.49
-16.22
-5.89
3.36
10.76
15.96
18.95
19.89
19.05
16.82
13.73
10.41
7.55
5.72
5.21
5.94
7.48
9.22
10.57
11.19
10.99
10.13
8.83
7.28
5.55
3.64
1.45
-1.08
-3.92
-6.94
-9.92
-12.63
-14.96
-16.96
-18.89
-21.09
-23.90
-27.52
-31.87
-36.63
-41.12
-44.47
-45.70
-44.03
-39.10
-31.14
-21.00
-9.88
0.90
10.27
17.53
22.39
24.85
25.06
23.36
20.25
16.39
12.57
9.51
7.72
7.33
8.18
9.75
11.45
12.73
13.22
12.86
11.82
10.41
8.90
7.36
5.70
3.66
1.05
-2.13
-5.67
-9.14
-12.17
-14.54
-16.33
-17.91
-19.74
-22.27
-25.76
-30.18
-35.17
-40.00
-43.72
-45.29
-43.93
-39.26
-31.58
-21.72
-10.90
-0.42
8.67
15.67
20.32
22.62
22.82
21.32
18.64
15.40
12.23
9.67
8.07
7.49
7.71
8.32
8.90
9.13
8.91
8.36
7.68
7.10
6.61
6.03
5.02
3.27
0.62
-2.80
-6.59
-10.28
-13.46
-15.93
-17.74
-19.18
-20.69
-22.73
-25.66
-29.55
-34.08
-38.46
-41.52
-42.07
-39.25
-32.91
-23.70
-12.92
-2.11
7.37
14.64
19.37
21.64
21.78
20.20
17.39
13.91
10.38
7.40
5.43
4.75
5.29
6.78
8.76
10.74
12.29
13.16
13.28
12.71
11.58
9.99
8.00
5.59
2.74
-0.48
-3.90
-7.22
-10.16
-12.50
-14.27
-15.77
-17.55
-20.23
-24.24
-29.52
-35.46
-40.86
-44.33
-44.67
-41.23
-34.15
-24.29
-13.01
-1.78
8.12
15.90
21.26
24.32
25.42
24.96
23.25
20.66
17.54
14.37
11.65
9.76
8.89
8.89
9.40
10.01
10.39
10.38
9.97
9.20
8.05
6.49
4.46
1.98
-0.83
-3.70
-6.34
-8.56
-10.37
-12.02
-13.91
-16.50
-20.10
-24.78
-30.32
-36.15
-41.41
-45.09
-46.21
-44.08
-38.60
-30.29
-20.21
-9.67
0.13
8.32
14.45
18.43
20.41
20.67
19.59
17.65
15.36
13.25
11.77
11.21
11.65
12.95
14.78
16.71
18.29
19.17
19.17
18.28
16.66
14.51
12.02
9.31
6.54
3.79
1.14
-1.39
-3.90
-6.58
-9.78
-13.87
-19.05
-25.14
-31.47
-36.89
-40.05
-39.86
-35.84
-28.35
-18.44
-7.61
2.71
11.38
17.75
21.55
22.88
22.02
19.43
15.75
11.69
8.01
5.34
4.13
4.49
6.19
8.70
11.23
13.04
13.51
12.41
9.82
6.16
1.98
-2.20
-6.00
-9.29
-12.19
-15.02
-18.21
-22.17
-27.20
-33.39
-40.47
-47.69
-53.95
-57.93
-58.44
-54.83
-47.29
-36.83
-25.05
-13.67
-3.99
3.43
8.84
12.97
16.64
20.33
24.01
27.26
29.61
30.86
31.26
31.42
31.96
33.19
34.94
36.65
37.62
37.37
35.77
33.07
29.67
26.00
22.33
18.73
15.14
11.41
7.41
3.01
-1.91
-7.47
-13.69
-20.29
-26.65
-31.72
-34.33
-33.53
-28.99
-21.17
-11.26
-0.76
8.86
16.61
22.03
25.15
26.30
25.90
24.38
22.19
19.81
17.68
16.23
15.73
16.22
17.45
18.95
20.12
20.43
19.62
17.69
14.94
11.79
8.61
5.62
2.77
-0.13
-3.32
-6.97
-11.08
-15.52
-20.10
-24.51
-28.36
-31.08
-32.00
-30.45
-26.02
-18.80
-9.51
0.60
10.07
17.63
22.55
24.73
24.57
22.70
19.72
16.13
12.36
8.84
6.03
4.32
3.89
4.57
5.90
7.20
7.85
7.52
6.16
3.99
1.37
-1.44
-4.31
-7.25
-10.44
-14.08
-18.32
-23.29
-28.93
-34.93
-40.60
-44.96
-46.85
-45.29
-39.86
-30.89
-19.49
-7.22
4.34
13.99
21.14
25.79
28.21
28.75
27.66
25.17
21.68
17.84
14.52
12.53
12.27
13.61
15.84
17.96
19.05
18.56
16.49
13.21
9.31
5.27
1.38
-2.34
-6.07
-10.07
-14.60
-19.89
-26.05
-32.96
-40.08
-46.42
-50.63
-51.41
-47.94
-40.34
-29.69
-17.71
-6.24
3.41
10.68
15.69
18.92
20.83
21.63
21.31
19.92
17.74
15.38
13.59
13.06
14.05
16.29
19.04
21.36
22.51
22.12
20.34
17.60
14.44
11.25
8.25
5.46
2.76
-0.03
-3.18
-7.06
-12.04
-18.29
-25.50
-32.70
-38.35
-40.74
-38.60
-31.62
-20.67
-7.54
5.66
17.15
25.95
31.95
35.59
37.47
38.01
37.41
35.84
33.57
31.07
28.89
27.47
26.93
27.04
27.39
27.53
27.13
26.04
24.24
21.76
18.69
15.10
11.13
6.98
2.85
-1.11
-4.92
-8.77
-13.02
-18.11
-24.30
-31.41
-38.71
-44.90
-48.46
-48.10
-43.23
-34.24
-22.42
-9.53
2.67
12.84
20.35
25.18
27.76
28.71
28.65
28.08
27.33
26.66
26.18
25.92
25.82
25.79
25.65
25.29
24.67
23.84
22.82
21.59
19.96
17.69
14.55
10.49
5.73
0.69
-4.15
-8.43
-12.05
-15.19
-18.29
-21.91
-26.58
-32.50
-39.39
-46.33
-51.86
-54.42
-52.78
-46.60
-36.60
-24.28
-11.50
0.17
9.81
17.14
22.35
25.78
27.69
28.34
28.00
27.12
26.25
25.92
26.43
27.69
29.35
30.87
31.78
31.91
31.39
30.51
29.60
28.73
27.67
26.00
23.31
19.46
14.72
9.64
4.87
0.83
-2.39
-5.11
-7.83
-11.14
-15.52
-21.22
-28.19
-35.95
-43.53
-49.57
-52.56
-51.37
-45.63
-35.99
-23.91
-11.28
0.28
9.79
16.99
22.13
25.61
27.64
28.26
27.55
25.82
23.76
22.20
21.83
22.88
24.98
27.42
29.39
30.38
30.29
29.36
27.97
26.38
24.65
22.67
20.29
17.43
14.11
10.46
6.67
2.95
-0.54
-3.71
-6.55
-9.22
-11.92
-15.01
-18.81
-23.58
-29.32
-35.65
-41.76
-46.46
-48.48
-46.84
-41.20
-32.05
-20.65
-8.61
2.48
11.51
17.94
21.79
23.39
23.17
21.61
19.14
16.27
13.58
11.64
10.93
11.62
13.51
16.08
18.61
20.46
21.23
20.91
19.75
18.16
16.44
14.69
12.75
10.40
7.48
4.03
0.36
-3.11
-6.04
-8.30
-10.11
-11.93
-14.32
-17.69
-22.13
-27.37
-32.77
-37.43
-40.38
-40.72
-37.91
-31.88
-23.19
-12.87
-2.21
7.54
15.44
21.01
24.15
25.04
24.08
21.78
18.68
15.40
12.50
10.41
9.40
9.46
10.38
11.75
13.08
13.96
14.17
13.73
12.81
11.60
10.17
8.40
6.07
3.05
-0.56
-4.43
-8.07
-11.12
-13.49
-15.45
-17.52
-20.30
-24.20
-29.34
-35.39
-41.57
-46.77
-49.77
-49.51
-45.46
-37.84
-27.58
-16.11
-4.94
4.71
12.20
17.39
20.45
21.66
21.20
19.34
16.46
13.27
10.58
9.12
9.20
10.57
12.51
14.14
14.82
14.36
13.03
11.37
9.82
8.55
7.39
5.93
3.75
0.68
-3.13
-7.23
-11.00
-13.96
-15.88
-16.87
-17.31
-17.64
-18.26
-19.32
-20.76
-22.18
-22.93
-22.22
-19.32
-13.96
-6.53
1.98
10.25
17.01
21.55
23.78
24.10
23.03
20.93
17.97
14.21
9.78
5.02
0.48
-3.33
-6.01
-7.48
-7.91
-7.71
-7.34
-7.16
-7.38
-7.97
-8.77
-9.66
-10.65
-11.97
-13.88
-16.58
-19.97
-23.59
-26.85
-29.19
-30.39
-30.65
-30.54
-30.76
-31.92
-34.35
-38.03
-42.57
-47.24
-50.97
-52.54
-50.88
-45.42
-36.33
-24.59
-11.65
0.94
11.99
20.81
27.14
31.02
32.60
32.13
30.02
26.95
23.79
21.42
20.46
21.13
23.15
25.89
28.59
30.66
31.84
32.13
31.69
30.62
28.88
26.31
22.81
18.47
13.62
8.73
4.27
0.48
-2.66
-5.43
-8.23
-11.47
-15.50
-20.51
-26.38
-32.67
-38.47
-42.60
-43.87
-41.53
-35.49
-26.51
-15.94
-5.34
4.00
11.28
16.21
18.88
19.56
18.56
16.34
13.50
10.80
8.94
8.36
9.06
10.64
12.47
13.97
14.87
15.22
15.29
15.28
15.22
14.86
13.80
11.79
8.85
5.32
1.71
-1.53
-4.21
-6.46
-8.60
-11.05
-14.11
-17.96
-22.55
-27.58
-32.45
-36.24
-37.88
-36.46
-31.57
-23.56
-13.51
-2.94
6.69
14.32
19.51
22.33
23.14
22.32
20.32
17.58
14.65
12.17
10.67
10.44
11.37
12.99
14.70
15.98
16.61
16.68
16.46
16.15
15.73
14.99
13.63
11.43
8.42
4.87
1.16
-2.34
-5.43
-8.15
-10.73
-13.55
-17.00
-21.36
-26.58
-32.16
-37.21
-40.57
-41.18
-38.37
-32.17
-23.23
-12.75
-2.10
7.49
15.20
20.61
23.68
24.64
23.83
21.69
18.76
15.60
12.83
10.91
10.11
10.36
11.32
12.53
13.62
14.35
14.68
14.62
14.12
13.01
11.15
8.48
5.08
1.23
-2.68
-6.32
-9.52
-12.31
-14.94
-17.80
-21.28
-25.55
-30.38
-35.07
-38.50
-39.48
-37.13
-31.22
-22.36
-11.82
-1.15
8.25
15.51
20.30
22.74
23.18
22.01
19.66
16.61
13.44
10.73
8.96
8.35
8.84
10.16
11.89
13.59
14.85
15.32
14.77
13.19
10.77
7.84
4.78
1.84
-0.94
-3.68
-6.56
-9.74
-13.26
-17.17
-21.54
-26.40
-31.59
-36.58
-40.46
-42.10
-40.55
-35.43
-27.17
-16.90
-6.13
3.74
11.78
17.61
21.28
23.03
23.09
21.70
19.21
16.13
13.13
10.85
9.76
9.99
11.33
13.31
15.39
17.08
18.01
18.00
16.96
14.90
11.87
8.06
3.77
-0.59
-4.61
-8.01
-10.81
-13.37
-16.35
-20.45
-26.07
-33.07
-40.59
-47.28
-51.51
-51.98
-48.05
-40.00
-28.93
-16.43
-4.14
6.66
15.21
21.28
25.00
26.69
26.75
25.60
23.79
21.87
20.40
19.75
19.98
20.85
21.91
22.71
22.95
22.56
21.65
20.40
18.91
17.14
14.93
12.16
8.78
4.92
0.86
-3.09
-6.75
-10.15
-13.59
-17.56
-22.51
-28.63
-35.60
-42.57
-48.21
-51.11
-50.17
-44.98
-35.99
-24.45
-11.98
-0.17
9.86
17.55
22.87
26.05
27.43
27.33
26.14
24.33
22.51
21.24
20.88
21.44
22.60
23.87
24.77
25.06
24.74
24.02
23.08
21.99
20.63
18.68
15.87
12.11
7.59
2.82
-1.65
-5.41
-8.42
-11.03
-13.84
-17.45
-22.21
-28.11
-34.64
-40.91
-45.74
-47.90
-46.41
-40.89
-31.75
-20.17
-7.79
3.78
13.33
20.37
24.98
27.55
28.54
28.31
27.11
25.25
23.13
21.27
20.18
20.12
20.99
22.34
23.54
24.08
23.74
22.73
21.41
20.10
18.84
17.31
15.09
11.90
7.82
3.30
-1.02
-4.59
-7.18
-8.96
-10.39
-12.07
-14.55
-18.19
-23.04
-28.81
-34.81
-40.00
-43.18
-43.28
-39.70
-32.55
-22.63
-11.32
-0.09
9.77
17.48
22.74
25.70
26.70
26.17
24.56
22.36
20.09
18.29
17.35
17.45
18.49
20.06
21.65
22.74
23.05
22.57
21.50
20.15
18.70
17.19
15.45
13.34
10.77
7.78
4.58
1.42
-1.50
-4.04
-6.19
-8.09
-10.05
-12.41
-15.56
-19.74
-24.95
-30.83
-36.62
-41.26
-43.64
-42.81
-38.38
-30.58
-20.30
-8.82
2.45
12.35
20.08
25.29
27.97
28.40
27.03
24.47
21.39
18.42
16.14
14.90
14.80
15.63
17.02
18.44
19.47
19.85
19.57
18.77
17.66
16.31
14.66
12.56
9.89
6.70
3.20
-0.25
-3.32
-5.83
-7.82
-9.51
-11.23
-13.40
-16.35
-20.30
-25.24
-30.75
-36.02
-39.89
-41.21
-39.13
-33.54
-25.05
-14.89
-4.49
4.89
12.41
17.77
21.00
22.35
22.08
20.53
18.09
15.34
12.89
11.30
10.92
11.73
13.39
15.34
17.00
17.99
18.20
17.77
16.88
15.59
13.80
11.33
8.02
3.95
-0.57
-5.08
-9.17
-12.63
-15.55
-18.23
-21.06
-24.39
-28.43
-33.11
-38.05
-42.49
-45.41
-45.82
-43.00
-36.89
-28.16
-18.05
-7.98
0.73
7.23
11.18
12.66
12.05
9.92
6.94
3.84
1.29
-0.22
-0.47
0.45
2.17
4.19
6.08
7.62
8.84
9.90
10.91
11.86
12.45
12.29
11.04
8.64
5.29
1.42
-2.53
-6.27
-9.74
-13.12
-16.74
-20.93
-25.89
-31.59
-37.60
-43.06
-46.83
-47.69
-44.83
-38.14
-28.31
-16.73
-5.02
5.29
13.12
17.93
19.73
18.96
16.41
13.05
9.87
7.69
7.01
7.91
10.07
12.92
15.80
18.16
19.68
20.30
20.17
19.52
18.50
17.07
15.11
12.44
9.07
5.30
1.59
-1.60
-4.07
-6.05
-8.07
-10.83
-14.85
-20.19
-26.29
-32.12
-36.35
-37.73
-35.49
-29.54
-20.51
-9.64
1.61
11.85
20.09
25.88
29.24
30.52
30.12
28.47
25.88
22.71
19.34
16.21
13.77
12.27
11.76
12.09
12.97
14.08
15.18
16.00
16.27
15.74
14.23
11.73
8.45
4.75
0.99
-2.49
-5.56
-8.23
-10.80
-13.71
-17.53
-22.64
-28.94
-35.70
-41.55
-44.88
-44.39
-39.58
-30.99
-20.02
-8.42
2.21
10.80
16.92
20.59
22.07
21.73
19.98
17.28
14.20
11.38
9.42
8.70
9.30
10.96
13.17
15.37
17.09
18.06
18.21
17.55
16.16
14.16
11.72
9.14
6.74
4.75
3.21
1.86
0.17
-2.41
-6.29
-11.49
-17.51
-23.41
-27.99
-30.15
-29.17
-24.94
-18.00
-9.35
-0.22
8.20
15.03
19.73
22.13
22.32
20.63
17.56
13.79
10.03
6.93
4.97
4.28
4.73
5.88
7.23
8.32
8.85
8.67
7.77
6.22
4.08
1.44
-1.55
-4.71
-7.81
-10.69
-13.34
-15.92
-18.82
-22.48
-27.16
-32.70
-38.38
-43.00
-45.22
-44.03
-39.10
-30.93
-20.74
-10.10
-0.51
6.99
11.92
14.42
14.97
14.25
12.91
11.43
10.22
9.49
9.43
10.10
11.45
13.30
15.30
17.07
18.28
18.74
18.39
17.26
15.38
12.84
9.75
6.34
2.86
-0.42
-3.33
-5.91
-8.35
-11.02
-14.31
-18.55
-23.77
-29.62
-35.24
-39.40
-40.86
-38.70
-32.81
-23.88
-13.33
-2.75
6.50
13.64
18.51
21.33
22.45
22.25
21.05
19.18
17.09
15.24
13.98
13.51
13.79
14.65
15.83
17.07
18.12
18.74
18.70
17.84
16.15
13.79
11.06
8.24
5.55
3.04
0.65
-1.70
-4.15
-6.89
-10.19
-14.27
-19.15
-24.46
-29.33
-32.57
-33.08
-30.20
-24.03
-15.41
-5.61
4.01
12.39
18.93
23.41
25.92
26.70
26.03
24.29
22.01
19.73
18.00
17.10
17.03
17.48
18.03
18.31
18.20
17.75
17.05
16.11
14.78
12.81
10.05
6.55
2.54
-1.61
-5.56
-9.08
-12.08
-14.67
-17.13
-19.93
-23.55
-28.27
-33.85
-39.43
-43.57
-44.75
-41.87
-34.77
-24.35
-12.25
-0.38
9.74
17.27
22.12
24.71
25.61
25.31
24.05
22.02
19.40
16.61
14.13
12.48
11.90
12.32
13.28
14.21
14.58
14.11
12.80
10.81
8.34
5.48
2.28
-1.20
-4.80
-8.25
-11.29
-13.87
-16.23
-18.96
-22.63
-27.58
-33.49
-39.32
-43.55
-44.63
-41.62
-34.51
-24.34
-12.76
-1.55
7.90
14.90
19.43
21.91
22.94
23.01
22.42
21.39
20.05
18.58
17.23
16.24
15.75
15.80
16.23
16.74
16.99
16.70
15.65
13.77
11.07
7.71
3.94
0.06
-3.63
-6.97
-9.95
-12.75
-15.72
-19.25
-23.69
-29.06
-34.98
-40.53
-44.47
-45.56
-42.98
-36.65
-27.32
-16.33
-5.19
4.79
12.81
18.56
22.14
23.85
24.10
23.33
22.02
20.56
19.31
18.48
18.10
18.10
18.28
18.38
18.20
17.64
16.69
15.42
13.85
11.92
9.42
6.19
2.26
-2.06
-6.24
-9.79
-12.45
-14.38
-16.17
-18.54
-22.08
-27.03
-33.12
-39.57
-45.24
-48.82
-49.15
-45.54
-38.03
-27.41
-15.13
-2.82
8.09
16.69
22.71
26.40
28.22
28.67
28.09
26.73
24.85
22.85
21.23
20.46
20.72
21.79
23.11
24.01
24.01
23.05
21.45
19.62
17.81
15.96
13.76
10.91
7.26
2.99
-1.53
-5.84
-9.57
-12.51
-14.75
-16.63
-18.72
-21.63
-25.83
-31.45
-38.04
-44.67
-49.97
-52.54
-51.31
-45.96
-37.02
-25.79
-13.92
-2.92
6.23
13.24
18.30
21.75
23.83
24.68
24.38
23.23
21.76
20.61
20.25
20.83
22.16
23.79
25.23
26.08
26.18
25.53
24.32
22.78
21.11
19.37
17.53
15.38
12.76
9.56
5.88
1.94
-1.95
-5.48
-8.51
-11.04
-13.23
-15.33
-17.68
-20.63
-24.56
-29.65
-35.82
-42.49
-48.55
-52.55
-53.09
-49.31
-41.39
-30.40
-18.14
-6.42
3.44
10.87
15.98
19.19
20.96
21.64
21.40
20.48
19.17
17.89
17.07
16.97
17.65
18.96
20.56
22.08
23.20
23.80
23.84
23.43
22.62
21.41
19.71
17.40
14.43
10.90
7.01
3.04
-0.77
-4.21
-7.16
-9.63
-11.74
-13.71
-15.88
-18.57
-22.07
-26.53
-31.86
-37.59
-42.90
-46.63
-47.57
-44.84
-38.27
-28.53
-17.02
-5.38
4.95
13.10
18.86
22.49
24.39
24.93
24.44
23.19
21.57
19.99
18.83
18.32
18.51
19.26
20.29
21.29
21.97
22.15
21.74
20.84
19.60
18.19
16.67
15.02
13.07
10.64
7.66
4.14
0.29
-3.57
-7.17
-10.33
-13.03
-15.48
-17.95
-20.76
-24.16
-28.32
-33.24
-38.64
-43.87
-47.93
-49.64
-47.97
-42.46
-33.53
-22.35
-10.56
0.29
9.14
15.61
19.78
22.02
22.74
22.27
20.96
19.22
17.54
16.37
16.07
16.71
18.13
19.94
21.68
22.94
23.43
23.08
21.95
20.26
18.20
15.94
13.53
10.91
7.98
4.69
1.08
-2.63
-6.14
-9.17
-11.54
-13.31
-14.75
-16.23
-18.11
-20.69
-24.17
-28.54
-33.52
-38.43
-42.24
-43.78
-42.13
-37.00
-28.85
-18.81
-8.29
1.44
9.51
15.52
19.35
21.10
20.94
19.15
16.24
12.91
9.93
7.98
7.39
8.12
9.76
11.68
13.28
14.21
14.42
14.09
13.54
12.99
12.44
11.73
10.57
8.75
6.24
3.21
-0.06
-3.30
-6.28
-8.91
-11.26
-13.52
-16.02
-19.09
-22.98
-27.64
-32.61
-37.00
-39.71
-39.74
-36.57
-30.35
-21.88
-12.39
-3.13
4.88
11.08
15.28
17.55
18.08
17.12
15.01
12.23
9.36
7.04
5.75
5.64
6.51
7.89
9.25
10.19
10.58
10.47
10.01
9.26
8.11
6.38
3.89
0.65
-3.11
-6.95
-10.45
-13.32
-15.52
-17.33
-19.22
-21.72
-25.26
-29.94
-35.39
-40.78
-44.99
-46.84
-45.48
-40.64
-32.74
-22.77
-12.03
-1.75
7.09
13.92
18.48
20.84
21.24
20.03
17.73
14.94
12.33
10.45
9.64
9.86
10.82
12.03
13.09
13.78
14.13
14.24
14.08
13.45
12.03
9.59
6.15
2.00
-2.38
-6.55
-10.24
-13.43
-16.30
-19.14
-22.28
-26.10
-30.89
-36.66
-43.00
-48.96
-53.20
-54.41
-51.76
-45.20
-35.56
-24.26
-12.80
-2.42
6.17
12.70
17.17
19.67
20.35
19.48
17.58
15.29
13.32
12.16
11.99
12.64
13.76
14.97
15.99
16.73
17.18
17.38
17.28
16.71
15.40
13.13
9.83
5.70
1.17
-3.24
-7.15
-10.46
-13.43
-16.56
-20.36
-25.24
-31.27
-38.11
-45.03
-50.91
-54.49
-54.62
-50.68
-42.78
-31.85
-19.43
-7.16
3.61
12.08
18.11
21.97
24.11
24.92
24.71
23.72
22.30
20.84
19.75
19.32
19.56
20.27
21.06
21.66
21.96
21.98
21.79
21.37
20.49
18.89
16.36
12.98
9.06
5.04
1.32
-1.93
-4.82
-7.66
-10.90
-14.94
-20.07
-26.29
-33.21
-39.99
-45.45
-48.25
-47.35
-42.36
-33.73
-22.65
-10.72
0.56
10.11
17.51
22.76
26.13
27.88
28.22
27.43
25.87
24.08
22.69
22.16
22.67
24.03
25.76
27.31
28.29
28.60
28.43
28.02
27.54
26.85
25.59
23.36
20.00
15.73
11.05
6.58
2.72
-0.58
-3.69
-7.21
-11.63
-17.20
-23.78
-30.87
-37.62
-42.98
-45.79
-45.18
-40.76
-32.84
-22.39
-10.75
0.69
10.84
19.07
25.12
28.99
30.83
30.94
29.71
27.70
25.60
24.09
23.64
24.42
26.19
28.42
30.44
31.74
32.10
31.60
30.54
29.18
27.64
25.78
23.39
20.26
16.41
12.11
7.77
3.80
0.40
-2.51
-5.19
-8.10
-11.64
-16.09
-21.48
-27.52
-33.60
-38.84
-42.18
-42.73
-39.92
-33.71
-24.74
-14.07
-3.03
7.11
15.42
21.43
25.06
26.53
26.25
24.65
22.26
19.67
17.51
16.34
16.46
17.79
19.89
22.07
23.72
24.49
24.42
23.73
22.71
21.42
19.75
17.46
14.44
10.79
6.86
3.09
-0.15
-2.74
-4.84
-6.82
-9.12
-12.09
-15.96
-20.69
-25.87
-30.78
-34.39
-35.61
-33.64
-28.27
-19.99
-9.93
0.52
10.08
17.81
23.28
26.37
27.20
26.08
23.48
20.08
16.74
14.22
13.02
13.19
14.34
15.88
17.27
18.17
18.55
18.55
18.38
18.04
17.36
16.06
13.85
10.71
6.89
2.93
-0.65
-3.54
-5.82
-7.95
-10.58
-14.31
-19.46
-25.90
-33.04
-39.81
-44.92
-47.07
-45.37
-39.65
-30.59
-19.61
-8.43
1.48
9.22
14.57
17.86
19.51
19.89
19.25
17.82
15.98
14.21
13.05
12.81
13.48
14.75
16.14
17.24
17.85
18.00
17.80
17.31
16.44
14.94
12.61
9.36
5.35
0.95
-3.35
-7.17
-10.32
-12.88
-15.22
-17.83
-21.22
-25.77
-31.47
-37.84
-43.90
-48.29
-49.67
-47.15
-40.61
-30.83
-19.23
-7.45
3.18
11.85
18.32
22.72
25.35
26.47
26.33
25.26
23.73
22.30
21.48
21.59
22.57
24.07
25.61
26.73
27.20
26.99
26.22
25.01
23.39
21.30
18.60
15.20
11.15
6.60
1.87
-2.69
-6.80
-10.35
-13.52
-16.66
-20.25
-24.66
-30.05
-36.15
-42.30
-47.49
-50.54
-50.39
-46.42
-38.76
-28.28
-16.46
-4.89
5.15
13.03
18.67
22.42
24.64
25.62
25.57
24.72
23.43
22.14
21.24
20.92
21.11
21.55
21.90
21.92
21.58
20.98
20.27
19.51
18.59
17.28
15.35
12.73
9.54
6.11
2.79
-0.16
-2.67
-4.79
-6.74
-8.75
-11.13
-14.24
-18.41
-23.75
-30.00
-36.36
-41.62
-44.43
-43.77
-39.28
-31.43
-21.39
-10.66
-0.59
7.90
14.42
18.96
21.65
22.68
22.19
20.39
17.70
14.74
12.23
10.76
10.61
11.68
13.49
15.41
16.82
17.41
17.16
16.30
15.20
14.07
12.90
11.45
9.38
6.47
2.81
-1.25
-5.17
-8.50
-11.00
-12.84
-14.43
-16.38
-19.25
-23.39
-28.79
-35.02
-41.19
-46.15
-48.74
-48.10
-43.90
-36.47
-26.64
-15.56
-4.39
5.86
14.51
21.13
25.48
27.56
27.51
25.74
22.85
19.60
16.72
14.78
13.98
14.23
15.16
16.34
17.40
18.09
18.35
18.20
17.67
16.77
15.37
13.33
10.56
7.14
3.32
-0.51
-4.00
-6.97
-9.53
-12.00
-14.80
-18.28
-22.57
-27.54
-32.75
-37.52
-40.98
-42.29
-40.83
-36.39
-29.33
-20.41
-10.67
-1.06
7.65
14.94
20.46
23.96
25.27
24.44
21.84
18.20
14.45
11.43
9.66
9.22
9.80
10.89
12.01
12.89
13.38
13.44
12.97
11.79
9.73
6.72
2.96
-1.18
-5.21
-8.73
-11.59
-13.92
-16.07
-18.51
-21.67
-25.84
-31.02
-36.84
-42.54
-47.01
-49.07
-47.76
-42.70
-34.27
-23.44
-11.60
-0.08
10.04
18.11
23.80
27.04
27.95
26.86
24.32
21.05
17.84
15.34
13.93
13.62
14.12
14.99
15.83
16.39
16.62
16.51
16.04
15.05
13.28
10.54
6.83
2.45
-2.12
-6.31
-9.75
-12.34
-14.35
-16.29
-18.75
-22.26
-27.02
-32.80
-38.80
-43.84
-46.58
-45.96
-41.52
-33.56
-23.09
-11.50
-0.16
9.87
17.92
23.69
27.12
28.30
27.47
25.12
21.95
18.74
16.19
14.70
14.34
14.86
15.91
17.17
18.47
19.64
20.55
20.97
20.65
19.37
17.07
13.85
9.97
5.78
1.64
-2.10
-5.25
-7.80
-10.00
-12.33
-15.40
-19.67
-25.23
-31.58
-37.69
-42.21
-43.80
-41.67
-35.69
-26.55
-15.46
-3.89
6.83
15.74
22.30
26.40
28.17
27.89
25.94
22.86
19.28
15.94
13.52
12.43
12.78
14.28
16.42
18.59
20.32
21.35
21.61
21.13
19.90
17.91
15.13
11.65
7.70
3.62
-0.19
-3.46
-6.14
-8.47
-10.84
-13.78
-17.67
-22.61
-28.27
-33.89
-38.45
-40.88
-40.39
-36.63
-29.84
-20.69
-10.17
0.59
10.49
18.60
24.26
27.14
27.29
25.17
21.50
17.12
12.87
9.38
7.05
5.99
6.09
7.02
8.37
9.73
10.79
11.38
11.41
10.85
9.57
7.40
4.25
0.23
-4.26
-8.60
-12.19
-14.75
-16.45
-17.89
-19.85
-23.01
-27.64
-33.42
-39.44
-44.24
-46.17
-43.73
-36.04
-23.27
-6.79
10.98
27.21
39.36
45.92
46.61
42.34
34.76
25.75
17.05
10.13
6.09
5.60
8.72
14.83
22.61
30.31
36.26
39.29
39.05
35.94
30.84
24.79
18.65
12.93
7.81
3.22
-1.11
-5.47
-10.07
-14.97
-20.13
-25.46
-30.88
-36.35
-41.68
-46.36
-49.51
-50.02
-47.02
-40.28
-30.53
-19.24
-8.12
1.47
8.87
14.12
17.55
19.50
20.08
19.29
17.22
14.31
11.31
9.05
8.16
8.85
10.85
13.56
16.20
18.03
18.42
16.95
13.49
8.27
1.92
-4.48
-9.67
-12.53
-12.58
-10.33
-7.17
-4.98
-5.33
-8.97
-15.55
-23.85
-32.30
-39.42
-44.07
-45.48
-43.25
-37.38
-28.49
-17.74
-6.66
3.28
11.20
17.06
21.50
25.42
29.43
33.44
36.70
38.01
36.16
30.54
21.37
9.98
-1.37
-9.94
-13.22
-9.86
-0.27
13.21
26.90
37.03
40.92
37.91
29.38
17.98
6.60
-2.62
-8.65
-11.45
-11.67
-10.35
-8.80
-8.51
-10.84
-16.50
-24.99
-34.53
-42.44
-46.09
-43.92
-36.02
-24.11
-10.84
1.22
10.28
15.77
18.21
18.68
18.32
17.92
17.78
17.76
17.51
16.62
14.83
12.14
8.90
5.83
3.92
4.05
6.64
11.29
16.79
21.46
23.81
23.11
19.70
14.74
9.58
5.11
1.45
-1.94
-5.84
-10.84
-17.01
-23.96
-31.04
-37.55
-42.79
-46.11
-46.91
-44.74
-39.43
-31.25
-20.95
-9.73
0.96
9.72
15.50
17.87
17.14
14.33
10.92
8.51
8.46
11.53
17.55
25.28
32.66
37.37
37.62
32.97
24.54
14.59
5.53
-0.99
-4.67
-6.27
-6.93
-7.42
-7.87
-8.00
-7.66
-7.26
-7.66
-9.93
-14.68
-21.77
-30.18
-38.33
-44.52
-47.41
-46.36
-41.53
-33.77
-24.30
-14.30
-4.68
4.05
11.66
18.02
22.91
25.93
26.69
25.04
21.41
16.81
12.64
10.22
10.29
12.62
16.20
19.56
21.36
20.79
17.62
12.19
5.25
-2.07
-8.31
-11.89
-11.64
-7.46
-0.67
6.25
10.50
10.14
4.85
-4.09
-14.55
-24.65
-33.40
-40.66
-46.50
-50.46
-51.42
-48.09
-39.83
-27.37
-12.72
1.51
13.12
21.13
25.80
28.29
29.79
30.99
31.95
32.34
31.97
31.04
30.21
30.25
31.64
34.27
37.43
40.13
41.45
40.94
38.69
35.13
30.75
25.75
20.08
13.50
5.86
-2.70
-11.72
-20.52
-28.37
-34.76
-39.55
-42.94
-45.49
-47.87
-50.58
-53.71
-56.76
-58.73
-58.41
-54.82
-47.64
-37.35
-25.09
-12.35
-0.51
9.46
17.05
22.19
24.99
25.70
24.64
22.27
19.21
16.21
13.91
12.72
12.69
13.52
14.70
15.71
16.19
15.98
15.10
13.73
12.10
10.42
8.80
7.28
5.74
3.98
1.85
-0.76
-3.77
-7.02
-10.34
-13.62
-16.82
-19.83
-22.36
-23.86
-23.63
-21.06
-15.97
-8.70
-0.11
8.69
16.71
23.29
28.18
31.44
33.27
33.87
33.41
32.07
30.04
27.64
25.14
22.85
20.94
19.52
18.54
17.87
17.39
16.94
16.42
15.68
14.53
12.72
10.07
6.51
2.27
-2.19
-6.31
-9.66
-12.18
-14.15
-16.15
-18.74
-22.27
-26.66
-31.40
-35.67
-38.50
-38.96
-36.42
-30.75
-22.46
-12.66
-2.86
5.51
11.40
14.48
15.05
13.75
11.30
8.25
4.96
1.78
-0.93
-2.74
-3.29
-2.49
-0.64
1.72
3.94
5.60
6.52
6.80
6.55
5.84
4.57
2.59
-0.10
-3.29
-6.54
-9.43
-11.68
-13.36
-14.87
-16.76
-19.55
-23.52
-28.56
-34.07
-39.05
-42.28
-42.58
-39.26
-32.32
-22.49
-11.06
0.51
10.92
19.33
25.35
29.02
30.58
30.40
28.88
26.47
23.68
21.06
19.04
17.90
17.64
17.96
18.42
18.58
18.20
17.25
15.86
14.11
11.97
9.34
6.12
2.42
-1.49
-5.23
-8.47
-11.16
-13.39
-15.50
-17.88
-20.93
-24.88
-29.70
-34.92
-39.62
-42.57
-42.55
-38.85
-31.51
-21.40
-9.97
1.23
10.97
18.56
23.88
27.09
28.49
28.37
27.02
24.85
22.38
20.28
19.05
18.89
19.56
20.52
21.14
21.06
20.28
19.07
17.74
16.40
14.89
12.90
10.23
6.94
3.33
-0.20
-3.37
-6.15
-8.70
-11.26
-14.07
-17.33
-21.20
-25.78
-30.99
-36.41
-41.16
-44.10
-44.13
-40.60
-33.61
-24.04
-13.27
-2.71
6.53
13.84
19.04
22.25
23.68
23.57
22.22
20.06
17.61
15.41
13.90
13.27
13.43
14.10
14.88
15.41
15.51
15.17
14.47
13.56
12.48
11.12
9.32
6.95
4.03
0.78
-2.45
-5.36
-7.83
-9.97
-12.13
-14.71
-18.05
-22.24
-27.07
-31.91
-35.83
-37.74
-36.72
-32.39
-25.08
-15.76
-5.82
3.43
11.05
16.60
20.06
21.61
21.46
19.93
17.49
14.75
12.41
10.99
10.65
11.13
11.92
12.48
12.51
12.06
11.37
10.72
10.19
9.61
8.61
6.87
4.30
1.09
-2.30
-5.38
-7.95
-10.09
-12.21
-14.74
-18.00
-21.98
-26.38
-30.63
-34.00
-35.70
-35.05
-31.61
-25.39
-16.89
-7.14
2.64
11.25
17.87
22.10
23.97
23.79
22.02
19.17
15.79
12.42
9.53
7.49
6.50
6.52
7.32
8.47
9.55
10.15
10.01
9.10
7.51
5.45
3.10
0.59
-2.01
-4.72
-7.59
-10.64
-13.84
-17.13
-20.50
-24.00
-27.78
-31.93
-36.29
-40.31
-42.99
-43.24
-40.28
-34.04
-25.26
-15.27
-5.51
2.94
9.52
14.16
17.05
18.40
18.40
17.32
15.52
13.50
11.79
10.74
10.51
10.95
11.79
12.70
13.43
13.79
13.75
13.30
12.44
11.13
9.31
6.94
4.09
0.97
-2.13
-4.86
-7.07
-8.82
-10.45
-12.48
-15.46
-19.75
-25.33
-31.62
-37.55
-41.71
-42.82
-40.14
-33.72
-24.51
-14.03
-3.90
4.65
10.97
15.03
17.14
17.71
17.06
15.50
13.33
10.99
8.93
7.59
7.23
7.76
8.93
10.29
11.43
12.11
12.24
11.85
11.05
9.90
8.39
6.52
4.28
1.76
-0.88
-3.45
-5.81
-7.94
-9.94
-12.06
-14.57
-17.74
-21.60
-25.94
-30.12
-33.18
-34.12
-32.14
-27.01
-19.23
-9.88
-0.32
8.21
14.89
19.43
21.90
22.59
21.83
19.92
17.22
14.25
11.56
9.69
8.96
9.31
10.37
11.57
12.38
12.52
12.03
11.18
10.21
9.25
8.17
6.75
4.81
2.32
-0.51
-3.40
-6.06
-8.39
-10.41
-12.32
-14.42
-16.97
-20.18
-24.03
-28.19
-31.94
-34.33
-34.37
-31.44
-25.51
-17.23
-7.75
1.58
9.58
15.49
19.03
20.31
19.74
17.86
15.25
12.44
9.90
8.01
6.99
6.87
7.53
8.65
9.88
10.86
11.35
11.23
10.55
9.41
7.91
6.08
3.89
1.34
-1.50
-4.43
-7.17
-9.50
-11.39
-13.11
-15.10
-17.90
-21.76
-26.48
-31.28
-34.99
-36.37
-34.61
-29.57
-21.90
-12.80
-3.62
4.49
10.84
15.18
17.66
18.50
18.00
16.47
14.30
11.97
9.96
8.66
8.20
8.49
9.28
10.24
11.15
11.88
12.34
12.41
11.88
10.50
8.09
4.74
0.73
-3.44
-7.29
-10.47
-12.90
-14.78
-16.51
-18.62
-21.62
-25.81
-31.16
-37.08
-42.47
-45.90
-46.06
-42.26
-34.67
-24.36
-12.95
-2.06
7.07
13.74
17.89
19.78
19.88
18.73
16.91
14.96
13.33
12.38
12.19
12.68
13.59
14.62
15.46
15.96
16.06
15.85
15.41
14.69
13.49
11.52
8.54
4.60
0.03
-4.62
-8.78
-12.14
-14.73
-16.93
-19.28
-22.36
-26.50
-31.73
-37.59
-43.23
-47.42
-48.93
-46.81
-40.83
-31.61
-20.45
-9.00
1.30
9.53
15.41
19.12
21.09
21.73
21.38
20.40
19.18
18.24
18.03
18.78
20.42
22.54
24.58
26.03
26.65
26.43
25.59
24.33
22.71
20.68
18.13
14.99
11.30
7.26
3.07
-1.05
-4.91
-8.47
-11.82
-15.21
-19.00
-23.58
-29.06
-35.09
-40.84
-45.06
-46.50
-44.33
-38.37
-29.32
-18.44
-7.20
3.10
11.62
17.98
22.19
24.39
24.80
23.66
21.37
18.50
15.79
13.95
13.42
14.27
16.15
18.49
20.73
22.51
23.67
24.20
24.12
23.40
21.98
19.83
17.09
13.97
10.80
7.83
5.28
3.18
1.47
-0.04
-1.68
-3.88
-7.04
-11.30
-16.32
-21.07
-24.03
-23.60
-18.69
-9.22
3.75
18.30
32.24
43.82
52.13
57.24
59.95
61.30
62.16
63.03
63.97
64.72
64.83
63.87
61.51
57.65
52.57
46.95
41.81
38.09
36.22
35.80
35.65
34.29
30.62
24.41
16.49
8.44
2.00
-1.53
-1.64
1.40
6.76
13.34
20.10
26.26
31.33
35.05
37.39
38.39
38.13
36.87
35.04
33.18
31.65
30.41
28.84
26.12
21.58
15.20
7.75
0.45
-5.50
-9.59
-12.09
-14.05
-16.66
-20.81
-26.63
-33.50
-40.30
-45.96
-49.96
-52.41
-54.10
-55.90
-58.42
-61.74
-65.49
-69.14
-72.18
-74.31
-75.22
-74.63
-72.19
-67.81
-61.77
-54.72
-47.50
-40.73
-34.59
-28.84
-22.98
-16.69
-10.01
-3.39
2.61
7.51
11.17
13.72
15.45
16.63
17.37
17.70
17.59
17.12
16.45
15.84
15.41
15.17
14.96
14.51
13.63
12.23
10.40
8.42
6.61
5.21
4.21
3.40
2.43
1.11
-0.54
-2.19
-3.40
-3.85
-3.55
-2.81
-2.14
-1.92
-2.35
-3.37
-4.79
-6.37
-7.83
-8.97
-9.61
-9.71
-9.30
-8.55
-7.62
-6.61
-5.59
-4.62
-3.79
-3.23
-3.04
-3.16
-3.37
-3.39
-3.08
-2.58
-2.28
-2.60
-3.70
-5.31
-6.91
-7.88
-7.91
-7.06
-5.73
-4.36
-3.26
-2.47
-1.85
-1.25
-0.59
0.06
0.61
1.02
1.39
1.98
3.20
5.52
9.30
14.64
21.26
28.41
35.22
40.80
44.62
46.69
47.40
47.41
47.32
47.44
47.78
48.04
47.90
47.15
45.74
43.75
41.33
38.57
35.57
32.40
29.15
25.84
22.36
18.41
13.68
8.01
1.65
-4.74
-10.37
-14.60
-17.31
-18.87
-19.93
-21.01
-22.24
-23.42
-24.19
-24.20
-23.30
-21.39
-18.34
-13.96
-8.19
-1.34
5.78
11.91
15.79
16.57
14.10
8.98
2.24
-5.09
-12.14
-18.27
-22.94
-25.67
-26.19
-24.62
-21.71
-18.63
-16.64
-16.62
-18.74
-22.57
-27.36
-32.49
-37.65
-42.76
-47.76
-52.33
-55.91
-57.92
-58.10
-56.72
-54.59
-52.78
-52.16
-53.07
-55.12
-57.30
-58.39
-57.43
-54.20
-49.44
-44.56
-41.09
-39.98
-41.16
-43.50
-45.29
-44.93
-41.58
-35.34
-27.19
-18.46
-10.40
-3.83
0.94
4.01
5.71
6.48
6.78
6.94
7.15
7.44
7.68
7.68
7.25
6.24
4.60
2.34
-0.43
-3.47
-6.39
-8.66
-9.73
-9.22
-7.11
-3.82
-0.13
3.11
5.23
5.97
5.43
3.94
1.73
-1.07
-4.42
-8.24
-12.25
-16.02
-19.19
-21.63
-23.57
-25.42
-27.46
-29.62
-31.37
-31.98
-30.82
-27.64
-22.65
-16.39
-9.55
-2.71
3.61
9.03
13.26
16.14
17.70
18.24
18.17
17.87
17.58
17.33
17.07
16.71
16.22
15.67
15.12
14.65
14.31
14.14
14.07
13.97
13.64
12.89
11.65
9.99
8.12
6.30
4.73
3.52
2.59
1.74
0.65
-0.99
-3.40
-6.54
-10.09
-13.42
-15.78
-16.54
-15.34
-12.33
-7.99
-3.03
1.89
6.25
9.74
12.22
13.64
14.02
13.44
12.14
10.50
8.97
7.98
7.73
8.10
8.76
9.28
9.35
8.90
8.09
7.15
6.30
5.58
4.90
4.18
3.33
2.43
1.56
0.82
0.15
-0.60
-1.71
-3.42
-5.83
-8.87
-12.21
-15.52
-18.39
-20.58
-21.83
-21.90
-20.59
-17.83
-13.85
-9.15
-4.46
-0.44
2.54
4.49
5.71
6.53
7.11
7.45
7.47
7.28
7.11
7.24
7.87
8.94
10.24
11.51
12.60
13.44
14.02
14.29
14.10
13.27
11.70
9.45
6.72
3.85
1.21
-0.93
-2.48
-3.55
-4.49
-5.71
-7.57
-10.27
-13.70
-17.52
-21.09
-23.71
-24.74
-23.76
-20.79
-16.25
-10.88
-5.51
-0.87
2.64
4.95
6.19
6.63
6.51
6.09
5.63
5.34
5.46
6.11
7.29
8.89
10.68
12.33
13.52
14.06
13.90
13.11
11.87
10.33
8.56
6.62
4.55
2.45
0.52
-1.10
-2.41
-3.56
-4.91
-6.84
-9.61
-13.26
-17.43
-21.53
-24.78
-26.54
-26.45
-24.58
-21.31
-17.19
-12.71
-8.17
-3.80
0.24
3.73
6.49
8.44
9.71
10.57
11.36
12.25
13.27
14.30
15.14
15.74
16.11
16.36
16.60
16.89
17.23
17.47
17.42
16.85
15.58
13.63
11.21
8.62
6.14
3.91
1.91
-0.07
-2.29
-5.03
-8.54
-12.88
-17.87
-22.97
-27.33
-30.05
-30.40
-28.21
-23.80
-17.94
-11.49
-5.15
0.60
5.61
9.77
13.08
15.54
17.23
18.30
19.02
19.66
20.44
21.49
22.76
24.09
25.23
25.88
25.93
25.40
24.47
23.38
22.25
21.03
19.52
17.52
14.90
11.83
8.56
5.45
2.74
0.50
-1.43
-3.39
-5.80
-8.99
-13.06
-17.78
-22.55
-26.63
-29.28
-30.03
-28.69
-25.34
-20.28
-13.93
-6.82
0.47
7.25
12.95
17.23
20.05
21.69
22.58
23.16
23.70
24.32
25.04
25.85
26.70
27.54
28.24
28.69
28.77
28.47
27.85
27.05
26.14
25.12
23.84
22.10
19.80
16.99
13.92
10.92
8.26
6.02
4.02
1.98
-0.42
-3.44
-7.23
-11.73
-16.76
-21.89
-26.54
-29.95
-31.37
-30.30
-26.61
-20.70
-13.37
-5.57
1.84
8.34
13.73
18.05
21.38
23.82
25.34
25.99
25.95
25.56
25.22
25.24
25.72
26.55
27.46
28.13
28.44
28.32
27.89
27.24
26.47
25.57
24.54
23.35
21.95
20.32
18.50
16.47
14.30
12.06
9.79
7.46
5.07
2.53
-0.22
-3.26
-6.73
-10.70
-15.16
-19.81
-24.06
-27.10
-28.22
-27.08
-23.83
-19.01
-13.37
-7.50
-1.78
3.60
8.51
12.70
15.83
17.67
18.19
17.62
16.46
15.29
14.62
14.76
15.76
17.37
19.19
20.71
21.60
21.75
21.30
20.51
19.57
18.50
17.16
15.40
13.15
10.60
8.03
5.76
3.95
2.50
1.14
-0.38
-2.27
-4.62
-7.42
-10.65
-14.17
-17.75
-20.89
-22.96
-23.37
-21.78
-18.32
-13.49
-8.04
-2.64
2.26
6.49
9.98
12.67
14.39
15.00
14.53
13.23
11.59
10.17
9.43
9.57
10.50
11.95
13.52
14.88
15.82
16.25
16.20
15.76
15.02
14.07
12.95
11.67
10.25
8.66
6.91
4.98
2.92
0.80
-1.29
-3.30
-5.29
-7.44
-9.96
-13.01
-16.54
-20.30
-23.76
-26.39
-27.68
-27.34
-25.37
-21.95
-17.44
-12.27
-6.89
-1.76
2.71
6.21
8.56
9.73
9.86
9.23
8.22
7.25
6.68
6.73
7.41
8.52
9.73
10.77
11.42
11.67
11.63
11.49
11.32
11.19
11.01
10.66
10.03
9.00
7.55
5.72
3.59
1.33
-0.94
-3.14
-5.27
-7.45
-9.80
-12.42
-15.37
-18.61
-21.97
-25.13
-27.62
-28.92
-28.55
-26.27
-22.21
-16.82
-10.75
-4.72
0.66
5.02
8.20
10.18
11.09
11.11
10.49
9.51
8.41
7.40
6.65
6.24
6.23
6.61
7.33
8.27
9.23
10.03
10.49
10.51
10.12
9.44
8.62
7.80
6.97
6.03
4.83
3.28
1.39
-0.69
-2.79
-4.79
-6.64
-8.41
-10.26
-12.31
-14.64
-17.28
-20.12
-22.88
-25.12
-26.31
-25.97
-23.84
-20.01
-14.97
-9.41
-4.06
0.52
4.03
6.46
7.90
8.51
8.41
7.78
6.86
5.98
5.45
5.46
6.03
6.94
7.88
8.56
8.82
8.62
8.07
7.34
6.54
5.72
4.87
3.90
2.71
1.26
-0.46
-2.34
-4.18
-5.84
-7.19
-8.25
-9.16
-10.15
-11.44
-13.16
-15.35
-17.87
-20.50
-22.88
-24.59
-25.20
-24.36
-21.94
-18.06
-13.11
-7.70
-2.46
2.06
5.48
7.67
8.67
8.72
8.12
7.18
6.18
5.30
4.69
4.45
4.61
5.16
5.94
6.72
7.25
7.36
7.02
6.36
5.52
4.65
3.76
2.80
1.66
0.28
-1.28
-2.93
-4.46
-5.76
-6.73
-7.47
-8.19
-9.15
-10.63
-12.76
-15.53
-18.66
-21.70
-24.04
-25.09
-24.43
-21.97
-17.99
-13.11
-8.01
-3.35
0.53
3.51
5.65
7.12
8.02
8.37
8.20
7.61
6.74
5.83
5.10
4.72
4.71
4.94
5.18
5.19
4.80
3.98
2.88
1.69
0.60
-0.29
-1.04
-1.78
-2.63
-3.65
-4.72
-5.71
-6.50
-7.10
-7.63
-8.26
-9.18
-10.49
-12.24
-14.49
-17.15
-20.09
-22.90
-24.99
-25.71
-24.57
-21.46
-16.79
-11.27
-5.76
-0.92
2.95
5.82
7.79
8.97
9.41
9.13
8.28
7.17
6.16
5.61
5.65
6.16
6.83
7.31
7.41
7.09
6.54
5.93
5.42
5.02
4.64
4.11
3.35
2.27
0.89
-0.69
-2.28
-3.65
-4.61
-5.08
-5.20
-5.29
-5.82
-7.23
-9.78
-13.43
-17.79
-22.14
-25.58
-27.27
-26.68
-23.79
-19.13
-13.55
-7.97
-3.09
0.74
3.55
5.49
6.73
7.38
7.51
7.20
6.65
6.15
5.92
6.07
6.53
7.15
7.71
8.10
8.27
8.24
8.04
7.66
7.06
6.19
5.03
3.60
1.93
0.07
-1.87
-3.72
-5.34
-6.63
-7.58
-8.34
-9.14
-10.23
-11.81
-13.92
-16.48
-19.21
-21.68
-23.35
-23.73
-22.50
-19.65
-15.51
-10.65
-5.71
-1.18
2.63
5.65
7.88
9.35
10.12
10.21
9.72
8.78
7.60
6.41
5.38
4.63
4.18
4.02
4.09
4.36
4.74
5.18
5.57
5.85
5.92
5.69
5.11
4.12
2.73
1.00
-0.90
-2.78
-4.53
-6.12
-7.67
-9.38
-11.44
-13.89
-16.60
-19.18
-21.15
-22.01
-21.39
-19.13
-15.40
-10.60
-5.35
-0.32
3.96
7.18
9.27
10.30
10.37
9.63
8.23
6.42
4.54
3.03
2.21
2.23
2.98
4.17
5.47
6.58
7.44
8.03
8.38
8.42
7.95
6.78
4.81
2.19
-0.72
-3.44
-5.59
-7.00
-7.85
-8.48
-9.31
-10.66
-12.65
-15.25
-18.31
-21.54
-24.55
-26.80
-27.72
-26.81
-23.91
-19.29
-13.61
-7.74
-2.51
1.59
4.41
6.10
6.95
7.24
7.20
7.00
6.80
6.74
6.90
7.30
7.86
8.46
8.96
9.34
9.58
9.76
9.91
10.01
9.96
9.62
8.88
7.64
5.92
3.82
1.52
-0.80
-3.00
-5.05
-7.08
-9.32
-12.00
-15.30
-19.17
-23.35
-27.33
-30.47
-32.21
-32.12
-30.15
-26.44
-21.37
-15.42
-9.14
-3.05
2.42
6.88
10.13
12.12
13.05
13.23
13.05
12.87
12.96
13.42
14.19
15.10
15.93
16.54
16.88
16.97
16.88
16.64
16.17
15.40
14.27
12.82
11.17
9.40
7.59
5.72
3.79
1.81
-0.14
-2.08
-4.14
-6.57
-9.69
-13.62
-18.15
-22.67
-26.34
-28.34
-28.16
-25.78
-21.61
-16.39
-10.80
-5.37
-0.34
4.21
8.19
11.40
13.63
14.79
14.99
14.66
14.35
14.45
15.11
16.18
17.40
18.53
19.51
20.37
21.12
21.72
22.02
21.82
21.06
19.76
18.05
16.02
13.77
11.34
8.80
6.26
3.85
1.67
-0.29
-2.13
-4.07
-6.31
-9.04
-12.35
-16.15
-20.09
-23.65
-26.17
-27.02
-25.83
-22.55
-17.59
-11.64
-5.53
0.09
4.75
8.29
10.72
12.12
12.63
12.41
11.72
10.89
10.33
10.34
11.06
12.40
14.04
15.60
16.80
17.49
17.72
17.61
17.27
16.77
16.05
15.05
13.66
11.83
9.55
6.91
4.16
1.55
-0.66
-2.37
-3.67
-4.88
-6.43
-8.70
-11.89
-15.84
-20.09
-23.86
-26.33
-26.84
-25.09
-21.21
-15.78
-9.58
-3.40
2.17
6.82
10.43
12.96
14.39
14.77
14.29
13.32
12.36
11.85
12.04
12.87
14.03
15.16
15.94
16.30
16.30
16.10
15.80
15.40
14.86
14.09
13.05
11.69
9.98
7.92
5.55
2.97
0.32
-2.29
-4.81
-7.30
-9.92
-12.86
-16.28
-20.21
-24.45
-28.59
-32.02
-34.10
-34.29
-32.37
-28.48
-23.08
-16.86
-10.45
-4.40
1.00
5.56
9.18
11.79
13.36
14.04
14.11
13.96
13.98
14.46
15.48
16.92
18.54
20.03
21.16
21.76
21.82
21.37
20.58
19.58
18.48
17.30
15.94
14.28
12.21
9.75
7.05
4.38
1.99
0.04
-1.48
-2.82
-4.32
-6.37
-9.19
-12.82
-16.95
-21.04
-24.35
-26.15
-25.92
-23.49
-19.15
-13.46
-7.17
-0.99
4.58
9.21
12.73
15.04
16.09
15.92
14.80
13.10
11.37
10.16
9.81
10.39
11.64
13.09
14.26
14.83
14.73
14.14
13.32
12.47
11.63
10.68
9.43
7.74
5.62
3.22
0.81
-1.38
-3.21
-4.70
-6.03
-7.45
-9.23
-11.58
-14.55
-18.08
-21.90
-25.54
-28.42
-29.91
-29.52
-27.02
-22.56
-16.70
-10.20
-3.88
1.62
5.92
8.93
10.77
11.68
11.92
11.74
11.43
11.27
11.49
12.23
13.46
14.92
16.28
17.22
17.58
17.35
16.70
15.81
14.81
13.69
12.41
10.90
9.08
7.02
4.86
2.75
0.91
-0.60
-1.82
-3.01
-4.57
-6.91
-10.24
-14.37
-18.75
-22.54
-24.87
-25.17
-23.25
-19.41
-14.24
-8.51
-2.93
1.94
5.78
8.50
10.13
10.79
10.66
9.94
8.89
7.79
6.96
6.65
6.99
7.87
9.00
10.02
10.66
10.81
10.54
10.00
9.33
8.52
7.47
6.08
4.32
2.25
0.07
-2.03
-3.89
-5.46
-6.82
-8.16
-9.71
-11.71
-14.33
-17.57
-21.20
-24.75
-27.58
-29.04
-28.66
-26.30
-22.22
-17.02
-11.49
-6.34
-2.08
1.16
3.43
4.96
5.94
6.47
6.61
6.51
6.37
6.46
7.02
8.06
9.44
10.84
11.99
12.73
13.09
13.14
12.99
12.60
11.87
10.68
9.02
6.91
4.43
1.70
-1.14
-3.98
-6.63
-8.94
-10.90
-12.70
-14.68
-17.28
-20.76
-25.01
-29.52
-33.44
-35.86
-36.13
-33.99
-29.68
-23.78
-17.05
-10.24
-3.97
1.33
5.41
8.22
9.87
10.59
10.73
10.61
10.54
10.74
11.33
12.27
13.45
14.71
15.82
16.60
16.89
16.66
15.95
14.88
13.54
12.04
10.42
8.69
6.85
4.88
2.82
0.68
-1.54
-3.86
-6.25
-8.67
-11.10
-13.57
-16.21
-19.13
-22.34
-25.57
-28.32
-29.93
-29.85
-27.83
-24.01
-18.86
-12.99
-6.97
-1.29
3.64
7.55
10.26
11.74
12.19
11.94
11.46
11.15
11.28
11.94
13.04
14.41
15.78
16.91
17.53
17.58
17.09
16.26
15.33
14.41
13.50
12.43
11.04
9.21
6.97
4.46
1.81
-0.85
-3.44
-5.91
-8.26
-10.55
-12.89
-15.42
-18.25
-21.33
-24.38
-26.92
-28.34
-28.17
-26.10
-22.20
-16.84
-10.61
-4.21
1.77
6.86
10.78
13.44
14.93
15.44
15.26
14.68
13.99
13.38
12.99
12.88
13.06
13.48
14.02
14.51
14.78
14.74
14.40
13.86
13.21
12.46
11.49
10.19
8.50
6.53
4.46
2.47
0.62
-1.16
-2.97
-4.94
-7.09
-9.43
-11.98
-14.80
-17.87
-20.91
-23.44
-24.79
-24.40
-22.05
-17.98
-12.79
-7.27
-2.15
2.03
4.88
6.20
6.03
4.69
2.74
0.96
0.04
0.43
2.17
4.92
8.15
11.30
14.00
16.06
17.44
18.13
18.13
17.39
15.90
13.75
11.17
8.47
6.06
4.18
2.86
1.94
1.08
-0.03
-1.54
-3.49
-5.79
-8.38
-11.18
-14.04
-16.66
-18.54
-19.19
-18.29
-15.83
-12.17
-7.83
-3.34
0.89
4.60
7.60
9.72
10.83
10.96
10.30
9.21
8.08
7.26
6.90
7.00
7.46
8.14
8.90
9.61
10.16
10.45
10.38
9.89
8.86
7.26
5.10
2.57
-0.10
-2.60
-4.76
-6.53
-8.07
-9.64
-11.57
-14.07
-17.22
-20.82
-24.50
-27.70
-29.86
-30.52
-29.43
-26.64
-22.48
-17.42
-11.98
-6.62
-1.74
2.42
5.71
8.10
9.65
10.47
10.71
10.58
10.32
10.24
10.57
11.45
12.82
14.42
15.93
17.03
17.50
17.25
16.30
14.79
12.87
10.73
8.50
6.25
3.97
1.62
-0.79
-3.18
-5.39
-7.30
-8.94
-10.50
-12.34
-14.78
-17.98
-21.77
-25.66
-28.96
-30.95
-31.08
-29.13
-25.27
-19.94
-13.76
-7.37
-1.33
3.94
8.17
11.20
13.00
13.68
13.52
12.90
12.23
11.86
11.95
12.50
13.38
14.44
15.50
16.42
17.03
17.21
16.88
16.10
15.02
13.83
12.62
11.36
9.90
8.11
6.00
3.77
1.69
-0.12
-1.69
-3.28
-5.21
-7.69
-10.74
-14.16
-17.63
-20.78
-23.18
-24.50
-24.41
-22.73
-19.50
-14.99
-9.73
-4.32
0.69
4.90
8.11
10.29
11.48
11.82
11.51
10.86
10.22
9.96
10.27
11.15
12.44
13.83
15.08
16.02
16.59
16.77
16.56
15.93
14.86
13.34
11.36
9.00
6.37
3.67
1.14
-0.99
-2.64
-3.89
-4.97
-6.18
-7.76
-9.84
-12.45
-15.51
-18.81
-21.94
-24.42
-25.67
-25.31
-23.22
-19.58
-14.86
-9.65
-4.50
0.19
4.13
7.10
9.00
9.84
9.79
9.17
8.36
7.72
7.50
7.76
8.44
9.35
10.28
11.03
11.45
11.53
11.34
11.03
10.76
10.58
10.40
9.97
9.04
7.43
5.19
2.62
0.12
-1.99
-3.61
-4.96
-6.40
-8.30
-10.81
-13.81
-16.89
-19.54
-21.27
-21.71
-20.71
-18.32
-14.77
-10.47
-5.89
-1.48
2.38
5.47
7.72
9.18
9.93
10.09
9.78
9.18
8.56
8.19
8.26
8.84
9.78
10.85
11.82
12.54
13.01
13.23
13.19
12.78
11.85
10.27
8.01
5.22
2.17
-0.89
-3.71
-6.18
-8.28
-10.04
-11.53
-12.87
-14.22
-15.83
-17.90
-20.44
-23.15
-25.43
-26.54
-25.87
-23.25
-19.02
-13.84
-8.51
-3.62
0.48
3.68
5.97
7.35
7.81
7.47
6.58
5.52
4.69
4.40
4.75
5.65
6.84
8.08
9.19
10.11
10.89
11.58
12.18
12.57
12.53
11.81
10.32
8.09
5.32
2.35
-0.51
-3.00
-4.95
-6.36
-7.33
-8.07
-8.90
-10.16
-12.10
-14.80
-18.04
-21.32
-23.94
-25.21
-24.68
-22.25
-18.20
-13.14
-7.75
-2.67
1.71
5.17
7.71
9.34
10.16
10.22
9.66
8.70
7.68
6.92
6.69
7.08
7.98
9.10
10.13
10.76
10.86
10.47
9.80
9.12
8.61
8.32
8.07
7.58
6.61
5.03
2.94
0.59
-1.67
-3.64
-5.20
-6.47
-7.67
-9.15
-11.18
-13.94
-17.35
-21.03
-24.42
-26.78
-27.50
-26.24
-23.11
-18.55
-13.21
-7.76
-2.78
1.32
4.30
6.04
6.64
6.33
5.48
4.49
3.67
3.21
3.14
3.43
4.08
5.09
6.41
7.89
9.28
10.27
10.66
10.45
9.83
9.05
8.24
7.39
6.34
4.86
2.88
0.52
-1.98
-4.28
-6.17
-7.61
-8.80
-10.02
-11.58
-13.72
-16.50
-19.78
-23.23
-26.32
-28.46
-29.13
-28.01
-25.12
-20.81
-15.63
-10.21
-5.12
-0.75
2.69
5.12
6.60
7.24
7.25
6.91
6.54
6.45
6.87
7.93
9.57
11.58
13.64
15.43
16.72
17.42
17.56
17.30
16.76
16.04
15.15
14.03
12.56
10.67
8.36
5.76
3.15
0.78
-1.17
-2.74
-4.09
-5.47
-7.11
-9.06
-11.32
-13.72
-16.02
-17.89
-18.91
-18.66
-16.85
-13.48
-8.91
-3.75
1.33
5.77
9.24
11.70
13.24
13.97
13.99
13.40
12.35
11.09
9.94
9.21
9.07
9.50
10.21
10.86
11.14
10.97
10.46
9.86
9.39
9.05
8.66
7.96
6.76
5.07
3.12
1.27
-0.19
-1.15
-1.74
-2.26
-3.06
-4.44
-6.51
-9.24
-12.41
-15.70
-18.62
-20.63
-21.23
-20.05
-17.04
-12.52
-7.16
-1.73
3.05
6.76
9.26
10.67
11.21
11.12
10.54
9.70
8.75
7.94
7.49
7.52
8.01
8.81
9.71
10.51
11.09
11.43
11.57
11.53
11.25
10.59
9.42
7.70
5.59
3.36
1.28
-0.47
-1.92
-3.21
-4.55
-6.10
-7.89
-9.95
-12.21
-14.53
-16.62
-17.99
-18.13
-16.63
-13.41
-8.82
-3.60
1.45
5.64
8.61
10.32
10.91
10.56
9.52
8.03
6.37
4.85
3.72
3.13
3.04
3.33
3.86
4.52
5.23
5.90
6.42
6.64
6.43
5.71
4.50
2.89
1.04
-0.87
-2.65
-4.14
-5.30
-6.15
-6.95
-7.99
-9.58
-11.88
-14.80
-17.96
-20.76
-22.52
-22.62
-20.72
-16.84
-11.38
-5.09
1.13
6.49
10.45
12.80
13.69
13.40
12.29
10.66
8.72
6.70
4.88
3.49
2.72
2.59
2.94
3.52
4.10
4.50
4.67
4.58
4.16
3.33
2.04
0.37
-1.44
-3.05
-4.22
-4.94
-5.46
-6.23
-7.66
-9.95
-13.04
-16.55
-19.92
-22.53
-23.82
-23.42
-21.20
-17.30
-12.16
-6.44
-0.87
3.91
7.48
9.73
10.79
10.89
10.31
9.26
7.98
6.67
5.58
4.96
4.90
5.37
6.18
7.05
7.78
8.25
8.41
8.24
7.73
6.79
5.40
3.64
1.70
-0.14
-1.69
-2.89
-3.84
-4.80
-6.06
-7.83
-10.22
-13.16
-16.41
-19.58
-22.21
-23.82
-24.00
-22.52
-19.42
-15.00
-9.80
-4.43
0.55
4.75
7.97
10.13
11.22
11.32
10.64
9.51
8.32
7.50
7.31
7.79
8.76
9.92
10.96
11.70
12.07
12.10
11.83
11.28
10.42
9.19
7.55
5.58
3.43
1.30
-0.59
-2.19
-3.60
-4.98
-6.59
-8.59
-11.12
-14.14
-17.57
-21.10
-24.27
-26.44
-27.03
-25.67
-22.36
-17.55
-11.93
-6.23
-1.00
3.43
6.93
9.50
11.16
12.02
12.24
12.06
11.75
11.55
11.62
11.99
12.65
13.46
14.28
14.93
15.24
15.12
14.57
13.72
12.73
11.75
10.80
9.77
8.52
6.93
4.99
2.82
0.61
-1.43
-3.20
-4.72
-6.09
-7.49
-9.12
-11.13
-13.56
-16.27
-18.90
-20.92
-21.76
-20.96
-18.35
-14.20
-9.04
-3.59
1.43
5.54
8.49
10.29
11.13
11.26
10.92
10.30
9.59
8.91
8.43
8.24
8.43
8.98
9.78
10.60
11.19
11.40
11.19
10.74
10.22
9.82
9.54
9.25
8.73
7.79
6.41
4.70
2.86
1.04
-0.68
-2.30
-3.85
-5.34
-6.76
-8.13
-9.57
-11.26
-13.42
-16.16
-19.28
-22.30
-24.50
-25.15
-23.77
-20.30
-15.19
-9.20
-3.18
2.15
6.37
9.37
11.25
12.16
12.28
11.76
10.82
9.74
8.83
8.41
8.59
9.29
10.24
11.12
11.72
12.04
12.24
12.51
12.98
13.54
13.94
13.85
13.10
11.65
9.68
7.44
5.15
3.00
1.08
-0.57
-1.99
-3.20
-4.30
-5.42
-6.77
-8.55
-10.89
-13.79
-17.04
-20.18
-22.60
-23.71
-23.11
-20.73
-16.86
-12.04
-6.88
-1.98
2.24
5.55
7.83
9.14
9.61
9.47
9.01
8.49
8.10
7.96
8.13
8.54
9.12
9.70
10.12
10.24
10.02
9.51
8.84
8.17
7.61
7.20
6.85
6.38
5.67
4.64
3.30
1.77
0.18
-1.38
-2.86
-4.23
-5.47
-6.53
-7.39
-8.15
-9.05
-10.42
-12.56
-15.45
-18.72
-21.56
-23.03
-22.39
-19.50
-14.76
-9.08
-3.46
1.39
5.17
7.99
10.07
11.57
12.45
12.60
12.01
10.84
9.48
8.36
7.82
7.95
8.63
9.57
10.44
11.00
11.17
10.96
10.44
9.70
8.77
7.63
6.30
4.86
3.43
2.17
1.17
0.35
-0.43
-1.37
-2.57
-3.97
-5.43
-6.81
-8.06
-9.31
-10.77
-12.62
-14.86
-17.34
-19.70
-21.48
-22.25
-21.66
-19.56
-16.06
-11.50
-6.46
-1.57
2.61
5.74
7.72
8.66
8.75
8.15
7.03
5.64
4.27
3.25
2.85
3.20
4.17
5.49
6.76
7.70
8.17
8.19
7.89
7.47
7.01
6.57
6.02
5.24
4.10
2.56
0.68
-1.34
-3.30
-5.02
-6.40
-7.48
-8.38
-9.34
-10.60
-12.39
-14.78
-17.58
-20.37
-22.50
-23.30
-22.31
-19.43
-15.01
-9.69
-4.21
0.78
4.90
8.05
10.20
11.39
11.64
10.99
9.61
7.79
5.92
4.41
3.49
3.24
3.52
4.14
4.90
5.69
6.48
7.22
7.76
7.94
7.55
6.46
4.74
2.58
0.30
-1.74
-3.36
-4.55
-5.48
-6.42
-7.61
-9.17
-11.13
-13.43
-16.02
-18.90
-21.97
-24.95
-27.36
-28.61
-28.16
-25.79
-21.70
-16.40
-10.63
-5.02
-0.02
4.09
7.23
9.36
10.49
10.65
10.03
8.88
7.62
6.61
6.15
6.29
6.91
7.75
8.53
9.10
9.38
9.40
9.20
8.80
8.21
7.39
6.28
4.83
2.98
0.70
-1.90
-4.55
-6.93
-8.72
-9.84
-10.53
-11.19
-12.35
-14.31
-17.09
-20.35
-23.54
-26.00
-27.10
-26.49
-24.03
-19.94
-14.73
-9.04
-3.52
1.28
5.09
7.81
9.46
10.16
10.06
9.35
8.30
7.25
6.48
6.20
6.47
7.18
8.15
9.18
10.07
10.72
11.11
11.27
11.22
10.97
10.41
9.43
7.88
5.73
3.06
0.12
-2.75
-5.20
-7.00
-8.15
-8.86
-9.53
-10.69
-12.72
-15.79
-19.64
-23.69
-27.06
-28.96
-28.79
-26.35
-21.88
-15.98
-9.46
-3.13
2.38
6.71
9.76
11.60
12.36
12.18
11.23
9.83
8.38
7.39
7.22
7.95
9.34
10.95
12.31
13.12
13.29
12.91
12.18
11.26
10.28
9.29
8.25
7.10
5.79
4.33
2.79
1.30
-0.04
-1.23
-2.39
-3.66
-5.18
-7.10
-9.47
-12.25
-15.27
-18.18
-20.46
-21.57
-21.08
-18.83
-15.02
-10.10
-4.68
0.66
5.45
9.40
12.29
14.03
14.67
14.41
13.53
12.42
11.43
10.82
10.77
11.32
12.35
13.70
15.13
16.35
17.12
17.24
16.65
15.37
13.55
11.40
9.08
6.66
4.18
1.60
-1.01
-3.48
-5.59
-7.13
-8.07
-8.62
-9.17
-10.12
-11.75
-14.10
-16.91
-19.74
-22.10
-23.53
-23.57
-22.00
-18.74
-14.01
-8.31
-2.32
3.23
7.74
10.85
12.48
12.73
11.90
10.37
8.55
6.84
5.57
4.93
5.00
5.69
6.80
8.07
9.18
9.83
9.85
9.23
8.14
6.85
5.63
4.52
3.40
2.01
0.17
-2.09
-4.50
-6.71
-8.45
-9.75
-10.89
-12.37
-14.60
-17.72
-21.47
-25.22
-28.10
-29.36
-28.56
-25.68
-21.14
-15.58
-9.72
-4.17
0.62
4.33
6.76
7.85
7.71
6.67
5.20
3.86
3.13
3.26
4.25
5.86
7.71
9.46
10.88
11.89
12.54
12.93
13.06
12.83
12.06
10.59
8.40
5.64
2.58
-0.45
-3.18
-5.49
-7.42
-9.12
-10.84
-12.89
-15.52
-18.88
-22.92
-27.27
-31.31
-34.31
-35.56
-34.64
-31.52
-26.52
-20.23
-13.31
-6.36
0.08
5.63
10.03
13.20
15.21
16.30
16.77
16.93
17.02
17.28
17.81
18.71
19.91
21.22
22.35
23.01
23.04
22.48
21.53
20.38
19.13
17.68
15.84
13.47
10.63
7.60
4.69
2.13
-0.05
-2.02
-4.06
-6.48
-9.50
-13.28
-17.82
-22.91
-28.03
-32.43
-35.26
-35.80
-33.73
-29.16
-22.67
-15.05
-7.15
0.29
6.75
11.92
15.71
18.21
19.63
20.27
20.47
20.57
20.88
21.54
22.62
23.93
25.22
26.22
26.79
26.91
26.72
26.37
25.89
25.21
24.14
22.48
20.18
17.29
14.03
10.72
7.60
4.85
2.49
0.39
-1.68
-4.02
-6.94
-10.64
-15.17
-20.28
-25.47
-30.02
-33.22
-34.48
-33.52
-30.36
-25.29
-18.78
-11.40
-3.81
3.32
9.39
13.99
16.96
18.47
18.87
18.60
18.03
17.48
17.21
17.43
18.31
19.83
21.74
23.57
24.81
25.10
24.37
22.91
21.19
19.59
18.29
17.21
16.12
14.78
13.10
11.09
8.82
6.36
3.72
0.94
-1.92
-4.80
-7.68
-10.63
-13.81
-17.35
-21.24
-25.20
-28.72
-31.14
-31.84
-30.45
-26.87
-21.35
-14.43
-6.78
0.81
7.63
13.10
16.90
19.02
19.71
19.40
18.57
17.67
17.04
16.90
17.34
18.28
19.53
20.79
21.75
22.13
21.81
20.84
19.35
17.58
15.72
13.87
12.07
10.24
8.31
6.18
3.85
1.40
-0.96
-3.04
-4.71
-6.02
-7.23
-8.70
-10.79
-13.65
-17.16
-20.87
-24.13
-26.24
-26.63
-25.02
-21.51
-16.53
-10.72
-4.80
0.65
5.30
9.05
11.95
14.04
15.33
15.75
15.38
14.45
13.46
12.96
13.31
14.56
16.32
18.03
19.14
19.36
18.77
17.67
16.43
15.31
14.40
13.60
12.71
11.49
9.78
7.60
5.10
2.55
0.23
-1.71
-3.28
-4.64
-6.02
-7.69
-9.80
-12.36
-15.25
-18.11
-20.45
-21.65
-21.19
-18.79
-14.57
-9.03
-2.96
2.80
7.57
10.96
12.90
13.58
13.29
12.32
10.96
9.48
8.15
7.25
6.99
7.42
8.38
9.49
10.31
10.56
10.17
9.35
8.40
7.55
6.83
6.10
5.17
3.93
2.40
0.76
-0.78
-2.06
-3.05
-3.82
-4.53
-5.41
-6.65
-8.40
-10.67
-13.36
-16.19
-18.77
-20.64
-21.34
-20.55
-18.16
-14.33
-9.52
-4.30
0.69
4.94
8.13
10.08
10.77
10.29
8.85
6.85
4.76
3.13
2.36
2.63
3.84
5.62
7.52
9.08
9.94
9.93
9.08
7.60
5.77
3.87
2.10
0.51
-0.86
-2.08
-3.17
-4.20
-5.28
-6.61
-8.40
-10.79
-13.77
-17.17
-20.61
-23.60
-25.62
-26.27
-25.31
-22.76
-18.89
-14.10
-8.89
-3.69
1.06
5.05
8.01
9.80
10.38
9.89
8.60
6.89
5.14
3.67
2.71
2.37
2.60
3.28
4.21
5.14
5.84
6.15
5.93
5.17
3.91
2.27
0.42
-1.49
-3.30
-4.98
-6.50
-7.91
-9.27
-10.72
-12.40
-14.49
-17.11
-20.20
-23.48
-26.43
-28.45
-29.01
-27.86
-25.06
-20.93
-16.00
-10.86
-6.09
-2.15
0.67
2.29
2.89
2.75
2.19
1.44
0.57
-0.41
-1.40
-2.23
-2.67
-2.61
-2.12
-1.51
-1.08
-1.06
-1.43
-2.08
-2.89
-3.84
-5.06
-6.67
-8.67
-10.86
-12.95
-14.71
-16.10
-17.36
-18.88
-20.98
-23.80
-27.23
-30.99
-34.78
-38.31
-41.32
-43.37
-43.88
-42.20
-37.89
-31.03
-22.33
-12.94
-4.06
3.48
9.43
13.99
17.44
19.85
21.06
20.83
19.29
17.03
14.96
13.93
14.32
15.88
17.93
19.79
21.05
21.74
22.06
22.11
21.71
20.48
18.10
14.67
10.70
6.95
4.04
2.08
0.74
-0.68
-2.79
-5.84
-9.63
-13.62
-17.09
-19.25
-19.52
-17.48
-13.12
-6.89
0.34
7.48
13.46
17.45
19.09
18.54
16.51
14.13
12.67
13.12
15.76
19.98
24.46
27.78
28.92
27.70
24.63
20.58
16.30
12.19
8.37
4.80
1.55
-1.32
-3.75
-5.81
-7.69
-9.56
-11.57
-13.76
-16.17
-18.83
-21.77
-24.98
-28.32
-31.45
-33.84
-34.84
-33.77
-30.27
-24.39
-16.66
-8.04
0.39
7.75
13.49
17.43
19.67
20.33
19.57
17.62
14.86
11.88
9.32
7.72
7.24
7.71
8.62
9.40
9.64
9.14
7.95
6.25
4.21
1.96
-0.46
-3.04
-5.77
-8.57
-11.41
-14.27
-17.32
-20.82
-24.97
-29.71
-34.44
-38.16
-39.65
-37.97
-32.82
-24.76
-14.99
-4.95
4.09
11.38
16.64
20.02
21.80
22.34
21.95
20.94
19.56
18.03
16.50
15.19
14.26
13.81
13.83
14.16
14.47
14.43
13.81
12.57
10.81
8.74
6.46
4.04
1.45
-1.31
-4.22
-7.27
-10.50
-13.96
-17.75
-21.81
-25.92
-29.55
-31.98
-32.47
-30.48
-25.91
-19.11
-10.91
-2.31
5.71
12.43
17.47
20.80
22.63
23.22
22.84
21.72
20.07
18.14
16.22
14.59
13.46
12.89
12.75
12.77
12.63
12.03
10.78
8.84
6.26
3.19
-0.16
-3.63
-7.02
-10.25
-13.31
-16.26
-19.30
-22.62
-26.43
-30.76
-35.33
-39.43
-41.99
-41.85
-38.17
-30.86
-20.71
-9.21
1.92
11.27
18.12
22.44
24.68
25.43
25.17
24.21
22.74
20.97
19.16
17.55
16.28
15.41
14.82
14.33
13.71
12.80
11.51
9.90
8.17
6.56
5.26
4.24
3.23
1.78
-0.58
-4.17
-9.02
-14.90
-21.39
-27.94
-33.87
-38.31
-40.36
-39.33
-35.00
-27.97
-19.46
-11.00
-3.76
1.88
6.41
10.84
16.08
22.31
28.90
34.60
38.15
38.84
36.75
32.61
27.56
22.69
18.90
16.71
16.33
17.59
19.98
22.70
24.84
25.71
25.05
23.12
20.59
18.20
16.48
15.66
15.57
15.78
15.63
14.39
11.47
6.69
0.54
-5.79
-10.76
-12.93
-11.54
-6.67
0.81
9.70
18.77
27.02
33.79
38.70
41.61
42.66
42.15
40.49
38.03
35.03
31.61
27.93
24.25
20.90
18.23
16.44
15.53
15.25
15.16
14.71
13.35
10.68
6.61
1.45
-4.17
-9.60
-14.38
-18.46
-22.21
-26.14
-30.68
-36.00
-42.00
-48.29
-54.27
-59.12
-61.81
-61.41
-57.36
-49.87
-40.02
-29.57
-20.41
-13.93
-10.61
-9.98
-10.90
-12.07
-12.49
-11.73
-9.91
-7.52
-5.13
-3.20
-1.88
-1.11
-0.61
-0.15
0.38
0.88
1.16
1.00
0.35
-0.73
-2.10
-3.79
-5.98
-9.05
-13.29
-18.65
-24.68
-30.56
-35.35
-38.26
-38.81
-36.86
-32.55
-26.18
-18.22
-9.22
0.17
9.26
17.47
24.38
29.81
33.75
36.33
37.67
37.88
37.12
35.52
33.31
30.82
28.39
26.36
24.95
24.22
23.99
23.94
23.67
22.88
21.44
19.40
16.91
14.14
11.16
7.95
4.46
0.70
-3.23
-7.27
-11.47
-16.05
-21.21
-26.89
-32.52
-37.00
-39.03
-37.51
-32.02
-23.07
-11.87
0.02
11.12
20.38
27.25
31.56
33.43
33.14
31.11
27.92
24.16
20.49
17.41
15.25
14.17
14.17
15.12
16.73
18.54
19.97
20.42
19.45
16.94
13.15
8.59
3.88
-0.50
-4.28
-7.49
-10.31
-13.07
-16.15
-19.93
-24.65
-30.24
-36.14
-41.29
-44.30
-43.88
-39.36
-30.99
-19.92
-7.90
3.31
12.41
18.80
22.57
24.19
24.29
23.37
21.81
19.86
17.75
15.76
14.13
13.03
12.48
12.36
12.48
12.64
12.72
12.62
12.24
11.43
10.04
7.93
5.15
1.86
-1.66
-5.14
-8.40
-11.39
-14.19
-17.08
-20.34
-24.17
-28.53
-32.94
-36.56
-38.31
-37.24
-32.87
-25.43
-15.82
-5.35
4.64
13.05
19.24
23.02
24.55
24.15
22.29
19.51
16.38
13.48
11.25
9.95
9.51
9.67
10.06
10.37
10.42
10.14
9.60
8.84
7.86
6.60
4.97
2.92
0.46
-2.32
-5.26
-8.22
-11.14
-14.04
-17.10
-20.56
-24.60
-29.18
-33.85
-37.79
-39.99
-39.48
-35.76
-29.00
-19.99
-9.97
-0.25
8.16
14.65
19.09
21.54
22.22
21.35
19.21
16.20
12.89
9.90
7.76
6.70
6.64
7.18
7.87
8.36
8.52
8.38
8.11
7.76
7.25
6.41
5.04
3.12
0.72
-1.92
-4.60
-7.22
-9.86
-12.71
-16.01
-19.91
-24.40
-29.29
-34.08
-38.07
-40.36
-40.11
-36.75
-30.31
-21.46
-11.40
-1.46
7.24
14.03
18.75
21.55
22.71
22.54
21.34
19.46
17.34
15.44
14.09
13.45
13.43
13.81
14.27
14.56
14.53
14.09
13.24
12.02
10.50
8.70
6.61
4.20
1.49
-1.45
-4.46
-7.41
-10.15
-12.70
-15.24
-18.10
-21.58
-25.86
-30.77
-35.76
-39.90
-42.18
-41.77
-38.34
-32.16
-24.01
-14.97
-6.07
1.89
8.41
13.24
16.33
17.72
17.56
16.13
13.82
11.16
8.67
6.81
5.88
5.92
6.72
7.93
9.12
9.96
10.27
9.98
9.08
7.57
5.42
2.71
-0.35
-3.48
-6.35
-8.76
-10.74
-12.54
-14.57
-17.24
-20.82
-25.30
-30.33
-35.17
-38.77
-40.05
-38.27
-33.23
-25.48
-16.09
-6.40
2.44
9.64
14.87
18.12
19.54
19.42
18.06
15.91
13.47
11.21
9.53
8.61
8.44
8.86
9.62
10.47
11.17
11.57
11.49
10.82
9.50
7.50
4.88
1.78
-1.58
-4.99
-8.24
-11.24
-14.03
-16.78
-19.80
-23.35
-27.62
-32.50
-37.49
-41.76
-44.28
-44.12
-40.77
-34.34
-25.54
-15.51
-5.51
3.43
10.59
15.66
18.67
19.82
19.47
18.02
15.89
13.55
11.41
9.85
9.10
9.18
9.91
10.93
11.84
12.30
12.15
11.45
10.32
8.88
7.15
5.04
2.49
-0.41
-3.43
-6.23
-8.61
-10.58
-12.40
-14.51
-17.33
-21.12
-25.89
-31.29
-36.66
-41.00
-43.22
-42.41
-38.13
-30.70
-21.14
-10.83
-1.12
7.05
13.31
17.75
20.61
22.09
22.33
21.44
19.69
17.49
15.38
13.87
13.27
13.61
14.64
15.91
16.95
17.44
17.29
16.64
15.71
14.60
13.22
11.33
8.74
5.45
1.78
-1.86
-5.05
-7.68
-9.90
-12.08
-14.62
-17.85
-21.95
-26.95
-32.66
-38.51
-43.59
-46.70
-46.77
-43.19
-36.14
-26.55
-15.78
-5.21
4.18
11.85
17.64
21.60
23.78
24.29
23.35
21.41
19.09
17.10
15.98
16.07
17.28
19.22
21.28
22.79
23.34
22.78
21.32
19.34
17.26
15.34
13.57
11.75
9.67
7.17
4.28
1.19
-1.87
-4.70
-7.25
-9.59
-11.94
-14.62
-17.97
-22.24
-27.49
-33.42
-39.30
-44.02
-46.32
-45.09
-39.86
-30.97
-19.59
-7.36
4.04
13.39
20.11
24.29
26.35
26.81
26.08
24.48
22.33
20.03
18.08
16.91
16.76
17.58
19.03
20.60
21.82
22.34
22.00
20.88
19.17
17.14
14.97
12.75
10.46
8.01
5.33
2.43
-0.61
-3.63
-6.46
-8.97
-11.12
-13.01
-14.90
-17.16
-20.21
-24.33
-29.48
-35.17
-40.45
-44.04
-44.74
-41.76
-35.05
-25.33
-13.93
-2.41
7.92
16.21
22.19
25.95
27.78
28.01
26.95
24.96
22.53
20.19
18.42
17.59
17.85
19.08
21.00
23.14
24.98
26.05
26.04
24.90
22.86
20.30
17.64
15.11
12.71
10.26
7.56
4.52
1.25
-2.06
-5.16
-7.93
-10.42
-12.74
-15.08
-17.59
-20.44
-23.84
-27.93
-32.67
-37.58
-41.78
-44.09
-43.33
-38.89
-30.96
-20.53
-9.08
1.91
11.34
18.72
23.93
27.08
28.35
27.90
26.04
23.26
20.23
17.63
16.00
15.61
16.47
18.25
20.53
22.80
24.64
25.78
26.12
25.73
24.73
23.26
21.37
19.08
16.37
13.26
9.85
6.28
2.70
-0.73
-3.95
-6.88
-9.51
-11.86
-14.03
-16.20
-18.69
-21.82
-25.83
-30.77
-36.30
-41.68
-45.83
-47.54
-45.92
-40.58
-31.93
-21.05
-9.42
1.54
10.76
17.72
22.42
25.12
26.15
25.81
24.33
22.02
19.30
16.73
14.87
14.12
14.61
16.12
18.16
20.17
21.64
22.31
22.17
21.38
20.16
18.65
16.91
14.90
12.59
10.01
7.22
4.33
1.42
-1.42
-4.16
-6.79
-9.34
-11.87
-14.49
-17.36
-20.63
-24.43
-28.82
-33.68
-38.62
-42.94
-45.68
-45.80
-42.58
-35.89
-26.35
-15.23
-4.06
5.87
13.75
19.31
22.72
24.26
24.22
22.88
20.60
17.90
15.43
13.77
13.32
14.13
15.86
18.03
20.08
21.63
22.48
22.64
22.23
21.33
20.02
18.23
15.89
13.02
9.82
6.54
3.51
0.85
-1.50
-3.77
-6.22
-8.93
-11.78
-14.57
-17.20
-19.84
-22.94
-27.01
-32.15
-37.90
-43.18
-46.61
-46.99
-43.72
-36.98
-27.62
-16.82
-5.80
4.46
13.26
20.15
24.87
27.33
27.63
26.11
23.34
20.03
16.87
14.45
13.11
12.90
13.64
15.01
16.60
18.08
19.19
19.78
19.80
19.25
18.19
16.65
14.66
12.17
9.17
5.67
1.82
-2.06
-5.63
-8.60
-10.88
-12.65
-14.29
-16.25
-18.90
-22.47
-26.98
-32.23
-37.75
-42.78
-46.31
-47.36
-45.18
-39.61
-31.16
-20.87
-10.02
0.19
8.90
15.61
20.10
22.34
22.47
20.80
17.94
14.70
11.96
10.40
10.35
11.71
14.01
16.57
18.83
20.40
21.14
21.13
20.51
19.39
17.81
15.73
13.16
10.13
6.83
3.43
0.12
-3.03
-6.10
-9.21
-12.46
-15.97
-19.82
-24.12
-28.96
-34.32
-39.87
-44.90
-48.40
-49.33
-46.93
-41.09
-32.31
-21.70
-10.54
-0.10
8.73
15.50
20.12
22.79
23.78
23.42
22.01
19.94
17.73
15.95
15.13
15.51
16.95
18.97
20.94
22.28
22.78
22.48
21.65
20.46
18.95
16.98
14.29
10.81
6.60
2.00
-2.55
-6.64
-9.98
-12.53
-14.50
-16.32
-18.48
-21.49
-25.65
-30.93
-36.83
-42.46
-46.61
-48.12
-46.15
-40.50
-31.69
-20.85
-9.43
1.18
9.99
16.51
20.72
22.89
23.39
22.62
20.98
18.91
16.90
15.43
14.84
15.29
16.64
18.54
20.48
21.96
22.65
22.45
21.51
20.13
18.58
16.95
15.11
12.82
9.86
6.24
2.22
-1.80
-5.44
-8.55
-11.21
-13.67
-16.20
-19.10
-22.61
-26.94
-32.10
-37.72
-42.93
-46.47
-47.06
-43.88
-36.89
-26.99
-15.65
-4.43
5.46
13.44
19.41
23.49
25.81
26.39
25.33
22.95
19.86
16.89
14.85
14.16
14.78
16.19
17.70
18.69
18.83
18.12
16.74
14.88
12.57
9.80
6.59
3.06
-0.52
-3.86
-6.76
-9.25
-11.52
-13.86
-16.53
-19.64
-23.21
-27.15
-31.35
-35.70
-40.01
-44.05
-47.48
-49.96
-51.13
-50.64
-48.16
-43.45
-36.50
-27.64
-17.56
-7.24
2.27
10.08
15.64
18.86
20.03
19.67
18.38
16.73
15.10
13.75
12.80
12.24
12.04
12.11
12.31
12.44
12.24
11.53
10.24
8.49
6.49
4.47
2.51
0.48
-1.82
-4.47
-7.21
-9.40
-10.22
-9.01
-5.69
-0.89
4.21
8.21
10.00
8.98
5.11
-1.25
-9.46
-18.50
-26.99
-33.11
-35.09
-31.80
-23.33
-11.09
2.58
15.23
25.08
31.43
34.47
34.86
33.33
30.54
27.23
24.31
22.80
23.46
26.41
31.06
36.25
40.83
43.97
45.42
45.42
44.41
42.85
41.06
39.18
37.26
35.19
32.82
30.01
26.69
22.99
19.22
15.81
13.00
10.76
8.74
6.32
3.01
-1.39
-6.50
-11.45
-15.02
-16.02
-13.63
-7.66
1.32
12.21
23.63
34.26
43.15
49.77
53.97
55.81
55.43
53.09
49.19
44.38
39.52
35.47
32.79
31.55
31.31
31.39
31.21
30.70
30.23
30.50
32.04
34.92
38.57
41.99
44.13
44.32
42.45
39.01
34.81
30.57
26.63
22.85
18.71
13.65
7.46
0.35
-7.16
-14.53
-21.46
-27.89
-33.78
-38.79
-42.26
-43.46
-41.98
-38.15
-32.89
-27.25
-21.75
-16.09
-9.34
-0.73
9.62
20.28
28.97
33.51
32.75
27.15
18.38
8.58
-0.53
-8.14
-14.14
-18.63
-21.53
-22.42
-20.91
-17.04
-11.59
-6.01
-2.04
-1.10
-3.79
-9.63
-17.29
-25.04
-31.41
-35.71
-38.12
-39.34
-40.06
-40.48
-40.22
-38.55
-34.98
-29.66
-23.37
-17.18
-11.99
-8.08
-5.20
-2.76
-0.27
2.51
5.37
7.92
9.82
10.99
11.60
12.03
12.64
13.66
15.11
16.88
18.82
20.86
22.93
24.99
26.96
28.78
30.44
32.01
33.62
35.29
36.81
37.65
37.13
34.58
29.77
22.98
15.09
7.18
0.28
-5.03
-8.72
-11.22
-13.20
-15.23
-17.62
-20.41
-23.38
-26.26
-28.73
-30.57
-31.57
-31.64
-30.79
-29.18
-27.17
-25.21
-23.73
-23.01
-23.10
-23.80
-24.81
-25.79
-26.56
-27.04
-27.31
-27.42
-27.42
-27.28
-26.95
-26.40
-25.69
-24.97
-24.43
-24.21
-24.28
-24.53
-24.81
-25.11
-25.54
-26.29
-27.44
-28.86
-30.19
-31.00
-31.01
-30.28
-29.16
-28.16
-27.66
-27.77
-28.24
-28.63
-28.45
-27.41
-25.51
-23.01
-20.31
-17.80
-15.71
-14.04
-12.65
-11.34
-9.93
-8.38
-6.78
-5.32
-4.19
-3.58
-3.50
-3.81
-4.19
-4.24
-3.72
-2.56
-0.95
0.77
2.25
3.24
3.68
3.65
3.30
2.79
2.23
1.70
1.22
0.74
0.22
-0.42
-1.17
-1.95
-2.73
-3.49
-4.29
-5.11
-5.80
-6.09
-5.64
-4.23
-1.96
0.78
3.45
5.56
6.90
7.59
8.00
8.52
9.41
10.71
12.21
13.65
14.81
15.58
16.12
16.67
17.54
18.83
20.49
22.28
23.88
25.08
25.78
26.01
25.85
25.39
24.75
24.28
24.44
25.71
28.15
31.21
33.69
34.24
31.86
26.42
18.57
9.40
-0.11
-9.42
-18.29
-26.58
-33.97
-39.95
-44.06
-46.13
-46.52
-45.90
-45.12
-44.94
-45.78
-47.65
-50.03
-52.07
-52.78
-51.42
-47.86
-42.62
-36.61
-30.79
-25.70
-21.49
-17.97
-14.92
-12.23
-9.96
-8.23
-7.05
-6.41
-6.17
-6.13
-6.14
-6.04
-5.82
-5.51
-5.24
-5.14
-5.27
-5.55
