1520875213.00
64.000000
-0.00
-0.00
-0.00
-0.00
-0.00
-0.00
-0.00
-0.00
-0.00
-0.00
0.00
0.01
0.01
-0.00
-0.03
-0.05
-0.05
0.00
0.13
0.36
0.66
1.01
1.37
1.72
2.06
2.40
2.79
3.24
3.80
4.42
5.06
5.66
6.20
6.68
7.15
7.68
8.31
9.14
10.09
11.04
11.88
12.56
13.14
13.76
14.65
15.96
17.91
20.32
22.90
25.38
27.58
29.57
31.68
34.32
37.81
42.54
48.15
54.10
59.83
64.97
69.58
74.14
79.34
85.71
93.76
103.00
112.62
121.73
129.77
136.75
143.30
150.75
157.77
166.64
177.95
191.79
206.97
220.57
228.25
225.36
208.53
176.87
132.76
80.05
23.07
-34.94
-92.44
-149.16
-205.23
-260.37
-313.74
-363.87
-409.83
-450.91
-486.50
-515.74
-537.23
-549.22
-549.96
-538.37
-514.21
-478.67
-433.88
-382.45
-327.02
-269.84
-212.63
-156.66
-102.95
-52.37
-5.90
35.58
71.43
101.35
125.50
144.38
158.69
169.15
176.37
180.75
182.57
182.07
179.51
175.23
169.65
163.18
156.15
148.81
141.30
133.69
126.02
118.33
110.69
103.16
95.80
88.68
81.83
75.25
68.95
62.95
57.25
51.86
46.78
42.03
37.59
33.45
29.61
26.07
22.81
19.83
17.11
14.67
12.48
10.54
8.83
7.35
6.07
4.97
4.05
3.27
2.62
2.09
1.65
1.30
1.01
0.79
0.61
0.47
0.37
0.28
0.22
0.18
0.15
0.13
0.12
0.12
0.13
0.14
0.16
0.19
0.22
0.25
0.29
0.33
0.38
0.42
0.47
0.51
0.57
0.62
0.67
0.73
0.79
0.86
0.93
1.01
1.10
1.20
1.32
1.44
1.58
1.74
1.91
2.11
2.33
2.56
2.83
3.12
3.44
3.79
4.18
4.61
5.09
5.59
6.12
6.66
7.20
7.75
8.32
8.93
9.61
10.35
11.17
12.05
12.98
13.94
14.96
16.01
17.14
18.33
19.56
20.76
21.81
22.60
22.95
22.78
22.00
20.58
18.52
15.83
12.52
8.55
4.00
-1.04
-6.32
-11.56
-16.40
-20.53
-23.79
-26.21
-27.94
-29.25
-30.37
-31.39
-32.26
-32.81
-32.89
-32.49
-31.75
-30.99
-30.59
-30.79
-31.60
-32.82
-34.09
-35.07
-35.58
-35.67
-35.50
-35.43
-35.87
-37.32
-40.18
-44.42
-49.25
-52.99
-53.41
-48.52
-37.34
-20.47
0.06
21.40
40.84
56.46
67.32
73.23
74.42
71.28
64.47
55.11
44.65
34.77
26.78
21.32
18.27
17.09
17.08
17.86
19.25
21.15
23.35
25.40
26.71
26.87
25.70
23.16
19.49
14.99
9.73
3.77
-2.81
-9.66
-16.24
-22.02
-26.62
-29.98
-32.34
-34.11
-35.71
-37.54
-40.04
-43.67
-48.73
-55.08
-61.81
-67.25
-69.40
-66.48
-57.67
-43.43
-25.44
-6.11
12.07
27.19
38.17
44.79
47.50
47.08
44.29
39.85
34.29
28.06
21.65
15.54
10.21
6.01
3.10
1.37
0.42
-0.26
-1.32
-3.40
-7.00
-12.31
-19.06
-26.39
-32.96
-37.28
-38.14
-35.18
-29.14
-21.63
-14.76
-10.55
-10.21
-13.94
-20.68
-28.37
-34.26
-35.63
-30.46
-18.13
0.30
22.32
44.73
64.45
79.37
88.51
91.97
90.56
85.22
77.09
67.31
57.11
47.69
40.13
35.13
32.87
32.99
34.64
36.82
38.70
39.72
39.77
38.93
37.27
34.65
30.69
25.05
17.60
8.69
-0.83
-9.85
-17.21
-22.17
-24.60
-25.05
-24.71
-25.09
-27.57
-32.97
-41.10
-50.69
-59.61
-65.48
-66.36
-61.33
-50.64
-35.48
-17.65
0.90
18.36
33.23
44.43
51.34
53.89
52.50
48.04
41.66
34.62
28.18
23.29
20.51
19.66
19.99
20.42
20.09
18.73
16.72
14.78
13.33
12.28
10.96
8.66
4.99
0.20
-5.00
-9.87
-13.99
-17.46
-20.67
-24.05
-27.86
-32.19
-37.01
-42.22
-47.62
-52.74
-56.66
-58.03
-55.51
-48.07
-35.57
-18.92
0.07
19.12
36.08
49.38
58.30
62.84
63.48
60.89
55.79
48.98
41.37
34.04
28.00
23.89
21.74
20.98
20.76
20.33
19.47
18.41
17.61
17.31
17.29
16.92
15.50
12.62
8.33
3.08
-2.67
-8.60
-14.73
-21.36
-28.88
-37.72
-47.93
-59.07
-69.99
-78.88
-83.76
-83.08
-76.35
-64.36
-48.93
-32.17
-15.90
-1.26
11.18
21.08
28.09
31.87
32.32
29.80
25.28
20.05
15.49
12.59
11.74
12.80
15.10
17.85
20.33
22.06
22.79
22.46
21.00
18.29
14.27
9.01
2.92
-3.37
-9.26
-14.35
-18.69
-22.76
-27.23
-32.75
-39.60
-47.58
-55.88
-63.28
-68.28
-69.45
-65.76
-56.94
-43.59
-27.25
-9.97
6.10
19.19
28.39
33.66
35.66
35.37
33.71
31.27
28.39
25.26
22.16
19.43
17.40
16.18
15.66
15.52
15.37
14.87
13.83
12.13
9.70
6.51
2.55
-2.04
-7.07
-12.32
-17.65
-23.02
-28.43
-33.93
-39.60
-45.64
-52.15
-58.98
-65.45
-70.29
-71.94
-68.99
-60.87
-48.10
-32.21
-15.26
0.84
14.74
25.82
33.90
38.97
41.06
40.31
37.18
32.53
27.50
23.17
20.15
18.42
17.56
17.01
16.52
16.15
16.11
16.38
16.51
15.80
13.50
9.30
3.52
-3.06
-9.45
-14.94
-19.31
-22.85
-26.23
-30.21
-35.44
-42.22
-50.32
-58.82
-66.24
-70.69
-70.41
-64.31
-52.46
-36.15
-17.57
0.85
17.09
29.91
38.91
44.20
46.21
45.49
42.68
38.63
34.34
30.82
28.84
28.64
29.87
31.69
33.12
33.45
32.59
31.03
29.47
28.34
27.39
25.73
22.39
16.91
9.73
1.99
-5.10
-10.83
-15.26
-18.93
-22.49
-26.48
-31.24
-37.00
-43.84
-51.27
-58.05
-62.29
-62.14
-56.56
-45.88
-31.64
-16.06
-1.15
11.73
21.93
29.27
33.80
35.60
34.90
32.20
28.30
24.11
20.49
18.03
16.87
16.68
16.87
16.79
16.06
14.68
12.93
11.11
9.19
6.89
3.74
-0.58
-6.10
-12.54
-19.46
-26.34
-32.71
-38.23
-42.78
-46.60
-50.39
-55.09
-61.40
-69.36
-77.91
-85.14
-88.79
-86.99
-78.90
-65.00
-46.89
-26.81
-7.09
10.39
24.52
34.88
41.67
45.35
46.39
45.21
42.25
38.21
34.03
30.74
29.08
29.20
30.49
31.98
32.75
32.32
30.66
28.01
24.49
19.94
14.10
6.84
-1.48
-10.11
-18.09
-24.65
-29.54
-33.06
-36.10
-39.76
-45.08
-52.55
-61.86
-71.67
-79.96
-84.52
-83.58
-76.43
-63.59
-46.57
-27.49
-8.51
8.57
22.52
32.73
39.25
42.62
43.78
43.77
43.49
43.41
43.60
43.78
43.59
42.83
41.66
40.46
39.60
39.11
38.62
37.33
34.53
29.87
23.50
15.98
8.01
0.13
-7.35
-14.30
-20.64
-26.39
-31.75
-37.22
-43.56
-51.43
-60.89
-71.03
-79.92
-85.15
-84.51
-76.81
-62.37
-42.95
-21.26
-0.04
18.53
33.32
44.18
51.51
55.91
57.80
57.52
55.40
51.96
47.94
44.14
41.20
39.41
38.68
38.58
38.62
38.39
37.72
36.58
35.01
32.91
29.96
25.69
19.71
12.11
3.52
-5.09
-12.70
-18.81
-23.58
-27.86
-32.78
-39.33
-47.99
-58.35
-69.17
-78.48
-84.01
-83.82
-76.89
-63.51
-45.32
-24.72
-4.23
14.23
29.70
41.96
51.21
57.64
61.28
62.08
60.20
56.28
51.40
46.87
43.79
42.67
43.34
45.04
46.84
47.93
47.83
46.43
43.83
40.24
35.78
30.53
24.50
17.69
10.14
2.10
-5.97
-13.48
-19.95
-25.20
-29.57
-33.73
-38.41
-44.10
-50.97
-58.91
-67.64
-76.68
-85.14
-91.65
-94.46
-91.85
-82.82
-67.58
-47.51
-24.87
-2.11
18.71
36.18
49.60
58.79
64.00
65.82
65.10
62.83
59.94
57.17
55.03
53.82
53.61
54.31
55.65
57.12
58.11
58.07
56.71
54.01
50.26
45.77
40.71
35.17
29.12
22.63
15.90
9.15
2.47
-4.24
-11.10
-18.13
-25.09
-31.69
-37.76
-43.53
-49.60
-56.68
-65.02
-74.03
-82.13
-87.11
-86.74
-79.57
-65.52
-46.04
-23.77
-1.74
17.46
32.32
42.60
49.00
52.52
53.96
53.69
51.89
48.92
45.46
42.45
40.67
40.43
41.38
42.78
43.83
44.05
43.42
42.22
40.75
39.13
37.12
34.29
30.23
24.73
17.97
10.50
3.06
-3.63
-9.25
-13.94
-18.28
-23.07
-29.01
-36.51
-45.63
-55.90
-66.38
-75.57
-81.48
-82.13
-76.09
-63.21
-44.86
-23.69
-2.79
15.20
28.80
37.77
42.70
44.48
43.81
41.25
37.33
32.88
28.93
26.49
26.14
27.76
30.61
33.58
35.65
36.17
35.02
32.44
28.76
24.21
18.73
12.08
4.11
-5.01
-14.69
-23.99
-31.97
-38.06
-42.24
-45.15
-47.76
-50.94
-55.14
-60.26
-65.65
-70.30
-73.01
-72.61
-68.15
-59.10
-45.50
-28.07
-8.23
12.18
31.31
47.58
60.09
68.62
73.47
75.23
74.44
71.56
67.02
61.38
55.41
50.07
46.18
44.14
43.64
43.86
43.82
42.84
40.79
38.05
35.09
32.15
28.92
24.89
19.53
12.80
5.13
-2.72
-10.03
-16.39
-21.72
-26.24
-30.20
-33.91
-37.81
-42.49
-48.57
-56.30
-65.31
-74.26
-81.18
-83.89
-80.82
-71.49
-56.70
-38.29
-18.58
0.22
16.43
29.13
38.07
43.47
45.77
45.54
43.32
39.75
35.50
31.39
28.26
26.74
27.07
28.92
31.44
33.52
34.27
33.31
30.86
27.65
24.47
21.80
19.50
16.99
13.42
8.24
1.40
-6.51
-14.40
-21.23
-26.43
-30.15
-33.08
-36.18
-40.27
-45.77
-52.62
-60.31
-68.04
-74.66
-78.87
-79.30
-74.93
-65.43
-51.38
-34.22
-15.85
1.69
16.79
28.39
36.08
39.98
40.61
38.76
35.26
31.04
26.94
23.73
21.97
21.90
23.31
25.56
27.77
29.16
29.29
28.22
26.38
24.20
21.81
18.92
15.00
9.68
3.02
-4.38
-11.64
-17.90
-22.79
-26.43
-29.35
-32.22
-35.62
-40.00
-45.65
-52.66
-60.65
-68.64
-75.03
-77.90
-75.59
-67.36
-53.74
-36.43
-17.77
-0.04
15.06
26.65
34.60
39.17
40.80
39.92
37.09
32.98
28.45
24.38
21.52
20.29
20.61
22.06
23.99
25.80
27.04
27.42
26.80
24.98
21.81
17.21
11.39
4.85
-1.69
-7.58
-12.45
-16.35
-19.74
-23.29
-27.57
-32.93
-39.43
-46.80
-54.55
-61.91
-67.80
-71.04
-70.46
-65.30
-55.49
-41.79
-25.65
-8.87
6.88
20.39
31.02
38.58
43.07
44.61
43.44
40.08
35.46
30.84
27.44
26.00
26.55
28.43
30.79
32.89
34.46
35.40
35.64
34.87
32.56
28.38
22.41
15.25
7.73
0.56
-5.96
-11.90
-17.43
-22.67
-27.54
-32.06
-36.49
-41.34
-46.98
-53.27
-59.22
-63.19
-63.40
-58.61
-48.71
-34.78
-18.69
-2.60
11.60
22.62
29.80
32.90
32.11
27.95
21.41
13.86
6.83
1.63
-0.96
-0.88
1.36
4.88
8.84
12.57
15.62
17.72
18.68
18.33
16.49
13.12
8.37
2.61
-3.55
-9.43
-14.44
-18.37
-21.45
-24.41
-28.07
-33.15
-39.89
-47.89
-56.15
-63.20
-67.44
-67.52
-62.67
-52.99
-39.41
-23.54
-7.17
8.13
21.27
31.68
39.17
43.77
45.58
44.85
42.07
38.11
34.01
30.85
29.39
29.74
31.32
33.09
34.06
33.59
31.74
28.97
25.90
22.85
19.67
15.91
11.12
5.28
-1.18
-7.46
-12.86
-17.10
-20.54
-24.06
-28.63
-34.89
-42.85
-51.74
-60.12
-66.20
-68.27
-65.00
-55.88
-41.42
-23.21
-3.55
15.02
30.46
41.56
48.08
50.46
49.39
45.56
39.65
32.50
25.15
18.71
14.09
11.64
11.10
11.77
12.87
13.85
14.53
15.01
15.32
15.33
14.61
12.59
8.83
3.30
-3.51
-10.71
-17.29
-22.56
-26.38
-29.34
-32.45
-36.73
-42.72
-50.04
-57.48
-63.14
-65.12
-62.10
-53.73
-40.73
-24.66
-7.48
9.02
23.47
35.02
43.32
48.33
50.23
49.42
46.53
42.43
38.10
34.38
31.85
30.68
30.62
31.22
31.95
32.48
32.61
32.28
31.41
29.84
27.26
23.29
17.73
10.61
2.46
-5.87
-13.50
-19.88
-25.05
-29.62
-34.48
-40.42
-47.69
-55.96
-64.23
-71.04
-74.70
-73.72
-67.17
-55.14
-38.86
-20.43
-2.28
13.58
25.95
34.50
39.46
41.21
40.11
36.67
31.68
26.35
21.95
19.48
19.26
20.82
23.22
25.47
26.94
27.34
26.70
25.09
22.50
18.93
14.48
9.43
4.17
-0.89
-5.60
-10.03
-14.55
-19.67
-25.86
-33.33
-41.83
-50.49
-57.90
-62.48
-62.82
-58.14
-48.61
-35.16
-19.42
-3.16
11.99
24.83
34.68
41.28
44.72
45.32
43.59
40.16
35.84
31.57
28.13
26.08
25.56
26.21
27.47
28.68
29.28
28.97
27.59
25.06
21.38
16.67
11.22
5.42
-0.34
-5.84
-11.06
-16.23
-21.69
-27.81
-34.74
-42.28
-49.59
-55.32
-57.80
-55.56
-47.91
-35.34
-19.37
-2.16
14.18
28.17
39.04
46.56
50.76
51.76
49.84
45.58
39.97
34.22
29.48
26.46
25.33
25.69
26.81
27.93
28.46
28.00
26.36
23.49
19.38
14.10
7.82
0.85
-6.29
-12.94
-18.58
-23.01
-26.54
-29.92
-34.10
-39.83
-47.36
-56.13
-64.90
-71.86
-75.13
-73.24
-65.54
-52.43
-35.25
-16.01
3.10
20.07
33.46
42.52
47.20
48.08
46.24
42.92
39.25
35.97
33.36
31.44
30.19
29.69
30.09
31.42
33.33
35.06
35.67
34.38
30.90
25.46
18.71
11.42
4.30
-2.12
-7.52
-11.83
-15.17
-17.89
-20.59
-24.02
-28.88
-35.59
-43.98
-53.02
-60.89
-65.44
-64.76
-57.98
-45.64
-29.55
-12.22
3.97
17.46
27.68
34.78
39.20
41.27
41.22
39.42
36.49
33.33
30.84
29.63
29.77
30.80
32.08
32.95
33.00
32.09
30.28
27.69
24.50
20.80
16.68
12.14
7.24
2.14
-2.88
-7.47
-11.44
-14.91
-18.40
-22.67
-28.48
-36.11
-45.08
-53.99
-60.83
-63.47
-60.39
-51.27
-37.17
-20.29
-3.29
11.55
22.95
30.69
35.32
37.59
38.04
36.95
34.55
31.25
27.78
24.89
23.06
22.27
22.00
21.60
20.60
18.95
16.90
14.67
12.21
9.25
5.48
0.89
-4.20
-9.17
-13.50
-17.01
-19.89
-22.56
-25.29
-28.28
-31.52
-35.21
-39.62
-44.83
-50.39
-55.09
-57.18
-55.04
-47.83
-35.98
-21.01
-5.07
9.87
22.42
31.91
38.31
41.80
42.69
41.35
38.35
34.48
30.76
28.17
27.37
28.48
30.97
33.89
36.22
37.26
36.81
35.12
32.61
29.58
26.04
21.71
16.37
10.08
3.34
-3.18
-8.89
-13.59
-17.55
-21.40
-25.88
-31.47
-38.33
-46.20
-54.32
-61.60
-66.68
-68.22
-65.26
-57.66
-46.19
-32.38
-18.07
-4.73
6.82
16.37
23.98
29.68
33.22
34.26
32.71
28.92
23.79
18.49
14.10
11.32
10.29
10.60
11.58
12.54
12.95
12.56
11.30
9.22
6.44
3.12
-0.51
-4.13
-7.43
-10.22
-12.53
-14.69
-17.20
-20.67
-25.61
-32.16
-39.90
-47.71
-53.94
-56.73
-54.71
-47.51
-35.99
-21.96
-7.52
5.66
16.64
25.24
31.63
35.94
38.11
37.98
35.57
31.41
26.42
21.76
18.35
16.59
16.22
16.64
17.23
17.60
17.60
17.15
16.04
13.80
10.05
4.76
-1.54
-7.90
-13.35
-17.42
-20.29
-22.67
-25.46
-29.28
-34.34
-40.33
-46.59
-52.07
-55.49
-55.54
-51.18
-42.10
-29.03
-13.59
1.98
15.61
25.85
32.22
35.06
35.14
33.29
30.21
26.44
22.50
18.92
16.19
14.51
13.78
13.56
13.38
12.92
12.19
11.37
10.65
9.83
8.41
5.71
1.30
-4.69
-11.51
-18.04
-23.33
-26.95
-29.22
-31.06
-33.53
-37.42
-42.87
-49.33
-55.62
-60.21
-61.61
-58.79
-51.51
-40.40
-26.86
-12.64
0.67
11.95
20.75
27.12
31.35
33.73
34.45
33.69
31.80
29.26
26.78
24.95
24.03
23.93
24.21
24.35
23.99
23.01
21.50
19.69
17.64
15.25
12.33
8.62
4.03
-1.34
-7.19
-13.04
-18.47
-23.33
-27.90
-32.79
-38.69
-45.96
-54.30
-62.74
-69.77
-73.72
-73.24
-67.66
-57.22
-43.09
-27.12
-11.35
2.51
13.48
21.45
26.85
30.21
31.85
31.83
30.23
27.46
24.27
21.48
19.61
18.72
18.45
18.33
18.01
17.35
16.22
14.43
11.66
7.76
2.91
-2.31
-7.13
-10.97
-13.70
-15.71
-17.64
-20.19
-23.93
-29.24
-36.30
-45.00
-54.66
-63.88
-70.56
-72.53
-68.20
-57.36
-41.34
-22.64
-3.99
12.41
25.51
35.30
42.36
47.26
50.20
51.14
50.06
47.30
43.69
40.39
38.38
38.06
39.10
40.58
41.48
41.04
39.14
36.19
32.83
29.58
26.44
23.07
19.00
13.95
8.17
2.26
-2.96
-7.00
-9.87
-12.22
-15.15
-19.73
-26.56
-35.45
-45.46
-55.10
-62.87
-67.46
-68.01
-64.14
-56.02
-44.28
-30.05
-14.83
-0.21
12.44
22.29
29.10
33.16
35.03
35.27
34.36
32.69
30.66
28.69
27.22
26.57
26.80
27.70
28.83
29.73
30.04
29.62
28.50
26.80
24.52
21.53
17.62
12.70
6.94
0.82
-5.03
-10.04
-13.94
-16.87
-19.39
-22.35
-26.73
-33.24
-41.97
-52.05
-61.62
-68.27
-69.89
-65.34
-55.00
-40.54
-24.33
-8.57
5.36
16.98
26.44
33.99
39.75
43.65
45.69
46.16
45.68
44.90
44.30
43.95
43.60
42.89
41.63
39.92
38.11
36.62
35.62
34.91
33.99
32.27
29.30
24.95
19.40
13.01
6.19
-0.61
-7.02
-12.73
-17.58
-21.75
-25.67
-30.07
-35.71
-43.07
-52.06
-61.98
-71.54
-79.13
-83.20
-82.73
-77.40
-67.76
-55.07
-40.98
-27.22
-15.11
-5.44
1.56
6.07
8.51
9.39
9.29
8.84
8.74
9.68
12.14
16.15
21.31
26.81
31.90
36.09
39.46
42.54
45.86
49.54
53.05
55.38
55.47
52.76
47.43
40.41
32.96
26.13
20.48
15.98
12.17
8.37
3.97
-1.42
-7.76
-14.46
-20.44
-24.34
-24.89
-21.43
-14.08
-3.78
8.11
20.21
31.36
40.77
47.95
52.54
54.44
53.79
51.11
47.16
42.73
38.43
34.63
31.52
29.14
27.46
26.37
25.56
24.64
23.16
20.78
17.32
12.86
7.64
1.99
-3.82
-9.63
-15.44
-21.27
-27.23
-33.32
-39.39
-45.28
-50.78
-55.81
-60.41
-64.64
-68.45
-71.53
-73.33
-73.04
-69.90
-63.39
-53.39
-40.45
-25.76
-10.95
2.31
12.79
19.97
24.11
25.91
26.20
25.58
24.43
22.96
21.44
20.22
19.70
20.08
21.32
23.09
24.92
26.35
27.01
26.61
24.96
22.04
17.97
13.07
7.85
2.81
-1.65
-5.38
-8.47
-11.32
-14.50
-18.67
-24.27
-31.29
-38.94
-45.80
-50.01
-50.00
-45.05
-35.58
-23.06
-9.45
3.40
14.20
22.32
27.69
30.57
31.40
30.65
28.77
26.24
23.47
20.90
18.86
17.65
17.44
18.17
19.61
21.41
23.13
24.41
24.89
24.29
22.36
19.03
14.47
9.13
3.57
-1.77
-6.73
-11.36
-15.80
-20.21
-24.69
-29.36
-34.23
-38.94
-42.66
-44.13
-42.00
-35.52
-25.01
-11.87
1.91
14.53
24.91
32.77
38.37
41.89
43.30
42.38
39.16
34.20
28.55
23.36
19.55
17.34
16.35
15.87
15.20
13.98
12.17
10.03
7.77
5.40
2.72
-0.54
-4.44
-8.71
-12.85
-16.35
-19.07
-21.37
-24.02
-27.81
-33.11
-39.54
-45.96
-50.86
-52.71
-50.47
-43.81
-33.24
-19.99
-5.74
7.62
18.52
25.98
29.84
30.62
29.23
26.64
23.63
20.74
18.27
16.43
15.30
14.89
15.08
15.67
16.39
16.97
17.11
16.55
15.10
12.76
9.74
6.40
3.11
0.10
-2.60
-5.19
-7.94
-11.13
-14.94
-19.50
-24.79
-30.65
-36.47
-41.25
-43.69
-42.58
-37.38
-28.47
-17.12
-5.04
6.21
15.66
23.05
28.45
32.03
33.67
33.24
30.76
26.74
22.11
17.90
14.89
13.35
13.09
13.64
14.45
15.07
15.18
14.58
13.17
11.00
8.23
5.08
1.65
-2.11
-6.38
-11.25
-16.60
-22.13
-27.46
-32.35
-36.69
-40.40
-43.09
-43.88
-41.67
-35.63
-25.80
-13.38
-0.40
10.98
19.30
24.18
26.13
25.98
24.42
21.74
18.17
14.09
10.22
7.40
6.21
6.57
7.89
9.32
10.23
10.34
9.66
8.29
6.21
3.38
-0.12
-4.02
-7.93
-11.57
-14.85
-17.98
-21.33
-25.18
-29.70
-34.81
-40.17
-45.22
-49.09
-50.76
-49.24
-43.96
-35.11
-23.64
-11.11
0.81
10.78
18.01
22.34
24.04
23.70
21.99
19.57
16.97
14.57
12.65
11.40
10.97
11.41
12.52
13.87
14.84
14.89
13.74
11.51
8.63
5.48
2.25
-1.23
-5.28
-10.04
-15.38
-20.89
-26.20
-31.18
-35.97
-40.66
-44.98
-48.04
-48.71
-45.98
-39.54
-29.94
-18.46
-6.60
4.36
13.62
20.85
25.94
28.92
29.87
28.93
26.45
22.89
18.86
14.93
11.64
9.34
8.17
8.03
8.64
9.52
10.15
10.05
8.85
6.39
2.78
-1.57
-6.15
-10.52
-14.48
-18.13
-21.79
-25.90
-30.79
-36.60
-43.16
-49.99
-56.20
-60.52
-61.66
-58.61
-51.16
-40.00
-26.60
-12.65
0.37
11.48
20.27
26.65
30.60
32.17
31.56
29.28
26.07
22.86
20.37
19.02
18.79
19.32
20.04
20.37
19.78
18.04
15.12
11.19
6.59
1.70
-3.13
-7.62
-11.71
-15.48
-19.31
-23.64
-28.93
-35.18
-41.90
-47.98
-51.95
-52.39
-48.40
-39.97
-27.96
-14.00
0.04
12.44
22.01
28.33
31.67
32.77
32.39
31.05
28.95
26.21
22.99
19.82
17.42
16.40
16.94
18.52
20.17
20.83
19.85
17.23
13.49
9.36
5.30
1.40
-2.60
-7.00
-12.02
-17.66
-23.93
-30.87
-38.46
-46.44
-53.95
-59.57
-61.69
-59.10
-51.55
-39.95
-26.00
-11.63
1.64
12.95
21.99
28.76
33.24
35.48
35.61
34.00
31.30
28.23
25.44
23.43
22.46
22.62
23.81
25.62
27.34
28.15
27.35
24.72
20.56
15.58
10.53
5.86
1.65
-2.35
-6.54
-11.26
-16.74
-23.17
-30.66
-39.09
-47.91
-55.95
-61.54
-62.98
-59.15
-49.95
-36.49
-20.66
-4.58
10.03
22.21
31.72
38.61
43.02
44.99
44.59
42.11
38.29
34.17
30.86
29.09
29.04
30.25
31.91
33.11
33.16
31.84
29.22
25.63
21.39
16.75
11.84
6.77
1.61
-3.53
-8.47
-13.11
-17.43
-21.73
-26.45
-32.17
-39.22
-47.32
-55.46
-62.00
-65.15
-63.55
-56.82
-45.64
-31.56
-16.40
-1.81
11.03
21.41
29.08
34.03
36.50
36.90
35.82
34.00
32.20
31.05
30.88
31.60
32.85
34.04
34.70
34.55
33.62
32.08
30.07
27.58
24.41
20.42
15.60
10.20
4.62
-0.77
-5.74
-10.32
-14.69
-19.16
-24.08
-29.76
-36.36
-43.71
-51.17
-57.60
-61.59
-61.65
-56.86
-47.15
-33.50
-17.73
-1.92
12.13
23.38
31.60
37.16
40.50
41.96
41.68
39.87
37.07
34.08
31.83
30.84
31.08
31.99
32.83
33.08
32.63
31.72
30.56
29.09
26.91
23.52
18.66
12.61
6.13
0.08
-4.96
-8.92
-12.21
-15.42
-18.99
-23.23
-28.32
-34.38
-41.41
-48.87
-55.65
-59.98
-60.01
-54.49
-43.47
-28.39
-11.65
4.20
17.31
26.95
33.43
37.60
40.32
41.99
42.59
41.94
40.03
37.23
34.22
31.66
29.91
28.89
28.14
27.20
25.77
23.83
21.50
18.92
16.11
12.92
9.15
4.70
-0.33
-5.65
-10.84
-15.47
-19.39
-22.86
-26.55
-31.36
-37.91
-46.06
-54.62
-61.57
-64.66
-62.29
-54.05
-40.94
-24.96
-8.41
6.77
19.36
28.93
35.53
39.48
41.16
40.93
39.16
36.34
33.04
29.89
27.44
26.03
25.67
26.01
26.49
26.48
25.56
23.58
20.65
17.03
13.09
9.10
5.29
1.82
-1.30
-4.24
-7.33
-11.04
-15.81
-21.91
-29.35
-37.65
-45.81
-52.36
-55.70
-54.54
-48.35
-37.57
-23.58
-8.28
6.45
19.09
28.81
35.36
38.99
40.17
39.57
37.80
35.44
32.96
30.59
28.53
26.94
25.98
25.65
25.76
25.88
25.52
24.38
22.46
20.03
17.32
14.32
10.78
6.41
1.19
-4.54
-10.13
-15.10
-19.36
-23.35
-27.78
-33.21
-39.69
-46.56
-52.64
-56.48
-56.82
-52.87
-44.63
-32.86
-18.92
-4.52
8.82
19.94
28.32
33.86
36.88
37.87
37.41
35.98
34.02
31.88
29.81
28.07
26.81
26.07
25.71
25.41
24.79
23.54
21.51
18.71
15.32
11.42
7.11
2.45
-2.41
-7.23
-11.73
-15.73
-19.31
-22.79
-26.68
-31.52
-37.58
-44.66
-51.91
-57.96
-61.16
-60.17
-54.36
-44.18
-30.99
-16.67
-3.09
8.43
17.36
23.82
28.27
31.20
32.89
33.45
33.00
31.73
30.06
28.45
27.32
26.87
27.06
27.60
28.12
28.29
27.85
26.69
24.74
21.98
18.40
14.02
8.89
3.17
-2.80
-8.56
-13.73
-18.09
-21.91
-25.79
-30.38
-36.12
-42.78
-49.37
-54.44
-56.47
-54.37
-47.89
-37.61
-24.81
-11.10
1.93
13.03
21.44
26.96
29.86
30.66
30.02
28.50
26.52
24.42
22.44
20.76
19.52
18.73
18.29
18.02
17.79
17.51
17.18
16.66
15.70
13.89
10.88
6.60
1.41
-4.07
-9.10
-13.23
-16.40
-19.01
-21.70
-25.09
-29.50
-34.77
-40.22
-44.82
-47.40
-46.95
-42.91
-35.36
-25.00
-12.98
-0.69
10.62
19.95
26.75
30.82
32.34
31.71
29.48
26.26
22.66
19.24
16.42
14.37
13.05
12.25
11.75
11.45
11.31
11.28
11.21
10.79
9.71
7.80
5.07
1.65
-2.24
-6.49
-10.99
-15.65
-20.40
-25.14
-29.86
-34.58
-39.21
-43.36
-46.28
-47.00
-44.66
-38.91
-30.14
-19.39
-8.14
2.20
10.59
16.59
20.33
22.33
23.20
23.35
22.89
21.72
19.83
17.48
15.18
13.51
12.78
12.73
12.75
12.18
10.68
8.43
5.91
3.63
1.69
-0.22
-2.64
-6.00
-10.31
-15.17
-20.03
-24.44
-28.32
-31.98
-35.76
-39.79
-43.68
-46.58
-47.37
-45.15
-39.64
-31.39
-21.63
-11.83
-3.29
3.40
8.28
11.80
14.44
16.35
17.36
17.21
15.81
13.43
10.70
8.36
6.90
6.44
6.65
6.99
6.91
6.04
4.31
1.94
-0.64
-3.06
-5.10
-6.84
-8.63
-10.90
-14.05
-18.27
-23.57
-29.77
-36.52
-43.23
-49.07
-53.05
-54.15
-51.65
-45.39
-35.98
-24.65
-12.95
-2.27
6.49
13.09
17.79
21.00
22.99
23.79
23.31
21.51
18.63
15.17
11.75
8.97
7.21
6.43
6.33
6.34
5.84
4.45
2.19
-0.56
-3.27
-5.64
-7.73
-9.95
-12.65
-15.91
-19.54
-23.27
-27.20
-31.63
-36.76
-42.20
-46.67
-48.46
-46.14
-39.31
-28.87
-16.68
-4.76
5.42
13.26
18.91
22.69
24.91
25.70
25.12
23.42
21.08
18.61
16.46
14.82
13.79
13.30
13.28
13.57
13.83
13.64
12.54
10.28
6.93
2.89
-1.31
-5.26
-8.85
-12.24
-15.81
-19.92
-24.83
-30.66
-37.24
-44.18
-50.61
-55.38
-57.22
-55.16
-48.87
-38.82
-26.29
-12.87
-0.12
10.81
19.31
25.27
28.91
30.59
30.71
29.66
27.79
25.42
22.92
20.62
18.86
17.90
17.76
18.20
18.71
18.71
17.72
15.59
12.52
8.90
5.07
1.09
-3.27
-8.27
-13.96
-20.11
-26.27
-32.11
-37.69
-43.40
-49.53
-55.81
-61.09
-63.61
-61.70
-54.54
-42.71
-27.94
-12.52
1.59
13.26
22.19
28.65
32.95
35.28
35.68
34.35
31.82
28.97
26.69
25.61
25.77
26.77
27.97
28.75
28.70
27.70
25.71
22.79
19.01
14.50
9.43
4.04
-1.41
-6.62
-11.41
-15.73
-19.86
-24.33
-29.82
-36.67
-44.48
-51.84
-56.72
-57.13
-52.08
-42.00
-28.61
-14.10
-0.39
11.44
21.13
28.84
34.67
38.49
40.02
39.13
36.09
31.62
26.79
22.67
19.93
18.73
18.70
19.13
19.32
18.83
17.58
15.75
13.58
11.13
8.27
4.79
0.64
-4.09
-9.17
-14.44
-20.07
-26.43
-33.93
-42.57
-51.55
-59.33
-63.83
-63.12
-56.14
-43.15
-25.77
-6.61
11.68
27.03
38.51
46.21
50.91
53.46
54.43
54.05
52.43
49.88
47.10
44.85
43.74
43.67
43.92
43.42
41.34
37.51
32.46
27.11
22.17
17.83
13.73
9.23
3.85
-2.42
-9.18
-16.05
-22.89
-29.92
-37.36
-44.98
-51.71
-55.81
-55.59
-50.10
-39.78
-26.28
-11.84
1.57
12.82
21.60
28.05
32.25
34.11
33.49
30.61
26.10
20.98
16.24
12.52
9.99
8.41
7.34
6.36
5.17
3.51
1.26
-1.66
-5.16
-9.03
-13.00
-16.71
-19.92
-22.41
-24.11
-25.16
-25.76
-26.21
-26.66
-27.07
-27.03
-25.87
-22.87
-17.53
-9.86
-0.53
9.25
18.09
24.89
29.19
31.25
31.89
31.97
32.07
32.10
31.52
29.61
26.06
21.28
16.34
12.49
10.48
10.06
10.09
8.94
5.44
-0.49
-7.76
-14.53
-19.14
-20.84
-20.18
-18.62
-17.82
-18.87
-21.86
-25.91
-29.56
-31.34
-30.01
-24.67
-15.11
-2.12
12.16
24.57
32.22
34.22
33.13
34.90
46.97
75.06
120.29
178.21
240.32
297.42
343.03
375.11
395.69
408.39
416.14
419.50
416.94
406.28
386.22
357.31
321.98
284.08
248.06
218.11
197.39
187.32
186.98
193.32
202.05
208.94
211.01
206.99
196.96
181.51
161.17
136.40
108.02
77.71
47.64
19.66
-5.73
-29.63
-54.22
-81.42
-111.94
-145.07
-178.82
-211.15
-240.74
-267.52
-292.65
-318.36
-347.45
-382.50
-424.45
-471.16
-516.79
-552.71
-570.34
-564.48
-535.69
-490.12
-437.01
-385.15
-340.25
-304.62
-278.52
-261.79
-254.12
-253.91
-256.88
-255.90
-243.01
-212.36
-162.93
-98.99
-28.44
39.76
98.17
141.95
168.96
178.91
172.75
152.42
121.20
83.84
46.39
14.88
-6.59
-17.47
-21.13
-23.11
-28.26
-38.11
-50.13
-59.56
-62.20
-56.87
-45.80
-33.09
-22.34
-15.21
-11.67
-10.98
-12.67
-16.46
-21.37
-25.07
-24.07
-14.95
4.08
32.57
68.27
108.26
149.96
191.37
230.57
265.15
292.44
310.16
317.44
315.33
306.24
292.92
277.59
261.39
244.61
227.12
208.67
189.14
168.57
147.50
127.30
110.29
99.02
94.96
97.31
102.68
106.22
103.33
91.48
70.54
42.23
8.65
-28.85
-70.14
-115.91
-166.43
-220.33
-274.20
-323.12
-362.45
-389.55
-404.69
-410.48
-410.25
-406.15
-398.12
-384.17
-361.91
-330.30
-290.75
-246.90
-203.40
-164.15
-131.10
-103.94
-80.94
-60.13
-40.48
-22.40
-7.54
2.39
6.72
6.31
3.33
0.25
-1.09
0.09
3.58
8.87
15.53
23.31
31.96
40.98
49.45
56.13
59.85
59.80
55.82
48.37
38.47
27.37
16.32
6.36
-1.79
-7.70
-11.22
-12.31
-11.12
-7.90
-3.02
3.08
9.86
16.76
23.17
28.42
31.97
33.50
33.05
31.02
27.98
24.50
21.17
18.48
16.90
16.72
17.95
20.21
22.81
24.94
25.95
25.59
23.95
21.27
17.69
13.17
7.62
1.14
-5.82
-12.43
-17.77
-21.32
-23.30
-24.72
-26.97
-31.16
-37.45
-44.90
-51.79
-56.48
-58.22
-57.40
-55.22
-52.88
-50.92
-48.90
-45.77
-40.45
-32.35
-21.50
-8.27
6.87
23.36
40.33
56.28
69.19
77.00
78.42
73.54
63.98
52.08
39.96
28.53
17.24
4.68
-10.47
-28.52
-48.46
-68.32
-85.88
-99.47
-108.56
-113.72
-116.37
-118.13
-120.11
-122.55
-124.83
-125.78
-124.22
-119.31
-110.62
-98.09
-81.93
-62.65
-41.28
-19.46
0.75
17.39
29.25
36.25
39.30
39.73
38.70
36.69
33.53
28.84
22.40
14.58
6.36
-0.98
-6.31
-9.11
-9.73
-9.21
-8.87
-9.98
-13.43
-19.75
-29.06
-40.99
-54.55
-68.02
-79.02
-85.11
-84.56
-76.92
-63.27
-45.91
-27.63
-10.98
2.27
11.23
15.83
16.51
14.02
9.17
2.82
-4.17
-10.98
-16.68
-20.31
-20.95
-17.88
-10.73
0.22
14.02
29.03
43.23
54.66
61.75
63.61
60.25
52.51
42.20
31.98
25.03
24.35
31.78
47.33
68.98
93.31
116.71
136.67
152.31
164.29
173.87
182.12
189.39
195.54
200.39
204.17
207.45
210.79
214.25
217.05
217.98
215.95
211.00
204.47
198.66
195.80
196.80
200.54
204.18
204.08
197.17
181.89
158.50
128.68
94.93
59.95
26.34
-3.83
-29.20
-49.30
-64.47
-75.42
-82.88
-87.33
-89.16
-89.12
-88.57
-89.25
-92.75
-99.69
-109.54
-120.99
-132.65
-143.60
-153.49
-162.04
-168.55
-171.96
-171.12
-165.56
-155.76
-143.08
-129.28
-115.94
-104.35
-95.45
-90.05
-88.61
-90.72
-94.77
-97.98
-97.20
-89.92
-75.21
-53.92
-28.09
-0.02
28.51
56.55
83.66
109.40
133.02
153.49
169.87
181.66
188.92
192.12
191.93
189.12
184.62
179.62
175.25
172.28
170.53
168.66
164.49
155.90
141.73
122.50
100.28
78.05
58.62
43.64
33.27
26.32
20.93
15.35
8.61
0.70
-7.61
-15.30
-21.60
-26.38
-30.12
-33.57
-37.43
-42.06
-47.51
-53.68
-60.42
-67.73
-75.48
-83.36
-90.91
-97.61
-103.12
-107.40
-110.63
-112.91
-114.09
-113.59
-110.83
-105.51
-97.94
-89.10
-80.21
-72.23
-65.38
-59.11
-52.31
-43.80
-32.86
-19.41
-3.90
12.78
29.59
45.40
59.11
69.71
76.40
78.69
76.62
70.67
61.82
51.27
40.26
29.83
20.59
12.81
6.50
1.65
-1.64
-3.24
-3.15
-1.87
-0.36
0.16
-1.27
-4.89
-9.89
-14.72
-17.55
-16.81
-11.70
-2.32
10.41
24.97
39.57
52.51
62.50
68.82
71.41
70.57
66.81
60.58
52.40
42.94
33.25
24.55
17.97
14.04
12.57
12.79
13.74
14.74
15.55
16.26
16.95
17.46
17.30
15.90
13.03
9.05
4.97
2.10
1.55
3.80
8.57
15.01
22.18
29.26
35.76
41.26
45.23
46.96
45.66
40.85
32.64
21.79
9.51
-2.88
-14.33
-24.05
-31.59
-36.73
-39.45
-39.99
-38.83
-36.66
-34.26
-32.50
-32.15
-33.91
-38.19
-44.87
-53.03
-61.01
-66.71
-68.28
-64.72
-56.23
-44.11
-30.23
-16.47
-4.19
5.91
13.80
19.99
25.35
30.79
36.87
43.50
49.85
54.62
56.49
54.67
49.07
40.30
29.37
17.28
4.90
-7.15
-18.60
-29.48
-40.09
-50.86
-62.12
-73.81
-85.39
-95.74
-103.48
-107.20
-105.82
-98.91
-86.81
-70.66
-52.15
-33.16
-15.38
-0.11
11.81
20.02
24.50
25.56
23.77
19.94
15.00
9.87
5.24
1.52
-1.18
-3.03
-4.33
-5.40
-6.57
-8.11
-10.26
-13.29
-17.51
-23.21
-30.54
-39.23
-48.45
-56.81
-62.53
-64.01
-60.32
-51.53
-38.80
-24.02
-9.28
3.75
14.12
21.66
26.66
29.58
30.74
30.27
28.23
24.83
20.52
15.93
11.79
8.61
6.68
6.04
6.61
8.31
11.07
14.69
18.63
22.10
24.15
24.07
21.70
17.53
12.63
8.22
5.49
5.32
8.22
14.34
23.35
34.41
46.26
57.36
66.22
71.85
73.95
72.88
69.41
64.33
58.23
51.37
43.95
36.17
28.35
20.89
14.12
8.16
2.99
-1.52
-5.52
-9.17
-12.84
-17.12
-22.88
-30.93
-41.58
-54.39
-67.95
-80.18
-88.87
-92.24
-89.43
-80.64
-67.02
-50.20
-31.97
-13.81
3.15
18.13
30.52
39.83
45.81
48.54
48.59
46.85
44.37
41.97
40.02
38.39
36.58
34.06
30.42
25.70
20.22
14.45
8.73
2.99
-3.32
-11.08
-21.17
-33.92
-48.62
-63.44
-75.71
-82.74
-82.66
-75.07
-61.10
-43.03
-23.48
-4.75
11.62
24.85
34.60
40.84
43.67
43.44
40.92
37.17
33.23
29.77
26.86
24.05
20.64
16.06
10.16
3.26
-3.96
-10.78
-16.67
-21.51
-25.70
-30.01
-35.39
-42.57
-51.57
-61.40
-70.20
-75.67
-75.84
-69.90
-58.37
-42.91
-25.68
-8.67
6.71
19.67
29.74
36.64
40.20
40.56
38.33
34.64
30.80
27.91
26.52
26.45
26.96
27.14
26.26
24.01
20.68
16.95
13.59
11.10
9.57
8.48
7.01
4.35
0.14
-5.24
-10.57
-14.17
-14.45
-10.42
-2.08
9.63
23.29
37.33
50.54
62.18
71.91
79.59
85.06
88.12
88.50
86.19
81.54
75.31
68.41
61.52
54.84
47.84
39.53
28.97
15.79
0.50
-15.58
-30.87
-44.10
-54.79
-63.25
-70.47
-77.54
-85.31
-94.13
-103.67
-112.98
-120.62
-124.94
-124.41
-118.08
-105.92
-88.94
-69.01
-48.32
-28.79
-11.78
2.02
12.31
18.93
21.92
21.58
18.76
14.76
11.08
8.90
8.67
9.98
11.88
13.33
13.65
12.70
10.79
8.37
5.75
2.97
-0.15
-3.90
-8.68
-14.85
-22.66
-31.92
-41.80
-50.64
-56.21
-56.33
-49.62
-36.15
-17.46
3.91
25.26
44.42
60.11
71.89
79.76
83.85
84.18
80.88
74.43
65.79
56.44
47.90
41.34
37.07
34.47
32.30
29.30
24.80
18.95
12.46
6.07
0.09
-5.82
-12.39
-20.36
-30.16
-41.82
-54.88
-68.44
-81.08
-90.89
-95.90
-94.66
-86.78
-73.14
-55.77
-37.11
-19.41
-4.17
7.87
16.62
22.19
24.86
24.86
22.60
18.70
13.97
9.25
5.27
2.48
0.86
-0.02
-0.85
-2.23
-4.49
-7.54
-10.96
-14.24
-17.04
-19.36
-21.47
-23.81
-26.80
-30.79
-35.95
-42.27
-49.30
-56.04
-60.89
-61.90
-57.44
-46.84
-30.82
-11.37
8.88
27.55
43.05
54.85
63.11
68.19
70.35
69.74
66.61
61.62
55.78
50.27
46.00
43.35
42.03
41.37
40.60
39.15
36.68
33.16
28.72
23.62
18.16
12.60
7.11
1.68
-3.88
-9.80
-16.37
-23.87
-32.40
-41.82
-51.46
-60.02
-65.59
-66.17
-60.34
-47.99
-30.60
-10.76
8.62
25.26
37.96
46.66
51.85
54.20
54.25
52.44
49.24
45.28
41.26
37.82
35.33
33.73
32.63
31.44
29.57
26.69
22.81
18.18
13.10
7.76
2.09
-4.04
-10.71
-17.72
-24.65
-31.14
-37.12
-42.94
-49.14
-56.06
-63.37
-69.92
-73.85
-73.18
-66.51
-53.61
-35.65
-14.80
6.43
25.93
42.51
55.81
66.00
73.22
77.47
78.68
77.09
73.50
69.10
65.18
62.61
61.60
61.82
62.72
63.82
64.81
65.44
65.40
64.33
61.88
57.98
52.92
47.22
41.31
35.29
28.74
20.74
10.32
-3.38
-20.64
-41.00
-63.20
-85.19
-104.44
-118.40
-125.15
-123.94
-115.52
-101.83
-85.44
-68.83
-53.74
-41.02
-30.89
-23.25
-17.93
-14.71
-13.10
-12.44
-11.92
-10.93
-9.19
-6.88
-4.35
-1.94
0.10
1.67
2.59
2.56
1.24
-1.53
-5.66
-10.69
-16.03
-21.23
-26.10
-30.72
-35.40
-40.46
-46.28
-53.14
-61.14
-69.91
-78.38
-84.75
-86.87
-82.98
-72.42
-56.07
-36.12
-15.33
3.79
19.62
31.58
39.86
44.95
47.39
47.59
46.02
43.23
39.87
36.55
33.75
31.65
30.20
29.12
28.01
26.48
24.32
21.53
18.33
14.95
11.51
7.91
3.90
-0.73
-5.94
-11.52
-17.12
-22.64
-28.31
-34.62
-41.90
-49.87
-57.29
-62.25
-62.71
-57.29
-45.82
-29.49
-10.53
8.41
25.00
37.70
45.99
50.18
51.04
49.43
45.91
40.80
34.20
26.41
17.93
9.56
2.13
-3.68
-7.46
-8.91
-7.71
-3.42
4.22
14.95
27.66
40.45
50.99
57.20
57.85
52.74
42.52
28.20
10.87
-8.48
-28.67
-48.10
-64.61
-75.86
-79.97
-76.31
-65.77
-50.65
-33.83
-17.92
-4.67
5.20
11.71
15.15
15.89
14.24
10.62
5.73
0.41
-4.43
-8.10
-10.26
-10.98
-10.65
-9.93
-9.48
-9.77
-10.85
-12.37
-13.70
-14.16
-13.44
-11.75
-9.77
-8.42
-8.56
-10.76
-15.30
-22.10
-30.76
-40.43
-49.72
-56.85
-59.93
-57.53
-49.25
-35.97
-19.68
-2.94
12.03
23.87
32.36
38.10
41.91
44.28
45.29
44.77
42.78
39.89
37.07
35.41
35.50
37.29
40.05
42.77
44.49
44.56
42.70
38.92
33.54
27.05
20.07
13.13
6.48
0.04
-6.60
-13.93
-22.36
-31.92
-42.06
-51.56
-58.65
-61.34
-58.14
-48.70
-34.09
-16.60
1.09
16.69
28.94
37.58
42.88
45.25
44.92
42.19
37.61
32.11
26.77
22.48
19.65
18.18
17.69
17.69
17.78
17.61
16.86
15.24
12.57
8.82
4.14
-1.21
-6.96
-12.83
-18.67
-24.51
-30.63
-37.49
-45.50
-54.65
-64.19
-72.50
-77.39
-76.68
-69.03
-54.49
-34.70
-12.43
9.23
27.68
41.55
50.66
55.68
57.57
57.06
54.57
50.40
44.99
38.98
33.15
28.10
24.04
20.81
18.03
15.33
12.42
9.25
5.91
2.61
-0.44
-3.12
-5.56
-8.16
-11.50
-16.11
-22.30
-30.03
-39.03
-48.78
-58.57
-67.28
-73.47
-75.51
-72.18
-63.16
-49.34
-32.70
-15.60
-0.06
12.74
22.54
29.63
34.37
36.96
37.41
35.87
32.81
29.03
25.53
23.09
22.02
22.15
22.91
23.67
23.98
23.72
22.98
21.83
20.21
17.86
14.52
10.07
4.74
-1.07
-7.00
-12.96
-19.26
-26.33
-34.39
-43.05
-51.13
-56.89
-58.56
-54.95
-45.88
-32.29
-16.01
0.82
16.24
28.97
38.42
44.61
47.82
48.37
46.57
42.84
37.83
32.47
27.79
24.57
23.12
23.12
23.79
24.12
23.37
21.20
17.75
13.46
8.86
4.36
0.03
-4.32
-9.18
-15.08
-22.47
-31.50
-41.88
-52.79
-62.79
-70.06
-72.74
-69.52
-60.10
-45.52
-27.88
-9.82
6.28
18.91
27.63
32.82
35.23
35.42
33.70
30.32
25.70
20.63
16.18
13.33
12.60
13.86
16.34
18.99
20.85
21.38
20.51
18.61
16.24
14.05
12.45
11.58
11.14
10.40
8.35
3.91
-3.64
-14.27
-27.05
-40.07
-50.94
-57.35
-57.78
-51.94
-40.85
-26.48
-11.27
2.60
13.66
21.30
25.66
27.30
26.85
24.79
21.52
17.48
13.33
9.87
7.85
7.65
9.08
11.50
14.04
16.02
17.07
17.09
16.08
14.01
10.90
6.94
2.64
-1.30
-4.41
-6.70
-8.81
-11.74
-16.49
-23.42
-32.07
-41.07
-48.46
-52.20
-50.57
-42.70
-28.74
-10.01
11.22
32.18
50.29
63.71
71.70
74.64
73.65
70.15
65.33
60.03
54.68
49.45
44.52
40.09
36.33
33.22
30.48
27.68
24.35
20.15
15.05
9.30
3.34
-2.35
-7.39
-11.66
-15.34
-18.85
-22.79
-27.78
-34.27
-42.46
-52.05
-62.15
-71.30
-77.60
-79.16
-74.63
-63.76
-47.58
-28.23
-8.29
9.96
25.01
36.33
44.04
48.59
50.44
50.02
47.82
44.50
40.77
37.29
34.45
32.35
30.86
29.74
28.83
28.03
27.31
26.55
25.48
23.71
20.77
16.31
10.25
2.77
-5.68
-14.49
-23.16
-31.47
-39.60
-48.10
-57.64
-68.73
-81.26
-94.27
-106.00
-114.27
-117.13
-113.49
-103.45
-88.37
-70.24
-51.25
-33.18
-17.27
-4.14
5.96
13.13
17.70
20.19
21.35
21.98
22.90
24.79
28.21
33.37
40.13
47.85
55.56
62.10
66.47
68.03
66.65
62.65
56.59
49.11
40.75
31.88
22.76
13.57
4.56
-3.85
-11.10
-16.54
-19.49
-19.46
-16.30
-10.08
-1.21
9.75
22.03
34.71
46.72
57.01
64.65
69.04
69.97
67.66
62.59
55.40
46.79
37.33
27.51
17.64
7.89
-1.57
-10.45
-18.26
-24.37
-28.20
-29.55
-28.69
-26.54
-24.29
-23.09
-23.65
-25.98
-29.33
-32.52
-34.29
-33.81
-31.06
-26.78
-22.30
-19.04
-18.02
-19.62
-23.44
-28.55
-33.57
-36.91
-37.00
-32.68
-23.61
-10.56
4.76
20.19
33.80
44.51
52.22
57.44
60.78
62.54
62.72
61.21
58.18
54.21
50.13
46.55
43.62
40.89
37.56
32.89
26.57
18.88
10.44
1.82
-6.68
-15.22
-24.06
-33.32
-42.70
-51.58
-59.21
-65.30
-70.05
-74.21
-78.67
-84.07
-90.38
-96.81
-101.88
-103.73
-100.71
-91.82
-77.09
-57.64
-35.40
-12.56
8.98
27.98
43.86
56.45
65.63
71.28
73.32
72.05
68.21
62.92
57.42
52.65
49.05
46.46
44.38
42.23
39.74
36.92
34.00
31.14
28.19
24.59
19.66
12.89
4.27
-5.53
-15.50
-24.72
-32.71
-39.66
-46.23
-53.29
-61.62
-71.77
-83.77
-97.00
-109.86
-119.95
-124.60
-121.75
-110.91
-93.47
-72.41
-51.24
-32.80
-18.52
-8.31
-1.21
3.93
7.88
10.95
13.29
15.21
17.23
19.95
23.84
28.90
34.74
40.72
46.22
50.89
54.65
57.72
60.28
62.37
63.76
64.12
62.99
60.08
55.28
48.74
40.87
32.20
23.28
14.51
6.09
-2.16
-10.68
-20.05
-30.70
-42.42
-54.19
-64.25
-70.59
-71.61
-66.81
-56.96
-43.84
-29.58
-15.90
-3.78
6.48
14.88
21.31
25.52
27.27
26.69
24.43
21.49
18.86
17.10
16.23
15.81
15.22
14.06
12.22
9.97
7.97
6.93
7.54
10.07
14.25
19.15
23.52
26.05
25.92
22.99
17.73
10.97
3.49
-4.23
-12.13
-20.53
-29.99
-41.00
-53.52
-66.74
-78.98
-88.02
-91.82
-89.29
-80.64
-67.34
-51.56
-35.42
-20.58
-8.04
1.61
8.14
11.67
12.89
13.13
14.15
17.61
24.48
34.59
46.76
59.24
70.35
79.06
85.14
89.09
91.63
93.28
94.07
93.47
90.87
85.87
78.81
70.71
63.18
57.87
56.06
58.17
63.58
70.42
75.78
76.16
68.30
50.29
22.37
-12.74
-50.47
-85.70
-114.15
-133.43
-143.24
-144.84
-140.24
-131.46
-120.23
-108.00
-96.07
-85.55
-77.15
-70.99
-66.55
-62.84
-58.80
-53.68
-47.24
-39.75
-31.71
-23.68
-16.10
-9.16
-2.87
2.90
8.24
13.02
16.78
18.84
18.48
15.33
9.56
2.02
-6.17
-13.92
-20.70
-26.67
-32.56
-39.29
-47.54
-57.36
-68.02
-78.03
-85.42
-88.22
-85.01
-75.33
-59.87
-40.37
-19.12
1.57
19.88
34.75
45.88
53.66
58.75
61.90
63.90
65.65
68.19
72.51
79.29
88.47
99.07
109.49
117.96
123.22
124.84
123.21
119.05
112.91
104.85
94.54
81.64
66.12
48.52
29.72
10.72
-7.72
-25.20
-41.68
-57.39
-72.62
-87.66
-102.65
-117.52
-131.82
-144.51
-154.00
-158.40
-155.99
-145.83
-128.21
-104.74
-78.00
-50.91
-25.93
-4.64
12.40
25.34
34.65
40.75
44.01
44.85
43.95
42.35
41.17
41.35
43.16
46.22
49.57
52.18
53.25
52.46
49.90
45.83
40.52
34.09
26.62
18.25
9.33
0.46
-7.68
-14.55
-20.07
-24.73
-29.54
-35.66
-43.88
-54.14
-65.35
-75.50
-82.14
-83.19
-77.40
-64.81
-46.63
-24.93
-2.17
19.43
38.10
52.80
63.15
69.32
71.79
71.21
68.21
63.39
57.40
51.04
45.45
42.10
42.57
48.05
58.69
73.22
88.96
102.57
111.04
112.65
107.32
96.36
81.70
65.06
47.70
30.17
12.63
-5.02
-23.06
-41.86
-61.58
-81.79
-101.13
-117.32
-127.71
-130.09
-123.50
-108.56
-87.36
-62.92
-38.47
-16.76
0.34
12.14
19.09
22.60
24.67
27.41
32.51
40.69
51.48
63.22
73.54
80.25
82.18
79.56
73.85
66.75
59.41
51.75
42.76
31.30
16.94
0.28
-17.29
-34.27
-49.78
-63.71
-76.51
-88.74
-100.77
-112.60
-123.95
-134.21
-142.36
-146.94
-146.33
-139.26
-125.41
-105.73
-82.31
-57.67
-34.03
-12.68
6.02
22.27
36.28
48.03
57.29
63.94
68.35
71.26
73.51
75.64
77.62
78.94
79.00
77.46
74.51
70.76
66.95
63.52
60.47
57.32
53.27
47.57
39.78
30.03
18.96
7.56
-3.34
-13.41
-23.09
-33.29
-44.94
-58.19
-71.97
-83.99
-91.38
-91.75
-84.08
-69.20
-49.51
-28.07
-7.67
10.01
24.45
35.90
44.81
51.33
55.22
56.21
54.39
50.46
45.64
41.33
38.54
37.66
38.34
39.75
40.94
41.27
40.56
39.14
37.57
36.31
35.43
34.50
32.78
29.58
24.62
18.32
11.67
5.94
2.12
0.62
0.97
1.99
2.21
0.27
-4.60
-12.15
-21.07
-29.18
-33.88
-32.88
-24.93
-10.16
9.85
32.59
55.45
76.44
94.71
110.56
124.91
138.58
151.67
163.37
172.22
176.67
175.73
169.27
157.92
142.69
124.50
103.99
81.61
57.99
34.13
11.39
-8.94
-26.18
-40.72
-53.98
-67.76
-83.51
-101.63
-121.13
-140.05
-156.21
-167.93
-174.63
-176.90
-176.16
-174.21
-172.59
-172.15
-172.64
-172.72
-170.13
-162.35
-147.51
-125.06
-96.30
-63.98
-31.62
-2.50
21.06
38.01
48.45
53.15
53.19
49.80
44.25
37.97
32.42
28.84
27.89
29.44
32.55
35.93
38.36
39.13
38.22
36.05
33.18
29.87
26.05
21.34
15.37
7.96
-0.72
-10.25
-20.11
-29.87
-39.36
-48.73
-58.43
-69.04
-80.91
-93.85
-106.85
-118.16
-125.67
-127.46
-122.46
-110.88
-94.14
-74.60
-54.77
-36.75
-21.71
-9.84
-0.70
6.25
11.28
14.33
15.23
14.26
12.31
10.84
11.33
14.51
20.07
26.79
33.18
38.27
42.02
45.15
48.59
52.98
58.37
64.33
70.31
75.78
80.26
83.17
83.78
81.41
75.59
66.28
53.70
38.08
19.65
-1.09
-22.98
-43.95
-61.35
-72.84
-77.20
-74.85
-67.65
-58.00
-48.01
-38.82
-30.75
-23.61
-17.22
-11.62
-6.93
-3.12
0.14
3.47
7.45
12.47
18.48
24.90
30.86
35.48
38.25
39.22
38.96
38.20
37.51
36.90
35.85
33.50
29.12
22.53
14.26
5.38
-2.89
-9.68
-14.72
-18.46
-21.90
-26.22
-32.39
-40.60
-49.90
-58.08
-62.12
-59.12
-47.30
-26.77
0.37
30.70
60.52
86.98
108.56
125.00
136.75
144.37
148.19
148.42
145.34
139.58
132.16
124.19
116.55
109.52
102.67
95.23
86.39
75.82
63.71
50.62
37.11
23.48
9.62
-4.75
-19.85
-35.66
-51.96
-68.51
-85.25
-102.33
-119.93
-137.97
-155.79
-172.13
-185.19
-192.99
-193.78
-186.33
-170.26
-146.10
-115.26
-79.86
-42.25
-4.67
31.14
63.88
92.45
115.63
132.11
140.76
141.27
134.46
122.25
107.10
91.24
76.19
62.59
50.39
39.19
28.49
17.75
6.50
-5.59
-18.57
-32.07
-45.40
-57.72
-68.22
-76.37
-82.06
-85.65
-87.91
-90.01
-93.19
-98.32
-105.64
-114.32
-122.56
-127.94
-128.15
-121.69
-108.48
-90.01
-68.84
-47.78
-29.06
-13.78
-2.07
6.37
11.84
14.38
14.15
11.95
9.33
8.23
10.12
15.31
22.64
29.99
35.19
37.05
35.71
32.53
29.34
27.58
27.69
29.04
30.21
29.71
26.61
20.88
13.39
5.46
-1.47
-6.28
-8.23
-6.92
-2.31
5.20
14.78
25.21
35.25
43.97
50.87
55.86
58.89
59.62
57.43
51.69
42.26
29.77
15.55
1.18
-12.16
-24.02
-34.70
-44.81
-54.74
-64.36
-73.15
-80.59
-86.52
-91.30
-95.47
-99.49
-103.62
-108.02
-113.13
-119.53
-127.48
-136.28
-143.90
-147.26
-143.38
-130.56
-109.34
-82.23
-52.79
-24.30
1.24
23.28
42.22
58.48
72.13
82.83
90.30
94.97
98.08
101.35
106.23
113.18
121.42
129.40
135.51
138.90
139.78
139.22
138.60
139.01
140.80
143.47
145.80
146.18
143.05
135.49
123.41
107.69
89.68
70.82
52.18
34.31
17.49
1.92
-12.03
-23.86
-33.04
-39.15
-42.04
-41.89
-39.27
-35.21
-31.19
-28.94
-30.04
-35.39
-44.94
-57.52
-71.33
-84.47
-95.50
-103.76
-109.28
-112.52
-113.83
-113.31
-110.91
-106.70
-101.41
-96.38
-93.31
-93.57
-97.54
-104.49
-112.79
-120.56
-126.19
-128.72
-127.54
-122.30
-112.69
-98.62
-80.52
-59.44
-36.92
-14.66
5.90
23.73
38.03
48.08
53.30
53.48
49.14
41.73
33.31
25.83
20.47
17.28
15.32
13.30
10.18
5.63
-0.05
-6.23
-12.41
-18.40
-24.33
-30.48
-37.09
-44.33
-52.29
-60.87
-69.64
-77.62
-83.24
-84.76
-80.72
-70.58
-54.99
-35.68
-14.86
5.41
23.63
39.03
51.26
60.20
65.77
68.05
67.47
64.99
61.91
59.62
59.03
60.28
62.61
64.72
65.43
64.17
61.25
57.64
54.37
52.02
50.38
48.61
45.55
40.28
32.42
22.33
11.31
1.37
-5.05
-5.56
1.27
15.37
34.88
56.62
77.06
93.38
104.24
109.69
110.75
108.58
103.97
97.25
88.52
78.01
66.29
54.24
42.72
32.25
22.78
13.76
4.42
-5.79
-16.85
-28.01
-38.09
-45.94
-51.11
-54.15
-56.50
-59.91
-65.83
-74.79
-86.24
-98.70
-110.10
-118.21
-121.01
-117.19
-106.41
-89.60
-68.74
-46.43
-25.06
-6.30
9.17
21.34
30.30
35.86
37.69
35.64
30.34
23.22
16.22
11.05
8.59
8.63
10.12
11.81
12.71
12.48
11.29
9.65
8.09
6.81
5.63
3.99
1.00
-4.30
-12.58
-23.90
-37.40
-51.18
-62.62
-69.02
-68.37
-59.98
-44.78
-24.99
-3.52
16.87
34.21
47.47
56.50
61.75
63.87
63.48
61.12
57.28
52.41
47.10
41.96
37.74
35.02
34.03
34.58
35.92
37.06
37.12
35.56
32.38
28.06
23.28
18.55
14.17
10.03
5.76
0.94
-4.86
-11.92
-20.33
-29.93
-40.13
-49.74
-57.03
-60.01
-56.97
-47.18
-31.37
-11.67
8.97
27.66
42.50
52.86
59.31
62.84
64.35
64.30
62.71
59.60
55.25
50.33
45.68
42.02
39.68
38.55
38.23
38.21
38.06
37.43
35.95
33.23
28.88
22.71
15.00
6.48
-1.76
-8.78
-14.11
-18.15
-21.85
-26.44
-32.71
-40.67
-49.40
-57.25
-62.17
-62.41
-56.92
-45.76
-30.12
-12.09
6.00
22.11
35.05
44.55
50.96
54.90
56.90
57.27
56.27
54.31
51.90
49.51
47.42
45.56
43.62
41.33
38.62
35.67
32.86
30.39
28.19
25.80
22.64
18.28
12.66
6.20
-0.49
-6.84
-12.60
-17.85
-22.93
-28.25
-34.20
-41.05
-48.90
-57.44
-65.79
-72.45
-75.51
-73.28
-64.93
-50.93
-33.01
-13.65
4.72
20.39
32.53
41.08
46.37
48.75
48.60
46.43
42.95
39.10
35.74
33.45
32.29
31.93
31.80
31.44
30.63
29.42
27.95
26.28
24.32
21.84
18.51
14.06
8.46
1.95
-4.90
-11.36
-16.79
-20.90
-23.98
-26.82
-30.56
-36.09
-43.82
-53.26
-62.98
-70.90
-74.83
-73.16
-65.36
-52.24
-35.61
-17.77
-0.80
13.79
25.19
33.26
38.21
40.53
40.84
39.75
37.78
35.28
32.39
29.10
25.46
21.68
18.09
14.95
12.43
10.47
8.93
7.71
6.66
5.54
3.87
1.09
-3.24
-9.00
-15.50
-21.58
-26.13
-28.68
-29.62
-30.16
-31.72
-35.34
-41.37
-49.35
-58.22
-66.57
-72.85
-75.56
-73.53
-66.34
-54.52
-39.62
-23.78
-9.17
2.75
11.53
17.63
21.91
25.08
27.27
28.13
27.19
24.32
20.03
15.37
11.52
9.23
8.59
9.00
9.62
9.75
9.06
7.57
5.46
2.88
-0.15
-3.52
-7.07
-10.57
-13.91
-17.25
-21.08
-26.05
-32.77
-41.28
-50.92
-60.17
-66.97
-69.24
-65.54
-55.60
-40.48
-22.31
-3.60
13.34
26.95
36.52
42.09
44.15
43.47
40.80
36.81
32.01
26.76
21.39
16.25
11.78
8.35
6.20
5.29
5.44
6.33
7.59
8.78
9.38
8.79
6.49
2.26
-3.68
-10.61
-17.69
-24.22
-29.91
-35.02
-40.20
-46.22
-53.52
-61.92
-70.30
-76.79
-79.30
-76.29
-67.37
-53.55
-36.79
-19.36
-3.08
10.93
22.19
30.57
35.98
38.43
38.10
35.64
31.98
28.12
24.90
22.67
21.53
21.38
22.06
23.45
25.30
27.22
28.72
29.25
28.42
26.12
22.55
18.19
13.56
9.13
5.11
1.45
-2.11
-5.90
-10.25
-15.40
-21.37
-27.86
-34.16
-39.07
-41.18
-39.24
-32.63
-21.70
-7.60
8.12
23.99
38.90
52.03
62.60
69.67
72.30
69.93
62.82
52.09
39.49
26.75
15.09
5.11
-3.04
-9.32
-13.58
-15.58
-15.42
-13.62
-11.25
-9.56
-9.58
-11.75
-15.83
-21.10
-26.64
-31.68
-35.71
-38.57
-40.28
-41.08
-41.31
-41.24
-40.96
-40.21
-38.42
-34.93
-29.31
-21.61
-12.40
-2.57
6.92
15.21
21.53
25.22
25.82
23.33
18.52
12.94
8.66
7.54
10.55
17.40
26.61
36.11
43.78
48.12
48.42
44.73
37.75
28.48
18.12
7.83
-1.46
-9.20
-15.38
-20.49
-25.19
-29.96
-34.81
-39.34
-43.02
-45.63
-47.44
-49.02
-50.78
-52.51
-53.28
-51.80
-47.23
-39.51
-29.47
-18.45
-7.71
1.87
9.84
16.01
20.31
22.92
24.33
25.29
26.64
28.91
32.12
35.75
38.93
40.70
40.27
37.18
31.41
23.44
14.32
5.37
-2.16
-7.55
-10.91
-13.12
-15.47
-19.08
-24.47
-31.49
-39.43
-47.25
-53.84
-58.05
-58.89
-55.70
-48.37
-37.60
-24.86
-12.01
-0.71
8.11
14.35
18.64
21.74
24.21
26.19
27.52
28.06
27.87
27.13
26.16
25.24
24.61
24.40
24.66
25.33
26.17
26.69
26.30
24.48
20.93
15.72
9.26
2.20
-4.79
-11.15
-16.66
-21.49
-26.21
-31.65
-38.60
-47.41
-57.59
-67.64
-75.34
-78.27
-74.62
-63.85
-47.00
-26.37
-4.80
15.15
31.90
44.97
54.75
62.01
67.32
70.93
72.88
73.24
72.42
71.22
70.57
71.07
72.67
74.63
75.86
75.56
73.52
70.19
66.39
62.86
60.05
58.16
57.23
57.13
57.49
57.55
56.17
52.17
44.71
33.48
18.73
1.11
-18.58
-39.27
-59.45
-77.02
-89.55
-94.97
-92.37
-82.34
-66.95
-48.95
-30.94
-14.73
-1.13
9.86
18.56
25.26
30.19
33.53
35.71
37.39
39.37
42.40
46.97
53.17
60.71
68.94
76.89
83.41
87.34
87.84
84.62
78.07
69.14
58.91
48.23
37.43
26.53
15.36
3.87
-7.94
-20.17
-33.19
-47.50
-63.33
-80.25
-96.75
-110.56
-119.26
-121.08
-115.68
-104.23
-88.97
-72.51
-57.05
-43.96
-33.70
-26.14
-20.89
-17.61
-16.09
-16.23
-17.77
-20.29
-23.12
-25.52
-26.86
-26.86
-25.65
-23.76
-22.01
-21.26
-22.22
-25.22
-30.11
-36.26
-42.78
-48.71
-53.34
-56.40
-57.97
-58.27
-57.51
-55.80
-53.26
-50.07
-46.53
-42.90
-38.97
-34.17
-27.67
-18.97
-8.29
3.23
13.95
22.33
27.51
29.60
29.32
27.63
25.26
22.60
19.81
17.03
14.59
12.91
12.32
12.80
13.90
14.84
14.90
13.66
11.34
8.76
7.08
7.35
9.98
14.61
20.03
24.55
26.52
24.76
18.81
8.96
-3.79
-17.80
-30.87
-40.60
-44.86
-42.47
-33.76
-20.63
-6.04
7.05
16.72
22.78
26.65
30.61
36.69
45.84
57.44
69.77
80.72
88.66
93.06
94.43
93.85
92.37
90.52
88.32
85.51
82.02
78.09
74.29
71.05
68.40
65.90
62.85
58.51
52.20
43.27
30.88
14.12
-7.59
-33.75
-62.49
-90.57
-114.16
-130.02
-136.44
-133.64
-123.45
-108.59
-91.91
-75.95
-62.65
-53.29
-48.35
-47.41
-49.32
-52.59
-55.76
-57.69
-57.48
-54.33
-47.55
-36.86
-22.82
-6.98
8.31
20.76
28.87
32.27
31.61
28.03
22.70
16.65
10.77
5.91
2.66
1.02
-0.02
-2.42
-8.44
-19.49
-35.09
-52.56
-67.67
-76.17
-75.40
-65.26
-48.06
-27.29
-6.18
13.43
31.20
47.61
62.91
76.62
87.55
94.59
97.42
96.87
94.61
92.37
91.16
90.76
89.81
86.42
78.89
66.49
49.76
30.46
11.24
-5.08
-16.16
-20.91
-19.80
-14.91
-9.32
-6.20
-7.86
-15.04
-26.77
-40.71
-53.77
-62.98
-66.04
-61.89
-50.87
-34.63
-15.69
3.07
19.13
30.69
36.89
37.71
33.80
26.41
17.09
7.58
-0.59
-6.37
-9.37
-10.03
-9.33
-8.56
-8.88
-11.05
-15.20
-20.85
-27.11
-32.96
-37.68
-40.97
-43.08
-44.64
-46.33
-48.70
-51.89
-55.71
-59.54
-62.63
-64.08
-63.17
-59.54
-53.33
-45.08
-35.46
-25.08
-14.26
-3.35
7.12
16.17
22.54
25.32
24.43
20.90
16.54
13.18
11.88
12.58
14.28
15.66
15.78
14.39
11.92
9.04
6.41
4.46
3.21
2.32
1.11
-1.20
-5.33
-11.61
-19.88
-29.42
-39.18
-47.99
-54.68
-58.37
-58.28
-53.92
-45.12
-32.16
-15.93
2.11
20.18
36.67
50.50
61.39
69.74
76.35
81.96
86.98
91.52
95.53
99.06
102.22
105.14
107.74
109.73
110.79
110.69
109.48
107.40
104.76
101.67
97.88
92.74
85.36
74.96
61.20
44.51
26.05
7.62
-8.75
-21.06
-27.67
-27.42
-19.81
-5.11
15.37
39.40
64.14
86.73
104.96
117.55
124.06
124.60
119.57
109.86
96.97
83.07
70.61
61.52
56.66
55.63
57.23
60.26
64.03
68.48
73.72
79.38
84.38
87.04
85.68
79.18
67.31
50.72
30.42
7.39
-17.81
-44.91
-73.59
-103.03
-131.68
-157.51
-178.57
-193.52
-201.91
-204.06
-200.81
-193.27
-182.83
-171.17
-160.16
-151.34
-145.39
-141.76
-138.69
-134.03
-126.08
-114.38
-99.76
-83.98
-69.03
-56.57
-47.59
-42.37
-40.64
-41.64
-44.34
-47.59
-50.31
-51.79
-51.85
-50.98
-50.13
-50.46
-52.83
-57.39
-63.31
-68.72
-71.33
-69.06
-60.91
-47.39
-30.51
-13.06
2.28
13.82
21.19
25.11
26.79
27.15
26.60
25.14
22.65
19.38
15.98
13.23
11.76
11.60
12.28
12.96
12.99
12.16
10.77
9.36
8.36
7.70
6.86
5.15
2.00
-2.73
-8.76
-15.47
-21.90
-26.78
-28.65
-25.97
-17.58
-3.29
15.88
37.84
60.09
80.59
98.21
112.67
124.01
132.12
136.68
137.57
135.50
132.09
129.25
128.21
128.57
128.16
123.75
112.33
92.44
64.69
31.57
-3.44
-36.99
-66.57
-90.86
-109.49
-122.73
-131.11
-135.40
-136.74
-136.53
-136.22
-136.64
-137.59
-137.61
-134.55
-126.52
-112.85
-94.58
-74.06
-54.21
-37.47
-25.18
-17.43
-13.49
-12.28
-12.82
-14.48
-16.88
-19.83
-23.02
-26.16
-29.00
-31.65
-34.55
-38.28
-43.13
-48.65
-53.83
-57.38
-58.50
-57.38
-55.31
-54.18
-55.72
-60.83
-69.21
-79.45
-89.38
-96.57
-99.01
-95.46
-85.83
-71.21
-53.41
-34.50
-16.19
0.48
15.11
27.63
38.05
46.31
52.38
56.46
59.08
60.99
62.76
64.56
65.90
65.99
64.15
60.28
55.13
50.14
46.98
46.91
50.33
56.62
64.21
70.93
74.42
72.73
64.70
50.27
30.60
7.72
-15.69
-36.94
-53.65
-64.11
-67.43
-63.64
-53.71
-39.40
-22.93
-6.60
7.68
18.68
25.94
29.71
30.68
29.75
27.78
25.51
23.48
22.19
21.97
23.09
25.53
28.97
32.77
36.18
38.59
39.71
39.71
39.13
38.56
38.44
38.91
39.73
40.38
40.14
38.12
33.60
26.37
17.20
8.01
1.60
0.82
7.55
21.87
41.93
64.66
86.82
106.06
121.18
131.87
138.09
139.68
136.53
128.97
118.29
106.59
96.32
89.50
87.04
88.48
92.33
96.48
98.85
97.96
93.27
85.29
75.47
65.82
58.32
54.32
54.10
56.65
59.80
60.69
56.55
45.52
27.35
3.79
-21.73
-45.03
-62.38
-71.60
-72.64
-67.47
-59.27
-51.40
-46.37
-45.24
-47.61
-52.03
-56.85
-60.87
-63.70
-65.66
-67.28
-68.82
-70.01
-70.21
-68.95
-66.33
-63.05
-60.12
-58.38
-58.05
-58.69
-59.52
-59.78
-59.08
-57.56
-55.79
-54.58
-54.61
-56.22
-59.18
-62.61
-65.09
-65.07
-61.34
-53.25
-40.78
-24.44
-5.12
15.96
37.23
56.82
72.93
84.19
90.15
91.36
89.05
84.58
78.85
72.01
63.50
52.51
38.39
21.22
1.84
-18.32
-37.54
-54.32
-67.74
-77.70
-84.82
-90.21
-95.11
-100.46
-106.72
-113.72
-120.92
-127.49
-132.54
-135.38
-135.64
-133.38
-129.04
-123.22
-116.40
-108.76
-100.04
-89.74
-77.34
-62.64
-46.13
-28.80
-12.01
2.95
15.15
24.17
30.12
33.27
34.07
32.86
29.92
25.63
20.56
15.55
11.52
9.23
8.82
9.80
11.07
11.38
9.85
6.24
1.01
-4.97
-10.76
-15.63
-18.97
-20.26
-18.98
-14.71
-7.47
2.15
12.89
23.22
31.67
37.29
39.76
39.38
36.91
33.31
29.46
25.99
23.16
20.87
18.90
17.12
15.53
14.30
13.57
13.31
13.20
12.67
10.98
7.45
1.52
-7.00
-17.61
-29.04
-39.24
-45.85
-46.92
-41.64
-30.62
-15.68
0.83
16.78
30.74
42.00
50.33
55.59
57.60
56.24
51.65
44.45
35.74
26.86
19.01
12.92
8.66
5.75
3.45
1.07
-1.71
-4.84
-8.08
-11.31
-14.68
-18.66
-23.73
-30.00
-36.88
-43.20
-47.43
-48.19
-44.65
-36.72
-25.11
-11.04
4.00
18.58
31.61
42.51
51.18
57.69
62.15
64.47
64.54
62.35
58.31
53.16
47.70
42.50
37.69
33.20
28.89
24.89
21.48
18.83
16.80
14.84
12.20
8.23
2.57
-4.82
-13.69
-23.48
-33.18
-41.34
-46.15
-46.02
-40.07
-28.50
-12.70
5.26
23.09
38.98
51.69
60.68
65.86
67.49
66.06
62.33
57.22
51.78
46.88
43.13
40.72
39.49
38.98
38.70
38.27
37.54
36.60
35.68
34.92
34.29
33.45
31.85
28.94
24.56
19.31
14.74
13.09
16.70
27.22
44.93
68.49
95.36
122.51
147.23
167.68
182.93
192.78
197.39
197.11
192.45
184.08
172.86
159.64
145.16
129.84
113.88
97.30
80.13
62.53
44.98
28.24
13.24
0.89
-8.33
-14.59
-18.81
-22.29
-26.33
-31.59
-37.86
-44.19
-49.23
-51.96
-52.01
-49.85
-46.55
-43.42
-41.76
-42.64
-46.86
-54.78
-66.21
-80.13
-94.79
-108.02
-117.90
-123.39
-124.58
-122.56
-118.77
-114.45
-110.29
-106.54
-103.31
-100.86
-99.48
-99.28
-100.00
-101.03
-101.83
-102.24
-102.62
-103.63
-105.75
-109.00
-112.80
-116.16
-118.02
-117.55
-114.37
-108.58
-100.74
-91.67
-82.37
-73.74
-66.50
-61.09
-57.68
-56.21
-56.26
-57.16
-57.93
-57.61
-55.49
-51.50
-46.12
-40.25
-34.74
-30.07
-26.21
-22.69
-18.92
-14.42
-9.04
-3.06
2.89
7.91
11.16
12.02
10.34
6.52
1.54
-3.17
-6.00
-5.49
-0.79
8.18
20.51
34.66
48.83
61.52
71.91
80.01
86.37
91.69
96.50
100.93
104.95
108.46
111.47
113.92
115.58
115.82
113.67
108.16
98.85
86.22
71.71
57.36
44.90
35.16
27.46
20.03
10.49
-3.30
-22.45
-46.69
-74.40
-102.86
-128.80
-148.93
-160.69
-162.69
-155.19
-139.92
-119.67
-97.43
-75.64
-55.85
-38.75
-24.62
-13.70
-6.35
-2.78
-2.63
-4.92
-8.26
-11.38
-13.67
-15.23
-16.59
-18.18
-19.84
-21.00
-20.93
-19.32
-16.59
-13.73
-11.86
-11.74
-13.56
-17.10
-22.08
-28.37
-35.80
-43.78
-51.00
-55.47
-55.06
-48.39
-35.45
-17.70
2.41
22.37
40.36
55.44
67.36
76.02
81.20
82.61
80.25
74.72
67.37
59.86
53.67
49.49
47.06
45.37
43.17
39.41
33.57
25.73
16.36
6.15
-4.29
-14.62
-24.88
-35.46
-47.05
-60.28
-75.29
-91.40
-106.93
-119.52
-126.73
-126.90
-119.65
-106.02
-88.03
-67.89
-47.34
-27.31
-8.19
9.79
25.99
39.32
48.61
53.25
53.62
51.18
48.00
45.93
46.03
48.23
51.64
55.09
57.63
58.82
58.69
57.62
56.19
54.96
54.38
54.57
55.05
54.72
52.03
45.50
34.39
19.14
1.44
-16.13
-30.69
-39.80
-41.97
-36.93
-25.62
-9.98
7.60
24.74
39.60
51.10
58.95
63.38
64.93
64.13
61.50
57.43
52.29
46.49
40.56
35.07
30.56
27.35
25.33
24.02
22.69
20.60
17.32
12.87
7.62
2.10
-3.25
-8.34
-13.44
-19.14
-26.14
-35.01
-45.94
-58.46
-71.36
-82.82
-90.65
-92.78
-87.82
-75.44
-56.59
-33.42
-8.76
14.57
34.37
49.55
60.08
66.62
70.04
71.02
70.00
67.41
63.86
60.25
57.53
56.42
57.14
59.33
62.23
64.91
66.51
66.38
64.11
59.52
52.54
43.28
32.06
19.50
6.39
-6.42
-18.39
-29.46
-40.17
-51.48
-64.20
-78.38
-92.86
-105.31
-112.83
-113.00
-104.80
-89.07
-68.23
-45.43
-23.52
-4.39
11.11
22.90
31.14
35.98
37.70
36.85
34.40
31.59
29.45
28.49
28.66
29.55
30.81
32.37
34.27
36.44
38.42
39.41
38.59
35.52
30.49
24.32
18.03
12.32
7.30
2.59
-2.47
-8.35
-15.17
-22.55
-29.54
-34.63
-35.99
-31.80
-20.83
-3.16
19.58
44.48
68.11
87.49
100.80
107.56
108.38
104.32
96.40
85.47
72.31
57.88
43.44
30.46
20.43
14.26
12.15
13.43
16.88
21.12
25.07
28.21
30.57
32.56
34.64
37.16
40.13
43.21
45.59
46.15
43.61
37.01
26.04
11.44
-4.99
-20.54
-32.08
-36.72
-32.52
-19.10
2.01
27.65
53.75
76.43
92.92
102.01
104.01
100.13
91.91
80.70
67.66
53.75
39.84
26.67
14.73
4.23
-4.81
-12.41
-18.50
-22.93
-25.67
-27.01
-27.67
-28.61
-30.80
-34.86
-40.86
-48.44
-56.97
-65.83
-74.65
-83.33
-91.90
-100.55
-109.50
-118.96
-128.86
-138.64
-147.01
-152.07
-151.83
-145.01
-131.73
-113.72
-93.85
-75.10
-59.61
-48.19
-40.48
-35.63
-32.92
-32.11
-33.21
-36.06
-40.07
-44.09
-46.77
-47.10
-44.63
-39.72
-33.26
-26.31
-19.79
-14.24
-9.76
-6.24
-3.47
-1.36
0.06
0.67
0.32
-1.14
-3.90
-8.14
-13.85
-20.57
-27.05
-31.33
-31.09
-24.30
-10.11
10.67
35.56
60.97
83.30
99.94
109.88
113.72
113.02
109.49
104.42
98.49
92.01
85.35
79.03
73.70
69.77
67.25
65.68
64.46
63.11
61.59
60.13
59.10
58.76
59.19
60.30
61.82
63.48
64.92
65.78
65.79
64.70
62.37
58.88
54.59
50.06
45.76
41.66
36.89
29.82
18.62
2.06
-19.75
-45.07
-70.96
-94.22
-112.42
-124.73
-132.02
-136.31
-139.61
-142.89
-145.22
-143.96
-135.58
-117.17
-87.84
-49.31
-5.67
37.79
75.91
104.84
122.78
130.11
129.07
123.01
115.43
108.80
103.95
100.22
96.45
92.19
88.66
88.39
94.10
107.21
126.90
150.28
173.36
192.49
205.26
210.66
208.69
199.67
183.95
161.78
133.71
100.88
65.21
28.99
-5.68
-37.72
-67.60
-97.29
-129.41
-166.00
-207.21
-250.78
-292.42
-326.94
-349.66
-357.43
-349.17
-325.74
-289.71
-245.00
-196.58
-149.86
-109.79
-79.77
-60.89
-51.65
-48.44
-46.54
-41.19
-28.48
-5.95
26.92
68.42
114.56
159.81
198.40
225.94
240.46
242.59
234.49
218.37
195.52
166.10
129.81
86.85
38.63
-12.16
-61.78
-106.04
-140.64
-161.82
-167.20
-156.99
-134.64
-106.18
-78.42
-56.66
-43.07
-36.62
-34.41
-33.48
-32.07
-29.79
-26.68
-22.29
-15.41
-4.76
10.02
27.82
46.64
64.73
81.51
97.44
113.02
127.59
138.72
142.80
136.34
117.26
85.58
43.00
-8.30
-66.91
-132.48
-204.90
-282.69
-361.36
-433.27
-489.10
-520.90
-525.26
-505.01
-468.43
-426.14
-387.05
-355.36
-329.81
-305.58
-277.25
-241.57
-198.43
-150.24
-100.57
-52.69
-8.99
29.24
61.51
87.92
108.95
125.33
137.85
147.14
153.64
157.52
158.81
157.55
153.86
148.13
141.16
134.25
128.80
125.60
123.76
120.27
110.70
91.11
60.25
20.68
-21.80
-60.48
-90.39
-110.26
-122.42
-131.37
-141.68
-156.37
-176.36
-200.58
-226.38
-249.88
-266.52
-271.95
-263.38
-240.73
-206.70
-165.96
-123.53
-83.46
-48.27
-18.96
4.59
23.35
38.93
53.34
68.36
84.72
101.54
116.36
126.17
128.67
123.46
112.26
98.31
85.10
75.19
69.56
67.74
68.28
69.51
70.02
68.85
65.43
59.30
50.24
38.50
25.10
11.94
1.58
-3.55
-1.84
6.81
21.01
38.39
56.53
73.61
88.79
101.81
112.39
119.85
123.16
121.55
115.15
105.32
94.22
84.09
76.35
71.28
68.10
65.71
63.23
60.28
56.91
53.33
49.58
45.50
40.81
35.17
28.31
19.92
9.74
-2.41
-16.33
-31.18
-45.28
-56.29
-61.83
-60.20
-51.05
-35.64
-16.45
3.70
22.49
38.59
51.56
61.40
68.03
71.06
70.14
65.39
57.76
48.97
40.98
35.42
32.99
33.30
35.22
37.38
38.64
38.42
36.59
33.36
28.99
23.70
17.70
11.21
4.43
-2.62
-10.19
-18.79
-28.87
-40.28
-51.94
-61.79
-67.29
-66.30
-57.90
-42.75
-22.89
-1.07
20.14
38.87
54.03
65.25
72.40
75.51
74.76
70.60
63.95
56.03
48.31
42.09
38.26
37.02
37.91
39.81
41.42
41.59
39.77
36.06
31.14
25.88
20.87
16.20
11.40
5.72
-1.55
-10.88
-22.22
-34.94
-47.73
-58.66
-65.43
-65.93
-58.90
-44.45
-24.16
-0.57
23.44
45.52
64.21
78.83
89.14
95.12
96.85
94.75
89.82
83.61
77.86
73.94
72.51
73.37
75.72
78.59
81.19
83.16
84.53
85.66
86.99
88.85
91.25
93.74
95.43
95.07
91.37
83.15
69.64
50.62
26.61
-0.85
-29.25
-55.34
-75.80
-88.04
-91.02
-85.30
-72.77
-55.87
-36.94
-17.77
0.18
15.57
26.98
33.09
33.07
27.05
16.29
3.03
-10.03
-20.33
-26.11
-26.59
-22.19
-14.28
-4.85
3.80
9.63
11.20
7.98
0.41
-10.15
-21.87
-32.89
-41.83
-48.21
-52.63
-56.52
-61.47
-68.41
-76.92
-85.09
-90.12
-89.46
-81.92
-68.11
-49.96
-29.74
-9.13
11.10
30.52
48.40
63.21
72.85
75.70
71.39
61.25
47.89
34.28
22.89
15.18
11.68
12.26
16.44
23.45
32.13
40.94
48.15
52.21
52.08
47.58
39.34
28.63
17.04
6.10
-3.08
-9.89
-14.26
-16.35
-16.22
-13.56
-7.77
1.82
15.43
32.62
52.29
72.85
92.49
109.35
121.40
126.61
123.27
110.42
88.43
59.16
25.72
-8.16
-38.93
-63.79
-81.10
-90.30
-92.00
-87.72
-79.64
-70.25
-61.78
-55.83
-53.09
-53.48
-56.42
-61.30
-67.74
-75.62
-84.95
-95.48
-106.60
-117.22
-125.93
-131.32
-132.18
-127.64
-117.32
-101.32
-80.29
-55.51
-28.73
-1.89
23.20
45.27
63.73
78.52
89.68
97.14
100.55
99.51
93.94
84.29
71.61
57.35
43.24
30.98
22.00
17.25
16.93
20.24
25.51
30.44
32.62
30.24
22.54
10.04
-5.41
-21.11
-34.21
-42.45
-45.01
-42.82
-38.29
-34.59
-34.57
-39.88
-50.38
-64.14
-77.77
-87.21
-88.68
-79.86
-60.77
-34.06
-4.28
23.43
44.99
58.33
63.49
61.82
55.00
44.54
31.76
18.41
6.81
-0.47
-1.44
4.36
15.52
29.12
41.86
51.11
55.69
55.69
52.03
45.47
36.14
23.52
7.08
-12.92
-34.88
-56.02
-73.21
-84.22
-88.62
-88.00
-85.29
-83.70
-85.57
-91.87
-102.11
-114.65
-127.17
-136.95
-141.38
-138.41
-127.01
-107.69
-82.36
-53.97
-25.74
-0.44
20.13
35.31
45.30
50.92
53.29
53.51
52.52
51.05
49.61
48.57
48.18
48.51
49.44
50.67
51.80
52.48
52.51
51.83
50.32
47.71
43.60
37.72
30.17
21.59
12.99
5.27
-1.13
-6.56
-11.92
-18.32
-26.62
-37.01
-48.76
-60.17
-68.91
-72.50
-69.19
-58.56
-41.87
-21.61
-0.72
18.33
34.12
46.34
55.38
61.67
65.47
66.77
65.66
62.56
58.18
53.48
49.23
45.84
43.35
41.50
39.99
38.64
37.49
36.53
35.61
34.27
31.83
27.76
21.96
14.94
7.64
1.08
-4.17
-8.15
-11.62
-15.71
-21.46
-29.37
-39.08
-49.35
-58.20
-63.36
-62.84
-55.58
-41.90
-23.45
-2.89
17.03
34.16
47.38
56.59
62.24
64.95
65.13
63.26
59.86
55.75
51.77
48.46
45.90
43.67
41.25
38.40
35.28
32.27
29.70
27.47
25.12
21.96
17.46
11.45
4.12
-4.03
-12.37
-20.30
-27.40
-33.64
-39.40
-45.45
-52.67
-61.53
-71.64
-81.49
-88.70
-90.74
-85.81
-73.43
-54.81
-32.41
-9.31
11.76
28.91
41.40
49.36
53.48
54.55
53.29
50.35
46.38
42.07
38.02
34.56
31.71
29.22
26.88
24.63
22.66
21.21
20.26
19.39
17.86
14.93
10.17
3.65
-4.22
-12.79
-21.45
-29.77
-37.49
-44.61
-51.50
-58.80
-67.24
-77.07
-87.61
-97.03
-102.77
-102.30
-94.13
-78.58
-57.76
-34.92
-13.39
4.54
18.03
27.60
34.39
39.35
42.89
44.82
44.77
42.68
38.98
34.55
30.27
26.85
24.52
23.16
22.42
21.86
21.05
19.64
17.35
14.05
9.73
4.50
-1.47
-7.92
-14.57
-21.17
-27.66
-34.32
-41.76
-50.60
-61.03
-72.16
-81.94
-87.49
-86.16
-76.62
-59.50
-37.39
-13.86
7.70
25.19
38.20
47.58
54.62
60.14
64.12
65.89
64.81
60.82
54.77
48.17
42.52
38.75
36.92
36.38
36.19
35.60
34.26
32.16
29.42
26.07
22.06
17.28
11.65
5.13
-2.31
-10.76
-20.21
-30.53
-41.19
-51.12
-58.75
-62.28
-60.14
-51.63
-37.30
-18.97
0.71
19.07
34.22
45.35
52.67
56.85
58.50
57.95
55.31
50.83
45.06
38.88
33.31
29.15
26.83
26.29
26.99
28.12
28.74
28.06
25.65
21.56
16.29
10.52
4.88
-0.41
-5.50
-10.84
-17.00
-24.43
-33.32
-43.44
-54.03
-63.74
-70.74
-73.13
-69.49
-59.43
-43.90
-24.94
-5.15
13.01
27.84
38.57
45.20
48.17
48.00
45.26
40.55
34.60
28.32
22.70
18.62
16.58
16.56
17.81
19.19
19.44
17.76
14.07
9.08
3.83
-0.79
-4.51
-7.75
-11.28
-15.82
-21.72
-28.95
-37.24
-46.17
-55.02
-62.60
-67.31
-67.36
-61.56
-49.91
-33.79
-15.61
2.03
17.13
28.65
36.37
40.48
41.21
38.84
33.85
27.15
19.99
13.74
9.34
7.08
6.48
6.60
6.40
5.17
2.71
-0.72
-4.61
-8.43
-11.92
-15.05
-18.07
-21.33
-25.20
-30.03
-36.00
-43.05
-50.55
-57.22
-61.27
-60.83
-54.72
-42.93
-26.85
-8.78
8.73
23.63
34.72
41.60
44.47
43.79
40.21
34.60
28.07
21.89
17.19
14.63
14.17
15.14
16.49
17.26
16.91
15.48
13.44
11.25
9.08
6.58
3.13
-1.83
-8.46
-16.44
-25.19
-34.14
-42.80
-50.60
-56.69
-59.82
-58.73
-52.66
-41.91
-27.93
-12.90
1.06
12.58
21.25
27.32
31.16
32.85
32.17
28.94
23.55
17.15
11.34
7.59
6.57
7.84
10.12
11.98
12.42
11.25
9.03
6.52
4.25
2.25
0.09
-2.75
-6.65
-11.71
-17.80
-24.68
-31.85
-38.54
-43.56
-45.41
-42.83
-35.25
-23.19
-8.35
6.89
20.23
30.19
36.38
39.30
39.83
38.63
35.99
31.95
26.72
20.97
15.75
12.11
10.65
11.12
12.56
13.63
13.27
11.07
7.33
2.80
-1.72
-5.73
-9.21
-12.40
-15.69
-19.37
-23.60
-28.44
-33.93
-40.06
-46.58
-52.87
-57.75
-59.72
-57.45
-50.32
-38.79
-24.43
-9.43
4.08
14.62
21.64
25.37
26.43
25.38
22.65
18.53
13.41
7.97
3.08
-0.41
-1.98
-1.71
-0.20
1.66
2.91
2.97
1.63
-0.97
-4.52
-8.66
-13.11
-17.59
-21.89
-25.90
-29.64
-33.33
-37.33
-42.00
-47.52
-53.75
-59.93
-64.79
-66.72
-64.20
-56.35
-43.43
-26.87
-8.86
8.27
22.78
33.84
41.41
45.91
47.71
46.98
43.90
38.83
32.62
26.45
21.60
18.95
18.68
20.12
22.09
23.35
22.93
20.53
16.39
11.16
5.53
0.05
-5.01
-9.60
-13.84
-18.00
-22.45
-27.66
-33.95
-41.20
-48.55
-54.47
-56.98
-54.40
-46.06
-32.60
-16.02
1.01
16.01
27.39
34.74
38.54
39.63
38.69
36.08
31.91
26.48
20.36
14.45
9.75
6.98
6.31
7.29
8.97
10.24
10.12
8.17
4.45
-0.44
-5.77
-10.90
-15.55
-19.86
-24.27
-29.34
-35.53
-43.03
-51.53
-60.14
-67.47
-71.82
-71.69
-66.19
-55.41
-40.38
-22.87
-4.96
11.33
24.38
33.17
37.34
37.20
33.67
28.06
21.78
16.08
11.74
8.95
7.44
6.66
6.15
5.64
5.12
4.69
4.39
3.97
2.97
0.89
-2.50
-6.95
-11.78
-16.19
-19.58
-21.81
-23.36
-25.07
-27.97
-32.82
-39.87
-48.46
-57.02
-63.30
-64.99
-60.46
-49.35
-32.84
-13.25
6.62
24.40
38.58
48.74
55.13
58.25
58.63
56.67
52.86
47.90
42.67
38.12
34.90
33.23
32.86
33.18
33.50
33.25
32.07
29.81
26.53
22.40
17.76
12.85
7.83
2.66
-2.87
-9.09
-16.30
-24.71
-34.32
-44.72
-54.94
-63.36
-67.97
-66.87
-59.04
-44.90
-26.29
-5.91
13.47
29.84
42.15
50.29
54.59
55.56
53.82
50.10
45.25
40.22
35.76
32.36
30.15
28.96
28.48
28.33
28.18
27.75
26.87
25.46
23.42
20.59
16.72
11.68
5.60
-1.02
-7.49
-13.16
-17.82
-21.98
-26.65
-32.93
-41.31
-51.19
-60.83
-67.75
-69.53
-64.76
-53.47
-37.11
-18.12
0.96
17.93
31.45
40.94
46.42
48.22
46.82
42.84
37.09
30.50
24.08
18.81
15.35
14.04
14.72
16.78
19.32
21.27
21.73
20.15
16.51
11.26
5.11
-1.17
-6.98
-12.09
-16.54
-20.66
-25.00
-30.19
-36.78
-44.92
-53.98
-62.43
-68.06
-68.66
-62.80
-50.45
-33.12
-13.33
6.17
23.13
36.22
44.97
49.54
50.41
48.21
43.71
37.85
31.65
26.12
22.03
19.77
19.29
20.14
21.54
22.62
22.61
21.18
18.42
14.81
10.93
7.09
3.21
-1.17
-6.57
-13.34
-21.47
-30.64
-40.44
-50.41
-59.79
-67.42
-71.64
-70.69
-63.38
-49.85
-31.78
-11.89
6.92
22.51
34.00
41.53
45.82
47.51
46.92
44.25
39.86
34.48
29.17
24.91
22.19
20.97
20.72
20.78
20.62
19.87
18.38
15.95
12.40
7.68
2.00
-4.05
-9.72
-14.39
-17.94
-20.86
-24.09
-28.60
-34.95
-43.01
-51.85
-59.89
-65.21
-66.02
-61.12
-50.32
-34.56
-15.64
4.08
22.40
37.56
48.55
55.01
57.23
55.90
52.02
46.80
41.40
36.89
33.93
32.76
33.11
34.40
35.88
36.92
37.18
36.63
35.47
33.88
31.95
29.53
26.31
21.95
16.24
9.29
1.54
-6.29
-13.43
-19.27
-23.68
-27.15
-30.63
-35.25
-41.73
-50.08
-59.23
-67.29
-72.10
-71.73
-65.22
-52.79
-35.87
-16.68
2.36
19.18
32.44
41.61
46.85
48.73
48.07
45.67
42.28
38.63
35.35
33.02
32.05
32.63
34.53
37.18
39.72
41.38
41.61
40.33
37.77
34.31
30.31
25.97
21.42
16.74
12.01
7.32
2.69
-1.94
-6.63
-11.39
-16.13
-20.64
-24.84
-28.81
-32.90
-37.63
-43.47
-50.66
-58.90
-67.21
-74.02
-77.41
-75.60
-67.57
-53.59
-35.23
-15.18
3.71
19.12
30.00
36.54
39.69
40.49
39.57
37.20
33.60
29.27
25.09
22.01
20.68
21.10
22.72
24.72
26.42
27.48
27.92
27.87
27.42
26.52
24.99
22.64
19.32
14.99
9.84
4.21
-1.43
-6.69
-11.34
-15.43
-19.16
-22.77
-26.40
-30.08
-33.81
-37.72
-42.17
-47.51
-53.82
-60.50
-66.25
-69.24
-67.72
-60.73
-48.60
-32.91
-16.00
-0.23
12.75
22.33
28.80
32.84
35.02
35.54
34.34
31.37
27.02
22.11
17.79
15.08
14.45
15.65
17.90
20.26
22.00
22.84
22.83
22.15
21.00
19.46
17.56
15.30
12.60
9.37
5.47
0.86
-4.24
-9.49
-14.48
-19.02
-23.19
-27.29
-31.62
-36.38
-41.73
-47.79
-54.62
-62.00
-69.06
-74.19
-75.36
-70.87
-60.15
-44.18
-25.26
-6.26
10.38
23.31
32.31
37.88
40.73
41.33
39.90
36.67
32.08
27.03
22.67
20.08
19.86
21.89
25.39
29.16
32.12
33.57
33.29
31.52
28.68
25.20
21.46
17.76
14.26
10.99
7.67
3.86
-0.88
-6.69
-13.29
-19.99
-26.05
-31.01
-34.89
-38.12
-41.27
-44.85
-49.24
-54.65
-61.05
-68.01
-74.47
-78.72
-78.85
-73.40
-62.02
-45.82
-27.06
-8.42
7.89
20.60
29.49
35.01
37.80
38.50
37.58
35.55
32.93
30.29
28.06
26.54
25.75
25.70
26.30
27.44
28.90
30.32
31.20
31.12
29.82
27.35
23.96
19.97
15.61
11.00
6.25
1.54
-2.95
-7.11
-11.01
-14.89
-18.97
-23.33
-27.81
-32.09
-36.01
-39.74
-43.78
-48.84
-55.41
-63.36
-71.63
-78.41
-81.50
-79.06
-70.25
-55.68
-37.21
-17.42
1.19
16.77
28.42
36.06
40.09
41.14
39.96
37.38
34.32
31.58
29.74
29.03
29.38
30.57
32.33
34.39
36.39
37.96
38.76
38.60
37.51
35.56
32.78
29.11
24.52
19.19
13.58
8.29
3.84
0.38
-2.41
-5.12
-8.38
-12.53
-17.48
-22.86
-28.10
-32.79
-36.68
-39.86
-42.74
-45.96
-50.20
-55.95
-63.20
-71.21
-78.53
-83.17
-83.17
-77.22
-65.16
-48.18
-28.54
-8.91
8.36
21.83
31.14
36.81
39.74
40.79
40.45
38.99
36.62
33.77
31.16
29.62
29.76
31.63
34.76
38.21
41.11
42.86
43.38
42.91
41.75
40.06
37.68
34.35
29.77
24.01
17.50
10.99
5.30
0.96
-2.06
-4.38
-6.87
-10.31
-14.97
-20.57
-26.38
-31.69
-36.15
-39.94
-43.63
-47.83
-52.98
-59.30
-66.80
-75.36
-84.54
-93.48
-100.60
-103.97
-101.74
-92.99
-78.25
-59.48
-39.43
-20.61
-4.61
8.27
18.46
26.64
33.29
38.61
42.70
45.73
47.94
49.45
50.19
49.95
48.52
46.00
42.82
39.61
36.87
34.80
33.14
31.37
28.94
25.52
21.21
16.59
12.48
9.70
8.63
8.99
9.91
10.07
8.30
3.87
-3.14
-11.88
-21.11
-29.59
-36.50
-41.66
-45.50
-48.82
-52.57
-57.48
-63.89
-71.45
-79.08
-84.94
-86.82
-82.79
-71.88
-54.63
-32.98
-9.83
12.00
30.43
44.46
54.12
60.03
63.00
63.90
63.56
62.78
62.24
62.40
63.36
65.00
67.03
69.24
71.42
73.28
74.43
74.39
72.77
69.45
64.72
59.19
53.54
48.25
43.47
39.02
34.46
29.40
23.58
17.09
10.21
3.38
-3.09
-9.14
-14.98
-20.98
-27.48
-34.70
-42.69
-51.37
-60.43
-69.20
-76.55
-80.83
-80.29
-73.67
-60.92
-43.45
-23.80
-4.84
11.21
23.46
32.19
38.32
42.63
45.32
46.09
44.64
41.21
36.74
32.61
29.99
29.37
30.37
32.11
33.69
34.59
34.81
34.55
34.00
33.09
31.51
28.89
25.05
20.02
14.00
7.30
0.26
-6.72
-13.21
-18.79
-23.23
-26.65
-29.50
-32.54
-36.57
-42.21
-49.68
-58.58
-67.85
-75.78
-80.30
-79.48
-72.18
-58.54
-40.08
-19.33
0.95
18.58
32.41
42.31
48.74
52.31
53.38
52.16
48.97
44.41
39.50
35.36
32.84
32.19
33.05
34.62
36.07
36.81
36.60
35.50
33.74
31.59
29.26
26.84
24.19
20.98
16.78
11.29
4.53
-3.00
-10.46
-17.01
-22.21
-26.29
-29.98
-34.32
-40.25
-48.19
-57.89
-68.26
-77.46
-83.35
-84.00
-78.30
-66.40
-49.70
-30.48
-11.22
6.09
20.31
31.18
39.05
44.34
47.40
48.45
47.82
46.10
44.05
42.52
41.98
42.46
43.57
44.66
45.22
44.94
43.74
41.73
39.10
36.04
32.70
29.13
25.20
20.62
15.10
8.50
1.06
-6.59
-13.68
-19.70
-24.65
-29.04
-33.64
-39.15
-45.84
-53.49
-61.31
-68.14
-72.59
-73.22
-68.95
-59.31
-44.74
-26.68
-7.29
11.10
26.61
38.26
45.97
50.30
51.97
51.57
49.50
46.19
42.23
38.39
35.35
33.50
32.76
32.72
32.87
32.85
32.52
31.88
30.96
29.74
28.02
25.58
22.16
17.64
12.05
5.71
-0.80
-6.82
-11.82
-15.64
-18.61
-21.30
-24.39
-28.41
-33.79
-40.72
-49.14
-58.43
-67.24
-73.52
-75.05
-70.29
-59.16
-43.24
-25.21
-7.91
6.73
18.14
26.84
33.71
39.25
43.33
45.40
45.06
42.53
38.75
34.96
32.26
31.13
31.37
32.27
33.01
33.06
32.25
30.80
29.14
27.62
26.34
25.06
23.36
20.77
17.05
12.23
6.59
0.54
-5.61
-11.59
-17.21
-22.29
-26.69
-30.53
-34.17
-38.31
-43.64
-50.46
-58.29
-65.77
-70.90
-71.76
-67.15
-57.00
-42.47
-25.50
-8.32
7.24
20.12
30.08
37.54
43.08
47.08
49.50
50.07
48.57
45.18
40.71
36.33
33.19
31.94
32.38
33.71
34.90
35.21
34.43
32.80
30.70
28.41
26.01
23.35
20.32
16.86
12.90
8.33
3.08
-2.92
-9.46
-16.22
-22.77
-28.78
-34.25
-39.42
-44.76
-50.68
-57.41
-64.64
-71.54
-76.76
-78.75
-76.17
-68.44
-56.10
-40.68
-24.37
-9.21
3.49
13.35
20.67
26.03
29.81
32.02
32.53
31.29
28.70
25.54
22.74
21.13
20.98
22.03
23.56
24.78
25.17
24.55
23.19
21.50
19.84
18.31
16.68
14.49
11.24
6.70
0.95
-5.52
-12.01
-17.82
-22.56
-26.24
-29.28
-32.27
-35.75
-40.00
-45.00
-50.61
-56.61
-62.69
-68.21
-72.06
-72.80
-69.00
-60.00
-46.32
-29.73
-12.67
2.56
14.58
23.22
29.11
33.10
35.61
36.65
35.98
33.63
30.19
26.66
24.01
22.78
22.79
23.36
23.76
23.50
22.59
21.35
20.16
19.15
18.16
16.86
14.84
11.89
7.88
2.92
-2.72
-8.65
-14.37
-19.44
-23.54
-26.67
-29.21
-31.77
-35.11
-39.83
-46.17
-53.81
-61.75
-68.41
-71.97
-70.88
-64.42
-53.04
-38.35
-22.62
-8.03
3.92
12.75
18.87
23.16
26.41
28.98
30.82
31.59
31.01
28.95
25.63
21.40
16.80
12.36
8.58
5.85
4.41
4.17
4.80
5.81
6.63
6.89
6.43
5.33
3.73
1.67
-0.87
-4.07
-7.97
-12.45
-17.23
-21.96
-26.43
-30.70
-34.99
-39.62
-44.82
-50.62
-56.75
-62.68
-67.55
-70.27
-69.68
-64.92
-55.76
-42.80
-27.30
-10.88
4.93
19.01
30.70
39.67
45.93
49.62
50.99
50.51
48.74
46.26
43.67
41.41
39.73
38.75
38.36
38.25
38.03
37.21
35.42
32.49
28.54
23.94
19.20
14.76
10.80
7.11
3.23
-1.36
-6.84
-12.89
-18.86
-24.02
-28.09
-31.39
-34.65
-38.77
-44.35
-51.49
-59.86
-68.72
-77.00
-83.29
-85.93
-83.42
-74.99
-61.06
-43.33
-24.36
-6.67
8.05
19.29
27.47
33.35
37.55
40.29
41.54
41.34
39.97
37.93
35.78
34.02
32.95
32.58
32.67
32.79
32.40
31.12
28.87
25.92
22.81
19.95
17.49
15.08
12.08
7.94
2.54
-3.73
-10.17
-16.03
-21.00
-25.25
-29.27
-33.62
-38.66
-44.49
-51.14
-58.62
-66.86
-75.43
-83.19
-88.30
-88.67
-82.83
-70.64
-53.58
-34.29
-15.56
0.50
13.11
22.45
29.19
33.84
36.57
37.38
36.42
34.22
31.63
29.56
28.57
28.68
29.41
30.06
30.10
29.44
28.47
27.75
27.65
27.95
27.80
26.08
21.94
15.29
6.86
-2.03
-10.11
-16.63
-21.56
-25.42
-28.98
-33.05
-38.27
-45.12
-53.69
-63.54
-73.34
-81.03
-84.20
-80.87
-70.30
-53.43
-32.70
-11.32
7.81
22.85
33.38
40.03
43.88
45.82
46.38
45.80
44.33
42.46
40.81
39.88
39.80
40.17
40.39
39.95
38.70
36.95
35.14
33.57
32.04
29.95
26.57
21.47
14.83
7.36
0.01
-6.56
-12.22
-17.46
-23.07
-29.84
-38.16
-47.93
-58.33
-68.01
-75.14
-77.85
-74.70
-65.15
-49.88
-30.67
-9.94
9.87
26.91
40.22
49.58
55.35
57.98
57.92
55.63
51.77
47.22
42.99
40.01
38.68
38.82
39.74
40.61
40.85
40.34
39.26
37.80
35.90
33.22
29.34
24.09
17.65
10.54
3.46
-3.03
-8.68
-13.61
-18.31
-23.45
-29.74
-37.70
-47.44
-58.41
-69.26
-78.00
-82.33
-80.33
-71.22
-55.62
-35.58
-13.91
6.60
23.99
37.45
47.13
53.67
57.67
59.48
59.25
57.16
53.73
49.80
46.39
44.38
44.14
45.48
47.71
49.93
51.41
51.68
50.64
48.44
45.25
41.27
36.67
31.58
26.15
20.48
14.68
8.77
2.79
-3.30
-9.43
-15.51
-21.43
-27.10
-32.53
-37.85
-43.43
-49.73
-57.23
-66.01
-75.54
-84.48
-90.90
-92.76
-88.46
-77.52
-60.77
-40.21
-18.40
2.17
19.69
33.23
42.58
48.02
49.99
48.97
45.56
40.55
34.92
29.73
25.96
24.16
24.46
26.42
29.30
32.25
34.56
35.78
35.83
34.92
33.32
31.23
28.59
25.15
20.65
14.96
8.41
1.69
-4.34
-9.01
-12.05
-13.94
-15.67
-18.50
-23.54
-31.42
-42.09
-54.82
-68.20
-80.21
-88.49
-90.85
-85.86
-73.41
-54.87
-32.83
-10.35
9.82
25.91
37.33
44.49
48.34
49.92
50.06
49.28
47.95
46.38
44.90
43.92
43.77
44.48
45.68
46.71
46.76
45.33
42.38
38.36
33.88
29.31
24.67
19.57
13.62
6.67
-0.97
-8.63
-15.56
-21.26
-25.60
-28.92
-31.87
-35.31
-40.22
-47.44
-57.32
-69.29
-81.50
-91.10
-94.90
-90.52
-77.33
-56.87
-32.40
-7.73
13.94
30.86
42.78
50.37
54.45
55.50
53.74
49.51
43.64
37.45
32.45
29.75
29.69
31.77
34.97
38.20
40.65
42.07
42.53
42.37
41.84
40.96
39.37
36.42
31.45
24.12
14.82
4.57
-5.19
-13.25
-19.13
-23.24
-26.61
-30.40
-35.47
-42.06
-49.78
-57.70
-64.33
-67.91
-66.72
-59.68
-46.81
-29.39
-9.72
9.53
26.13
38.73
47.02
51.40
52.64
51.57
48.84
44.99
40.60
36.34
32.95
31.15
31.29
33.20
36.12
38.92
40.61
40.65
39.27
37.13
34.94
33.00
31.03
28.42
24.53
19.13
12.48
5.30
-1.54
-7.28
-11.55
-14.51
-16.87
-19.66
-23.96
-30.52
-39.51
-50.13
-60.73
-69.21
-73.48
-72.15
-64.92
-52.59
-36.83
-19.67
-3.01
11.75
23.70
32.50
38.09
40.74
40.88
39.14
36.30
33.21
30.61
29.05
28.82
29.79
31.50
33.27
34.42
34.59
33.82
32.42
30.77
29.05
27.04
24.20
19.95
13.95
6.38
-2.08
-10.53
-18.15
-24.52
-29.77
-34.51
-39.52
-45.54
-52.89
-61.30
-69.82
-76.98
-81.01
-80.38
-74.25
-62.75
-47.13
-29.42
-11.91
3.51
15.66
24.19
29.28
31.46
31.31
29.39
26.44
23.29
20.77
19.48
19.52
20.45
21.54
22.14
21.92
21.03
19.80
18.44
16.82
14.43
10.81
5.78
-0.27
-6.53
-12.06
-16.36
-19.49
-22.16
-25.39
-30.09
-36.67
-44.87
-53.76
-61.94
-67.78
-69.77
-66.80
-58.51
-45.35
-28.70
-10.57
6.87
21.78
33.06
40.49
44.47
45.81
45.32
43.62
41.25
38.65
36.25
34.37
33.19
32.62
32.33
31.92
31.05
29.57
27.51
24.95
21.86
18.13
13.62
8.30
2.38
-3.83
-10.01
-15.97
-21.75
-27.49
-33.38
-39.65
-46.50
-54.09
-62.28
-70.36
-76.92
-80.09
-78.13
-70.31
-57.29
-41.09
-24.27
-9.14
3.07
12.22
18.82
23.49
26.48
27.69
26.95
24.44
20.66
16.42
12.47
9.27
6.98
5.50
4.72
4.54
4.83
5.39
5.83
5.66
4.46
2.06
-1.39
-5.45
-9.56
-13.28
-16.45
-19.30
-22.51
-26.96
-33.42
-42.06
-52.13
-61.96
-69.43
-72.55
-70.24
-62.70
-51.19
-37.68
-24.10
-11.90
-1.84
5.94
11.58
15.35
17.43
17.93
16.99
14.86
12.01
9.10
6.80
5.71
6.09
7.76
10.20
12.65
14.35
14.83
13.94
11.94
9.31
6.51
3.83
1.25
-1.47
-4.70
-8.69
-13.54
-19.12
-25.03
-30.74
-35.54
-38.58
-38.99
-36.08
-29.49
-19.47
-6.92
6.70
19.69
30.52
38.25
42.70
44.42
44.31
43.24
41.68
39.76
37.41
34.69
31.95
29.72
28.51
28.42
29.10
29.79
29.68
28.22
25.32
21.38
16.94
12.48
8.13
3.69
-1.22
-6.90
-13.31
-20.22
-27.36
-34.66
-42.33
-50.48
-58.66
-65.58
-69.41
-68.39
-61.77
-50.19
-35.56
-20.25
-6.26
5.37
14.47
21.32
26.06
28.59
28.71
26.60
23.04
19.19
16.25
14.92
15.16
16.38
17.74
18.56
18.50
17.53
15.80
13.48
10.74
7.67
4.33
0.59
-3.72
-8.73
-14.32
-20.04
-25.27
-29.63
-33.24
-36.89
-41.70
-48.53
-57.53
-67.77
-77.42
-84.30
-86.49
-82.87
-73.44
-59.22
-41.99
-23.88
-6.84
7.69
19.07
27.41
33.28
37.39
40.19
41.75
42.01
41.03
39.25
37.50
36.68
37.23
38.92
40.84
41.95
41.49
39.47
36.49
33.38
30.65
28.17
25.36
21.43
15.96
9.04
1.35
-6.23
-12.85
-18.14
-22.29
-25.96
-29.97
-35.02
-41.47
-49.40
-58.57
-68.45
-78.01
-85.70
-89.56
-87.88
-79.73
-65.58
-47.21
-27.21
-8.08
8.50
21.91
32.41
40.59
46.83
51.26
53.80
54.56
53.98
52.78
51.70
51.18
51.26
51.64
51.88
51.71
51.15
50.38
49.50
48.43
46.88
44.51
41.13
36.78
31.61
25.80
19.41
12.50
5.25
-2.04
-8.99
-15.35
-21.07
-26.39
-31.67
-37.35
-43.87
-51.55
-60.47
-70.18
-79.47
-86.43
-88.85
-85.03
-74.45
-58.11
-38.26
-17.69
1.09
16.48
27.99
35.95
41.20
44.62
46.92
48.54
49.71
50.52
51.09
51.60
52.15
52.78
53.37
53.78
53.92
53.78
53.40
52.66
51.17
48.47
44.31
38.93
33.02
27.42
22.61
18.46
14.35
9.55
3.68
-3.08
-10.17
-16.94
-23.01
-28.39
-33.36
-38.43
-44.06
-50.64
-58.37
-67.13
-76.25
-84.46
-89.89
-90.58
-85.13
-73.21
-55.87
-35.36
-14.40
4.60
20.12
31.78
40.07
45.78
49.54
51.69
52.37
51.75
50.26
48.56
47.30
46.87
47.30
48.24
49.21
49.80
49.88
49.59
49.13
48.51
47.50
45.55
42.15
37.05
30.47
23.10
15.82
9.35
4.02
-0.36
-4.30
-8.30
-12.72
-17.57
-22.60
-27.53
-32.17
-36.56
-41.02
-46.16
-52.55
-60.53
-69.78
-79.17
-86.75
-90.32
-88.10
-79.44
-65.11
-47.03
-27.66
-9.15
7.13
20.75
31.83
40.62
47.13
51.17
52.56
51.49
48.75
45.54
43.09
42.19
42.94
44.80
46.89
48.42
49.05
48.87
48.31
47.69
47.06
46.10
44.27
41.14
36.56
30.82
24.52
18.38
12.98
8.52
4.85
1.52
-1.99
-6.10
-11.00
-16.56
-22.46
-28.19
-33.39
-37.90
-41.88
-45.80
-50.34
-56.15
-63.51
-72.04
-80.49
-87.02
-89.49
-86.25
-76.68
-61.53
-42.75
-22.94
-4.52
10.88
22.64
31.08
36.93
40.87
43.28
44.25
43.90
42.53
40.81
39.51
39.23
40.15
41.90
43.75
44.98
45.13
44.22
42.63
40.83
39.20
37.71
36.04
33.73
30.38
25.98
20.94
15.97
11.66
8.25
5.45
2.56
-1.07
-5.77
-11.38
-17.33
-22.94
-27.73
-31.59
-34.82
-37.98
-41.66
-46.39
-52.56
-60.22
-69.04
-78.05
-85.60
-89.66
-88.33
-80.62
-66.91
-48.96
-29.36
-10.70
5.11
17.24
25.82
31.47
34.97
36.90
37.68
37.77
37.55
37.42
37.56
37.96
38.42
38.74
38.77
38.52
38.16
37.84
37.69
37.72
37.73
37.36
36.17
33.84
30.20
25.48
20.12
14.78
9.96
5.78
1.89
-2.30
-7.30
-13.14
-19.35
-25.19
-29.97
-33.49
-36.03
-38.22
-40.74
-44.04
-48.41
-53.95
-60.61
-67.93
-74.89
-79.80
-80.71
-76.09
-65.55
-50.11
-31.96
-13.81
2.06
14.29
22.67
27.80
30.57
31.75
31.87
31.27
30.30
29.44
29.22
29.97
31.66
33.84
35.84
37.02
37.10
36.23
34.83
33.26
31.57
29.54
26.80
23.25
19.12
14.97
11.26
8.17
5.38
2.24
-1.82
-6.95
-12.83
-18.71
-23.82
-27.68
-30.32
-32.30
-34.54
-37.97
-43.34
-50.74
-59.55
-68.36
-75.28
-78.32
-76.03
-67.94
-54.71
-38.09
-20.36
-3.76
10.12
20.56
27.59
31.71
33.56
33.71
32.71
31.14
29.66
28.81
28.89
29.77
31.01
32.01
32.43
32.24
31.74
31.28
30.99
30.69
30.01
28.58
26.21
22.96
18.95
14.35
9.26
3.79
-1.91
-7.51
-12.68
-17.13
-20.80
-23.84
-26.58
-29.32
-32.29
-35.73
-39.96
-45.41
-52.42
-60.82
-69.66
-77.12
-80.96
-79.35
-71.57
-58.40
-41.84
-24.42
-8.30
5.22
15.81
23.78
29.56
33.40
35.37
35.56
34.33
32.31
30.27
28.82
28.18
28.21
28.55
28.92
29.26
29.65
30.23
30.89
31.28
30.89
29.18
26.02
21.72
16.93
12.36
8.47
5.20
2.11
-1.32
-5.44
-10.15
-15.03
-19.58
-23.52
-26.86
-29.97
-33.26
-37.19
-42.07
-48.12
-55.31
-63.20
-70.73
-76.20
-77.69
-73.69
-63.67
-48.47
-30.12
-11.18
5.97
19.76
29.64
35.86
39.08
40.04
39.33
37.51
35.10
32.74
30.98
30.18
30.39
31.40
32.81
34.24
35.32
35.78
35.46
34.28
32.27
29.55
26.25
22.50
18.38
13.93
9.24
4.46
-0.24
-4.77
-9.13
-13.37
-17.50
-21.43
-25.07
-28.41
-31.73
-35.67
-41.02
-48.41
-57.84
-68.36
-78.14
-84.88
-86.54
-82.04
-71.70
-57.06
-40.45
-24.23
-10.09
1.05
9.10
14.40
17.37
18.42
17.92
16.28
13.93
11.40
9.16
7.64
7.14
7.82
9.66
12.40
15.56
18.64
21.23
23.12
24.30
24.80
24.53
23.29
20.84
17.08
12.19
6.49
0.41
-5.73
-11.78
-17.79
-23.87
-30.16
-36.80
-43.79
-50.99
-58.03
-64.14
-68.21
-69.06
-65.73
-57.85
-45.96
-31.33
-15.64
-0.57
12.71
23.58
31.93
37.93
41.88
44.11
45.10
45.45
45.74
46.31
47.23
48.27
49.16
49.80
50.32
50.90
51.67
52.49
53.05
53.04
52.23
50.59
48.16
45.01
41.20
36.80
32.07
27.51
23.79
21.61
21.24
22.25
23.47
23.30
20.29
13.70
3.75
-8.68
-22.58
-37.29
-52.50
-67.74
-81.83
-92.71
-97.93
-95.63
-85.60
-69.49
-50.24
-30.99
-13.97
-0.10
10.86
19.56
26.47
31.59
34.63
35.43
34.32
32.06
29.77
28.54
29.09
31.57
35.44
39.77
43.49
45.73
46.14
44.89
42.53
39.66
36.67
33.69
30.62
27.25
23.50
19.43
15.28
11.30
7.60
4.12
0.53
-3.62
-8.73
-15.05
-22.61
-31.27
-40.76
-50.56
-59.70
-66.79
-70.12
-68.19
-60.40
-47.47
-31.41
-14.89
-0.41
10.49
17.47
21.06
22.17
21.52
19.54
16.56
13.10
10.07
8.59
9.52
13.07
18.59
24.71
29.90
32.98
33.62
32.44
30.58
29.18
28.76
28.99
28.81
27.04
22.91
16.56
8.92
1.28
-5.37
-10.74
-15.38
-20.32
-26.50
-34.40
-43.78
-53.74
-62.92
-69.72
-72.61
-70.37
-62.48
-49.30
-32.14
-13.04
5.81
22.55
36.12
46.27
53.31
57.72
59.81
59.78
57.81
54.36
50.13
46.06
42.92
41.20
41.00
42.09
44.08
46.51
48.98
51.00
52.14
52.03
50.40
47.22
42.54
36.68
30.08
23.28
16.88
11.37
7.01
3.72
1.09
-1.54
-4.99
-9.96
-16.80
-25.25
-34.23
-42.01
-46.65
-46.51
-40.84
-30.08
-15.76
-0.00
15.04
27.76
37.34
43.74
47.47
49.21
49.46
48.47
46.29
42.98
38.81
34.39
30.52
27.81
26.44
26.08
26.09
25.84
25.01
23.58
21.59
18.98
15.36
10.29
3.54
-4.60
-13.35
-21.70
-28.82
-34.49
-39.13
-43.62
-48.92
-55.65
-63.92
-73.17
-82.31
-89.81
-94.07
-93.76
-88.15
-77.37
-62.47
-45.28
-27.98
-12.59
-0.51
7.88
13.03
15.90
17.57
18.75
19.65
20.20
20.17
19.51
18.38
17.06
15.90
15.17
15.05
15.64
16.86
18.38
19.65
19.93
18.62
15.50
10.84
5.36
-0.17
-5.24
-9.88
-14.55
-19.90
-26.44
-34.23
-42.83
-51.23
-58.11
-62.11
-62.14
-57.64
-48.84
-36.71
-22.79
-8.80
3.78
14.01
21.58
26.66
29.61
30.70
29.99
27.45
23.16
17.53
11.35
5.64
1.34
-1.05
-1.67
-1.23
-0.70
-0.97
-2.48
-5.25
-8.90
-12.90
-16.83
-20.39
-23.55
-26.45
-29.42
-32.81
-37.05
-42.29
-48.34
-54.42
-59.26
-61.31
-59.17
-52.14
-40.59
-25.88
-10.08
4.65
16.71
25.41
30.92
33.97
35.34
35.50
34.55
32.46
29.34
25.71
22.37
20.19
19.71
20.85
22.91
24.90
25.85
25.19
22.90
19.39
15.15
10.54
5.65
0.43
-5.19
-11.28
-17.91
-25.22
-33.43
-42.53
-51.93
-60.35
-66.02
-67.17
-62.74
-52.80
-38.50
-21.77
-4.80
10.47
22.67
31.17
36.09
38.05
37.89
36.38
34.03
31.10
27.78
24.41
21.48
19.48
18.56
18.48
18.62
18.19
16.66
13.87
10.11
5.99
2.12
-1.21
-4.18
-7.42
-11.72
-17.61
-25.09
-33.68
-42.60
-51.10
-58.47
-63.98
-66.72
-65.67
-60.02
-49.78
-36.00
-20.61
-5.85
6.55
15.88
22.38
26.89
30.19
32.64
34.19
34.68
34.11
32.76
31.11
29.64
28.64
28.17
28.09
28.21
28.28
28.14
27.58
26.39
24.39
21.42
17.43
12.52
6.96
1.15
-4.48
-9.65
-14.44
-19.27
-24.77
-31.45
-39.24
-47.34
-54.21
-58.02
-57.15
-50.83
-39.41
-24.39
-7.99
7.50
20.37
29.88
36.30
40.46
43.19
44.98
45.82
45.57
44.30
42.51
41.03
40.66
41.79
44.26
47.50
50.87
53.94
56.65
59.12
61.52
63.84
65.86
67.36
68.32
69.01
70.00
71.87
75.00
79.29
84.17
88.82
92.58
95.59
99.01
104.85
115.30
131.75
154.03
180.14
206.57
229.10
243.73
247.53
239.17
218.99
188.85
151.54
110.14
67.32
24.76
-17.13
-59.17
-102.90
-149.80
-200.26
-252.81
-303.80
-348.04
-380.15
-396.33
-395.74
-380.74
-355.85
-326.16
-295.85
-267.35
-241.75
-219.43
-200.68
-185.77
-174.66
-166.74
-160.87
-155.70
-150.05
-143.07
-134.23
-122.99
-108.92
-91.71
-71.61
-49.49
-26.85
-5.38
13.53
29.05
41.01
49.66
55.48
58.92
60.47
60.62
59.96
59.05
58.25
57.62
56.88
55.68
53.83
51.50
49.12
47.13
45.67
44.40
42.66
39.74
35.33
29.62
23.28
17.03
11.34
6.25
1.43
-3.61
-9.36
-16.15
-24.14
-33.25
-42.94
-52.16
-59.21
-62.20
-59.68
-51.22
-37.82
-21.58
-4.99
9.88
21.90
30.91
37.23
41.18
42.88
42.38
40.08
36.81
33.77
31.91
31.60
32.36
33.29
33.55
32.85
31.46
29.89
28.55
27.41
26.06
23.89
20.42
15.49
9.17
1.92
-5.57
-12.53
-18.23
-22.34
-25.06
-27.10
-29.55
-33.47
-39.42
-47.17
-55.64
-63.06
-67.40
-66.95
-60.83
-49.34
-33.94
-16.80
-0.15
14.34
25.91
34.63
41.04
45.64
48.67
50.17
50.25
49.21
47.63
46.19
45.38
45.25
45.49
45.60
45.16
44.05
42.46
40.73
39.16
37.78
36.33
34.34
31.30
26.83
20.90
13.86
6.44
-0.54
-6.46
-11.19
-15.10
-18.99
-23.80
-30.20
-38.40
-47.96
-57.81
-66.33
-71.64
-71.93
-66.08
-54.04
-37.11
-17.64
1.67
18.60
31.98
41.79
48.71
53.54
56.74
58.39
58.39
56.87
54.39
51.80
49.98
49.38
49.94
51.13
52.23
52.56
51.85
50.14
47.74
44.94
41.85
38.29
34.00
28.80
22.71
15.99
8.97
1.98
-4.75
-11.01
-16.63
-21.50
-25.72
-29.80
-34.58
-41.02
-49.69
-60.17
-70.98
-79.83
-84.39
-83.05
-75.39
-62.35
-45.75
-27.75
-10.17
5.79
19.58
31.08
40.21
46.89
51.05
52.74
52.29
50.36
47.74
45.28
43.66
43.26
44.13
45.93
48.12
50.02
51.05
50.84
49.33
46.72
43.32
39.35
34.83
29.72
23.96
17.70
11.22
4.87
-1.03
-6.40
-11.34
-16.18
-21.40
-27.51
-34.90
-43.78
-53.85
-64.25
-73.49
-79.71
-81.11
-76.57
-66.05
-50.77
-32.73
-14.24
2.83
17.31
28.84
37.56
43.81
47.81
49.73
49.79
48.42
46.34
44.29
42.92
42.42
42.54
42.70
42.29
40.97
38.89
36.57
34.57
33.11
31.82
29.87
26.35
20.89
13.85
6.32
-0.39
-5.40
-8.63
-10.86
-13.36
-17.31
-23.35
-31.37
-40.56
-49.63
-57.08
-61.50
-61.76
-57.30
-48.26
-35.50
-20.51
-5.07
9.16
20.94
29.69
35.44
38.64
39.78
39.31
37.53
34.77
31.60
28.80
27.17
27.15
28.59
30.70
32.49
33.17
32.50
30.74
28.44
25.99
23.40
20.29
16.27
11.17
5.29
-0.77
-6.38
-11.26
-15.57
-19.86
-24.74
-30.65
-37.63
-45.27
-52.75
-58.91
-62.45
-62.16
-57.30
-47.90
-34.91
-20.02
-5.09
8.37
19.58
28.47
35.33
40.34
43.40
44.22
42.68
39.26
35.02
31.39
29.50
29.70
31.46
33.63
35.06
35.10
33.70
31.27
28.29
25.05
21.63
18.01
14.21
10.38
6.59
2.77
-1.28
-5.79
-10.79
-16.07
-21.30
-26.30
-31.17
-36.28
-42.01
-48.47
-55.21
-61.22
-65.10
-65.46
-61.44
-52.96
-40.87
-26.66
-12.02
1.54
13.04
22.11
28.83
33.53
36.54
38.08
38.36
37.63
36.27
34.80
33.67
33.24
33.52
34.29
35.06
35.35
34.89
33.65
31.90
29.96
27.99
25.86
23.19
19.52
14.62
8.63
2.06
-4.35
-9.96
-14.40
-17.66
-20.05
-22.06
-24.31
-27.41
-31.90
-38.07
-45.82
-54.46
-62.61
-68.55
-70.51
-67.39
-59.07
-46.65
-32.07
-17.51
-4.77
5.23
12.42
17.28
20.42
22.25
22.87
22.26
20.52
18.07
15.63
14.03
13.85
15.19
17.58
20.12
21.93
22.48
21.77
20.21
18.27
16.15
13.64
10.29
5.79
0.25
-5.79
-11.55
-16.41
-20.06
-22.57
-24.34
-25.87
-27.77
-30.61
-34.94
-40.96
-48.31
-55.88
-62.02
-64.93
-63.28
-56.66
-45.79
-32.26
-17.99
-4.69
6.61
15.60
22.53
27.80
31.66
33.97
34.43
32.91
29.82
26.05
22.80
20.94
20.69
21.47
22.31
22.38
21.46
19.88
18.21
16.80
15.49
13.75
10.99
7.02
2.03
-3.42
-8.80
-13.76
-18.17
-22.00
-25.29
-28.18
-31.02
-34.39
-38.93
-44.97
-52.11
-59.18
-64.42
-66.05
-62.89
-54.84
-42.91
-28.94
-15.00
-2.68
7.23
14.73
20.32
24.52
27.54
29.25
29.54
28.50
26.69
24.94
24.02
24.33
25.64
27.36
28.71
29.14
28.47
26.95
25.04
23.19
21.55
19.91
17.79
14.66
10.36
5.16
-0.25
-5.03
-8.55
-10.65
-11.72
-12.57
-14.20
-17.42
-22.72
-29.92
-38.19
-46.17
-52.24
-54.97
-53.41
-47.43
-37.66
-25.37
-12.19
0.19
10.42
17.81
22.41
24.88
26.13
26.83
27.17
27.00
26.14
24.76
23.39
22.65
22.93
24.26
26.38
29.06
32.25
35.97
39.99
43.64
45.84
45.50
41.96
35.18
25.81
14.84
3.37
-7.65
-17.51
-25.81
-32.57
-38.16
-43.36
-49.07
-55.93
-64.06
-72.89
-81.16
-87.22
-89.42
-86.69
-78.81
-66.57
-51.62
-35.97
-21.40
-9.07
0.71
8.16
13.64
17.34
19.25
19.30
17.74
15.27
12.92
11.70
12.25
14.49
17.78
21.15
23.71
24.98
24.91
23.79
22.03
20.00
17.81
15.40
12.53
9.06
5.17
1.25
-2.15
-4.73
-6.59
-8.33
-10.72
-14.51
-19.99
-26.97
-34.89
-42.90
-50.09
-55.50
-58.13
-57.05
-51.72
-42.26
-29.59
-15.37
-1.43
10.63
19.87
26.13
29.81
31.45
31.50
30.23
27.80
24.62
21.42
19.14
18.62
20.08
22.93
25.95
27.86
27.94
26.34
23.88
21.49
19.60
17.94
15.82
12.62
8.24
3.14
-1.99
-6.56
-10.44
-13.83
-17.10
-20.54
-24.36
-28.75
-33.96
-40.14
-47.12
-54.11
-59.74
-62.38
-60.71
-54.22
-43.48
-30.03
-15.88
-2.93
7.50
14.92
19.57
22.07
23.01
22.74
21.38
19.13
16.44
14.09
12.88
13.25
15.00
17.35
19.39
20.45
20.38
19.43
17.89
15.84
13.17
9.79
5.79
1.58
-2.39
-5.84
-8.79
-11.51
-14.41
-17.96
-22.68
-28.95
-36.77
-45.41
-53.34
-58.49
-59.00
-53.98
-43.89
-30.45
-15.88
-2.15
9.57
18.94
26.18
31.56
35.14
36.86
36.75
35.14
32.70
30.22
28.37
27.45
27.30
27.49
27.56
27.21
26.39
25.23
23.88
22.32
20.39
17.71
13.87
8.68
2.27
-4.77
-11.55
-17.28
-21.61
-25.00
-28.50
-33.32
-40.30
-49.49
-60.03
-70.42
-78.94
-83.97
-84.26
-79.30
-69.32
-55.44
-39.48
-23.45
-9.05
2.86
12.26
19.75
25.96
31.21
35.39
38.17
39.33
39.05
37.86
36.46
35.44
35.00
34.99
35.03
34.67
33.68
31.98
29.62
26.56
22.70
17.95
12.42
6.46
0.63
-4.67
-9.38
-13.84
-18.77
-24.84
-32.36
-40.97
-49.55
-56.36
-59.51
-57.56
-49.98
-37.37
-21.34
-4.05
12.34
26.23
36.75
43.81
47.78
49.24
48.83
47.13
44.70
42.04
39.56
37.58
36.24
35.52
35.21
35.01
34.59
33.76
32.45
30.65
28.36
25.49
21.91
17.54
12.43
6.82
1.17
-4.07
-8.60
-12.49
-16.16
-20.29
-25.62
-32.60
-41.30
-51.04
-60.40
-67.45
-70.18
-67.20
-58.20
-44.27
-27.44
-10.09
5.79
19.16
29.85
38.23
44.73
49.48
52.31
53.05
51.79
49.17
46.19
43.91
42.97
43.35
44.32
44.86
44.26
42.42
39.87
37.33
35.14
33.02
30.06
25.42
18.78
10.66
2.21
-5.31
-11.09
-15.02
-17.64
-19.92
-22.92
-27.52
-34.15
-42.59
-51.83
-60.15
-65.55
-66.23
-61.23
-50.75
-36.16
-19.60
-3.37
10.72
21.74
29.65
35.01
38.57
40.87
42.07
42.09
40.93
38.90
36.68
35.01
34.37
34.72
35.60
36.38
36.62
36.20
35.28
34.06
32.56
30.53
27.53
23.16
17.31
10.29
2.74
-4.53
-10.81
-15.75
-19.48
-22.63
-26.14
-31.00
-37.77
-46.31
-55.57
-63.73
-68.65
-68.51
-62.52
-51.10
-35.91
-19.19
-3.14
10.75
21.81
30.04
35.76
39.29
40.86
40.62
38.86
36.08
33.05
30.54
29.19
29.18
30.18
31.49
32.34
32.29
31.34
29.83
28.19
26.54
24.61
21.87
17.87
12.56
6.40
0.10
-5.66
-10.45
-14.25
-17.33
-20.20
-23.46
-27.76
-33.60
-41.01
-49.33
-57.13
-62.53
-63.75
-59.83
-50.85
-38.03
-23.20
-8.35
4.96
15.77
23.81
29.27
32.61
34.35
34.94
34.70
33.84
32.53
30.99
29.50
28.34
27.64
27.28
27.01
26.51
25.62
24.36
22.84
21.04
18.78
15.78
11.81
6.92
1.43
-4.14
-9.26
-13.59
-17.04
-19.81
-22.33
-25.25
-29.27
-34.87
-42.04
-50.05
-57.52
-62.68
-64.03
-60.85
-53.37
-42.69
-30.37
-17.89
-6.32
3.73
11.98
18.34
22.70
25.03
25.38
24.01
21.42
18.27
15.23
12.78
11.08
9.94
8.88
7.39
5.20
2.56
0.22
-0.88
-0.10
2.56
6.29
9.79
11.81
11.59
9.10
4.87
-0.40
-6.17
-12.23
-18.66
-25.68
-33.45
-41.96
-50.90
-59.63
-67.14
-72.10
-73.23
-69.67
-61.41
-49.48
-35.76
-22.39
-11.05
-2.40
3.94
8.98
13.53
17.82
21.42
23.78
24.86
25.45
26.78
29.87
34.78
40.46
45.32
48.00
48.11
46.32
43.82
41.62
40.00
38.54
36.48
33.24
28.80
23.66
18.62
14.35
11.19
9.03
7.48
5.97
3.99
1.11
-3.03
-8.62
-15.71
-23.95
-32.46
-39.88
-44.60
-45.19
-40.99
-32.44
-20.88
-8.21
3.79
13.92
21.82
27.77
32.28
35.75
38.16
39.28
38.78
36.62
33.12
28.94
24.81
21.36
18.90
17.48
16.91
16.95
17.37
18.04
18.77
19.22
18.83
16.92
13.03
7.15
-0.09
-7.67
-14.54
-20.14
-24.55
-28.35
-32.34
-37.15
-43.08
-49.98
-57.34
-64.16
-69.10
-70.72
-67.96
-60.65
-49.73
-36.98
-24.42
-13.53
-4.94
1.51
6.34
9.92
12.31
13.35
12.99
11.50
9.43
7.53
6.40
6.41
7.58
9.67
12.26
14.83
16.81
17.70
17.16
15.10
11.70
7.36
2.63
-1.95
-5.95
-9.19
-11.78
-14.19
-17.11
-21.22
-26.99
-34.32
-42.47
-49.98
-55.04
-56.02
-51.95
-43.06
-30.71
-17.00
-4.13
6.24
13.37
17.43
19.11
19.19
18.27
16.65
14.51
12.13
9.93
8.38
7.85
8.45
10.04
12.27
14.71
16.92
18.61
19.52
19.54
18.53
16.36
12.87
7.95
1.64
-5.89
-14.33
-23.29
-32.36
-41.01
-48.43
-53.56
-55.26
-52.66
-45.54
-34.63
-21.44
-7.82
4.56
14.60
21.87
26.42
28.53
28.52
26.60
23.06
18.32
13.01
7.94
3.90
1.44
0.72
1.26
2.27
2.89
2.58
1.32
-0.43
-2.12
-3.53
-4.88
-6.75
-9.66
-13.81
-18.92
-24.53
-30.28
-35.99
-41.52
-46.46
-49.88
-50.49
-47.15
-39.44
-28.04
-14.57
-1.05
10.87
20.41
27.70
33.43
38.21
42.19
44.97
45.84
44.36
40.73
35.85
31.02
27.48
25.86
26.09
27.51
29.31
30.78
31.48
31.19
29.73
27.04
23.17
18.43
13.30
8.19
3.16
-2.15
-8.30
-15.63
-23.69
-31.21
-36.33
-37.31
-33.19
-24.22
-11.70
2.46
16.38
28.65
38.43
45.36
49.43
50.78
49.76
46.95
43.15
39.21
35.89
33.62
32.48
32.17
32.14
31.85
30.87
29.01
26.31
22.95
19.14
15.00
10.66
6.14
1.57
-2.96
-7.36
-11.75
-16.38
-21.53
-27.20
-32.94
-37.76
-40.38
-39.73
-35.40
-27.86
-18.37
-8.56
0.12
6.83
11.49
14.59
16.76
18.39
19.47
19.59
18.37
15.71
12.09
8.44
5.78
4.75
5.37
7.02
8.74
9.72
9.58
8.42
6.67
4.68
2.60
0.26
-2.57
-5.98
-9.89
-14.12
-18.63
-23.61
-29.28
-35.46
-41.41
-45.67
-46.60
-43.08
-35.03
-23.68
-10.98
0.98
10.73
17.67
21.95
24.05
24.35
23.12
20.55
17.00
13.02
9.36
6.65
5.26
5.16
5.87
6.71
7.01
6.27
4.34
1.37
-2.30
-6.29
-10.32
-14.22
-17.97
-21.72
-25.62
-29.90
-34.74
-40.20
-46.10
-51.83
-56.40
-58.61
-57.35
-51.97
-42.70
-30.61
-17.36
-4.70
6.04
14.20
19.66
22.63
23.33
21.91
18.63
13.99
8.81
4.04
0.45
-1.66
-2.40
-2.25
-1.77
-1.34
-1.21
-1.55
-2.52
-4.39
-7.42
-11.77
-17.43
-24.14
-31.41
-38.79
-45.92
-52.51
-58.26
-62.61
-64.70
-63.51
-58.33
-49.06
-36.46
-22.01
-7.46
5.65
16.33
24.22
29.31
31.83
31.98
30.00
26.27
21.47
16.53
12.55
10.42
10.51
12.40
14.97
16.77
16.60
13.97
9.35
3.89
-1.18
-5.08
-7.82
-10.09
-12.91
-17.07
-22.84
-29.82
-37.04
-43.11
-46.59
-46.20
-41.21
-31.68
-18.57
-3.61
11.17
23.95
33.58
39.74
42.91
43.86
43.32
41.73
39.17
35.61
31.24
26.60
22.47
19.55
18.07
17.64
17.44
16.62
14.81
12.22
9.43
6.93
4.83
2.65
-0.29
-4.56
-10.40
-17.58
-25.65
-33.97
-41.84
-48.43
-52.73
-53.70
-50.52
-42.96
-31.53
-17.58
-2.90
10.72
21.96
30.20
35.51
38.29
39.03
38.13
35.90
32.76
29.31
26.25
24.14
23.17
23.15
23.59
24.00
23.95
23.19
21.53
18.78
14.86
9.88
4.29
-1.29
-6.29
-10.50
-14.19
-18.08
-23.03
-29.76
-38.38
-48.22
-57.73
-64.69
-66.91
-62.84
-52.38
-36.95
-19.19
-1.99
12.36
22.80
29.55
33.54
35.79
36.91
37.03
36.01
33.85
30.83
27.63
24.96
23.32
22.79
23.00
23.31
23.12
22.03
20.04
17.33
14.14
10.58
6.64
2.37
-2.10
-6.56
-10.88
-15.16
-19.82
-25.41
-32.41
-40.84
-49.99
-58.55
-64.59
-66.21
-62.09
-51.97
-36.90
-18.99
-0.86
15.09
27.30
35.29
39.41
40.51
39.47
37.02
33.73
30.12
26.73
24.11
22.73
22.72
23.80
25.37
26.65
27.05
26.35
24.67
22.21
19.01
14.89
9.65
3.47
-3.03
-8.98
-13.67
-17.10
-20.05
-23.82
-29.58
-37.91
-48.38
-59.62
-69.60
-76.07
-77.18
-71.98
-60.84
-45.38
-28.06
-11.33
3.02
14.24
22.41
27.99
31.31
32.49
31.64
29.13
25.66
22.00
18.78
16.25
14.27
12.53
10.83
9.08
7.38
5.95
5.01
4.72
5.12
6.04
6.96
7.26
6.36
4.02
0.44
-3.93
-8.66
-13.72
-19.44
-26.38
-34.87
-44.69
-54.79
-63.41
-68.53
-68.36
-62.02
-49.78
-33.10
-14.22
4.44
20.97
34.23
43.94
50.46
54.33
56.09
56.13
54.79
52.48
49.77
47.31
45.61
44.80
44.65
44.56
44.01
42.73
40.89
38.88
37.03
35.32
33.31
30.39
26.04
20.22
13.41
6.41
0.03
-5.20
-9.24
-12.54
-15.90
-20.24
-26.39
-34.77
-45.10
-56.32
-66.60
-73.75
-75.87
-71.87
-62.03
-47.85
-31.57
-15.41
-0.91
11.24
21.03
28.57
33.80
36.52
36.70
34.89
32.19
30.02
29.46
30.83
33.57
36.59
38.85
39.80
39.55
38.58
37.25
35.55
33.10
29.46
24.53
18.69
12.70
7.30
2.79
-1.01
-4.64
-8.62
-13.23
-18.50
-24.44
-31.23
-39.02
-47.54
-55.70
-61.55
-62.90
-58.23
-47.48
-32.28
-15.39
0.42
13.30
22.74
29.39
34.21
37.84
40.26
41.08
40.02
37.39
34.04
31.12
29.47
29.36
30.45
31.99
33.28
33.87
33.60
32.51
30.59
27.82
24.16
19.71
14.70
9.45
4.22
-0.81
-5.57
-9.99
-14.06
-17.92
-21.77
-26.04
-31.12
-37.19
-43.91
-50.31
-54.95
-56.26
-53.19
-45.53
-34.09
-20.43
-6.34
6.67
17.69
26.34
32.51
36.24
37.56
36.72
34.27
31.18
28.47
26.91
26.71
27.43
28.35
28.74
28.22
26.80
24.83
22.70
20.71
18.88
17.00
14.70
11.63
7.68
3.05
-1.75
-6.15
-9.85
-12.96
-16.08
-20.02
-25.38
-32.26
-40.15
-47.97
-54.41
-58.05
-57.76
-52.86
-43.44
-30.48
-15.68
-1.14
11.27
20.43
26.17
29.03
29.83
29.24
27.58
25.06
21.97
18.86
16.46
15.32
15.56
16.84
18.41
19.60
19.96
19.52
18.60
17.53
16.37
14.95
12.87
9.82
5.80
1.16
-3.53
-7.70
-11.10
-13.83
-16.41
-19.46
-23.61
-29.10
-35.76
-42.85
-49.17
-53.38
-54.25
-51.07
-43.83
-33.25
-20.62
-7.51
4.59
14.53
21.63
25.70
26.90
25.61
22.36
17.81
12.64
7.54
3.09
-0.37
-2.86
-4.58
-5.82
-6.71
-7.15
-6.95
-6.09
-4.85
-3.78
-3.46
-4.27
-6.21
-8.93
-11.99
-15.10
-18.19
-21.41
-24.99
-29.12
-33.79
-38.85
-43.86
-48.13
-50.68
-50.45
-46.52
-38.57
-27.07
-13.37
0.65
13.13
22.73
29.02
32.38
33.69
33.77
33.13
31.87
29.93
27.49
25.03
23.32
22.88
23.66
24.96
25.71
25.01
22.55
18.75
14.43
10.41
7.09
4.50
2.34
0.30
-1.80
-4.11
-6.79
-10.14
-14.49
-20.11
-27.00
-34.88
-43.07
-50.51
-55.85
-57.76
-55.35
-48.46
-37.84
-24.88
-11.28
1.45
12.28
20.70
26.60
30.14
31.65
31.58
30.50
28.93
27.24
25.58
23.90
22.17
20.50
19.23
18.70
19.06
20.04
20.93
20.83
19.12
15.62
10.67
4.95
-0.95
-6.72
-12.33
-17.86
-23.29
-28.47
-33.30
-38.02
-43.14
-49.26
-56.51
-64.21
-70.81
-74.25
-72.81
-65.82
-53.99
-39.19
-23.81
-9.90
1.43
10.03
16.45
21.35
25.12
27.85
29.57
30.55
31.42
33.00
35.72
39.51
43.72
47.47
50.11
51.44
51.63
50.89
49.20
46.23
41.64
35.33
27.74
19.66
11.89
4.95
-1.04
-6.36
-11.46
-16.80
-22.87
-29.95
-37.95
-46.14
-53.10
-56.98
-56.23
-50.25
-39.77
-26.63
-13.13
-1.23
7.88
13.88
16.96
17.39
15.41
11.25
5.32
-1.72
-9.12
-16.27
-22.82
-28.62
-33.43
-36.74
-37.78
-35.87
-30.96
-23.91
-16.30
-9.87
-5.73
-3.87
-3.25
-2.28
0.30
4.95
11.10
17.40
22.22
24.10
22.08
15.83
5.86
-6.39
-18.67
-28.20
-32.46
-29.89
-20.47
-5.82
11.32
27.97
41.80
51.64
57.46
59.82
59.37
56.49
51.45
44.66
37.03
29.81
24.17
20.79
19.52
19.54
19.67
18.99
17.08
14.11
10.53
6.77
3.06
-0.71
-4.85
-9.71
-15.54
-22.36
-30.05
-38.48
-47.59
-57.36
-67.51
-77.21
-84.87
-88.36
-85.71
-75.98
-59.92
-39.84
-18.87
0.10
15.34
26.50
34.11
38.82
40.91
40.29
37.00
31.70
25.76
20.84
18.24
18.29
20.26
22.83
24.63
24.91
23.59
21.21
18.51
15.93
13.53
10.96
7.76
3.52
-2.00
-8.84
-16.94
-26.00
-35.36
-43.86
-49.80
-51.36
-47.18
-36.96
-21.71
-3.56
14.91
31.45
44.59
53.82
59.37
61.81
61.78
59.83
56.39
51.83
46.53
40.93
35.51
30.75
27.07
24.57
23.00
21.82
20.33
17.98
14.62
10.48
6.08
1.86
-2.01
-5.76
-9.90
-14.93
-21.18
-28.69
-37.25
-46.43
-55.62
-63.91
-70.05
-72.59
-70.31
-62.61
-49.91
-33.76
-16.42
-0.29
12.80
22.01
27.44
29.81
30.09
29.08
27.32
25.12
22.64
20.02
17.55
15.61
14.54
14.47
15.13
15.88
15.97
14.85
12.42
9.03
5.31
1.80
-1.31
-4.25
-7.44
-11.28
-16.03
-21.79
-28.48
-35.87
-43.43
-50.14
-54.53
-54.93
-50.11
-39.74
-24.84
-7.57
9.39
23.66
33.80
39.59
41.73
41.34
39.48
36.91
34.09
31.27
28.65
26.46
24.79
23.71
23.16
23.00
22.99
22.74
21.80
19.78
16.53
12.26
7.43
2.54
-2.12
-6.53
-10.92
-15.47
-20.26
-25.31
-30.71
-36.66
-43.26
-50.23
-56.59
-60.74
-60.88
-55.67
-44.87
-29.55
-11.87
5.58
20.59
31.85
39.15
43.13
44.72
44.65
43.29
40.67
36.87
32.19
27.28
22.99
19.96
18.47
18.33
19.02
19.85
20.17
19.53
17.60
14.27
9.57
3.67
-3.13
-10.32
-17.24
-23.27
-28.03
-31.68
-34.95
-38.98
-44.69
-52.20
-60.48
-67.53
-70.99
-69.00
-60.94
-47.62
-30.97
-13.40
2.86
16.34
26.41
33.11
36.92
38.40
38.05
36.31
33.65
30.65
27.92
25.97
25.01
24.89
25.23
25.64
25.87
25.88
25.64
25.03
23.70
21.30
17.62
12.77
7.10
1.08
-4.95
-10.82
-16.49
-22.01
-27.47
-33.01
-38.92
-45.33
-52.06
-58.38
-62.86
-63.85
-60.02
-50.90
-37.26
-20.92
-4.19
10.85
22.85
31.37
36.79
39.81
41.11
41.16
40.12
38.18
35.62
32.90
30.57
29.04
28.41
28.42
28.69
28.83
28.68
28.14
27.16
25.53
22.86
18.74
12.97
5.78
-2.14
-9.78
-16.21
-20.94
-24.16
-26.65
-29.59
-33.93
-40.17
-47.96
-56.15
-62.96
-66.45
-65.05
-58.12
-46.21
-30.92
-14.51
0.87
13.65
23.09
29.21
32.45
33.39
32.62
30.78
28.55
26.59
25.36
25.02
25.37
26.01
26.56
26.66
26.21
25.20
23.77
22.06
20.10
17.68
14.42
9.98
4.31
-2.05
-8.25
-13.47
-17.35
-20.21
-22.91
-26.42
-31.37
-37.83
-45.31
-52.91
-59.50
-63.80
-64.54
-60.69
-51.87
-38.67
-22.71
-6.22
8.59
20.18
28.04
32.58
34.67
35.12
34.39
32.65
30.15
27.33
25.00
23.91
24.38
26.08
28.14
29.52
29.62
28.42
26.44
24.28
22.21
20.01
17.18
13.34
8.47
3.03
-2.33
-7.01
-10.74
-13.67
-16.27
-19.15
-22.93
-28.04
-34.56
-42.11
-49.83
-56.43
-60.47
-60.66
-56.28
-47.42
-35.06
-20.86
-6.78
5.47
14.89
21.30
25.14
27.14
27.87
27.60
26.45
24.56
22.33
20.36
19.22
19.19
20.15
21.69
23.29
24.51
25.00
24.49
22.77
19.73
15.36
9.83
3.41
-3.59
-10.80
-17.76
-24.01
-29.12
-33.00
-36.03
-39.09
-43.30
-49.51
-57.79
-67.18
-75.79
-81.35
-81.99
-76.98
-66.99
-53.85
-39.78
-26.56
-14.99
-4.97
3.91
11.77
18.12
22.22
23.68
23.08
21.81
21.46
23.00
26.19
29.86
32.60
33.51
32.56
30.42
27.95
25.76
24.10
22.80
21.58
20.08
17.91
14.72
10.32
4.79
-1.41
-7.53
-12.90
-17.18
-20.49
-23.51
-27.14
-32.21
-39.13
-47.47
-55.96
-62.69
-65.71
-63.62
-56.14
-44.17
-29.47
-14.05
0.41
12.93
23.13
31.06
36.93
40.81
42.71
42.66
40.89
37.98
34.84
32.48
31.68
32.66
34.91
37.44
39.21
39.54
38.36
36.05
33.14
30.11
27.06
23.95
20.58
16.78
12.38
7.30
1.57
-4.57
-10.63
-16.11
-20.73
-24.60
-28.35
-32.84
-38.63
-45.71
-53.29
-59.92
-63.97
-64.06
-59.52
-50.56
-38.19
-23.88
-9.18
4.56
16.45
26.04
33.24
38.13
40.85
41.60
40.69
38.65
36.16
33.92
32.35
31.59
31.44
31.57
31.68
31.64
31.38
30.88
30.01
28.59
26.44
23.57
20.11
16.21
12.00
7.54
2.91
-1.74
-6.19
-10.26
-13.91
-17.38
-21.10
-25.55
-31.12
-37.85
-45.35
-52.68
-58.44
-61.14
-59.50
-52.93
-41.83
-27.52
-11.90
3.07
15.87
25.67
32.36
36.28
38.00
38.12
37.15
35.51
33.59
31.75
30.27
29.33
28.92
28.91
29.01
28.93
28.38
27.21
25.45
23.34
21.15
19.07
17.03
14.61
11.32
6.81
1.17
-4.97
-10.72
-15.29
-18.50
-20.84
-23.33
-27.00
-32.34
-39.12
-46.42
-52.96
-57.36
-58.51
-55.68
-48.72
-38.06
-24.92
-10.94
2.12
12.97
21.09
26.76
30.69
33.49
35.42
36.31
35.90
34.20
31.56
28.72
26.37
25.00
24.71
25.29
26.44
27.78
28.98
29.65
29.33
27.53
23.88
18.36
11.34
3.65
-3.70
-9.80
-14.15
-16.75
-18.22
-19.56
-21.82
-25.86
-32.04
-40.16
-49.43
-58.60
-66.04
-70.14
-69.57
-63.66
-52.79
-38.35
-22.45
-7.34
5.28
14.65
20.94
24.91
27.42
29.00
29.80
29.81
29.10
27.98
26.95
26.44
26.61
27.35
28.25
28.96
29.28
29.25
29.07
28.91
28.72
28.00
26.09
22.36
16.66
9.43
1.60
-5.78
-11.95
-16.85
-20.98
-25.17
-30.19
-36.44
-43.86
-51.90
-59.66
-65.97
-69.42
-68.77
-63.30
-53.10
-39.21
-23.31
-7.30
7.16
18.96
27.59
33.08
35.79
36.23
35.00
32.74
30.03
27.39
25.21
23.69
22.87
22.63
22.73
22.98
23.21
23.35
23.32
22.97
21.96
19.87
16.39
11.49
5.46
-1.13
-7.68
-13.64
-18.72
-22.93
-26.66
-30.61
-35.55
-42.01
-49.86
-58.05
-64.77
-67.98
-66.17
-58.92
-47.18
-32.84
-18.10
-4.75
6.15
14.30
19.84
23.12
24.53
24.42
23.15
21.04
18.28
14.95
11.12
7.00
3.12
0.15
-1.34
-1.21
0.10
1.74
2.74
2.38
0.47
-2.73
-6.68
-10.78
-14.58
-17.85
-20.53
-22.73
-24.81
-27.26
-30.63
-35.11
-40.30
-45.00
-47.51
-46.14
-39.93
-29.16
-15.28
-0.48
13.14
24.28
32.60
38.56
42.93
46.24
48.63
49.97
50.07
48.98
47.10
45.03
43.26
42.05
41.30
40.62
39.60
37.93
35.50
32.44
28.91
25.07
20.95
16.56
11.92
7.13
2.31
-2.53
-7.55
-13.18
-19.89
-27.93
-36.99
-46.02
-53.34
-57.06
-55.75
-49.00
-37.68
-23.65
-9.17
3.79
14.13
21.73
27.05
30.77
33.29
34.63
34.63
33.21
30.66
27.67
25.04
23.42
23.03
23.56
24.31
24.49
23.55
21.38
18.23
14.62
10.96
7.51
4.25
1.00
-2.50
-6.41
-10.90
-16.11
-22.17
-28.98
-36.10
-42.64
-47.33
-48.81
-46.06
-38.84
-27.87
-14.68
-1.24
10.61
19.71
25.80
29.35
31.23
32.11
32.34
31.86
30.56
28.51
26.14
24.04
22.67
22.07
21.86
21.46
20.38
18.45
15.77
12.60
9.15
5.51
1.75
-2.08
-5.93
-9.88
-14.08
-18.82
-24.39
-30.93
-38.36
-46.30
-54.00
-60.43
-64.28
-64.41
-60.12
-51.57
-39.77
-26.36
-12.98
-0.78
9.81
18.88
26.67
33.17
38.17
41.42
42.86
42.74
41.54
39.67
37.46
35.08
32.65
30.24
27.94
25.69
23.36
20.75
17.68
14.07
9.97
5.41
0.47
-4.85
-10.49
-16.36
-22.38
-28.59
-35.02
-41.58
-47.85
-52.89
-55.44
-54.31
-48.86
-39.35
-26.89
-13.13
0.31
12.20
22.02
29.69
35.44
39.49
41.98
43.02
42.77
41.50
39.50
37.11
34.64
32.38
30.57
29.33
28.58
28.03
27.24
25.78
23.41
20.23
16.56
12.83
9.43
6.51
4.04
1.65
-1.21
-5.17
-10.72
-17.88
-25.93
-33.38
-38.30
-38.89
-34.18
-24.27
-10.29
6.12
23.34
40.27
56.22
70.82
83.81
94.89
103.88
110.80
115.94
119.89
123.58
128.16
134.85
144.67
157.86
173.48
189.19
201.65
207.30
203.46
189.07
164.97
133.59
98.05
61.34
25.59
-8.15
-39.73
-69.44
-97.46
-123.45
-146.43
-165.08
-178.04
-184.48
-184.46
-178.98
-169.80
-158.92
-147.96
-137.78
-128.41
-119.45
-110.62
-102.32
-95.50
-91.32
-90.40
-92.19
-94.97
-96.33
-93.99
-86.62
-74.18
-57.85
-39.53
-21.26
-4.80
8.58
18.08
23.28
24.07
20.69
13.89
4.98
-4.19
-11.46
-14.83
-12.85
-5.07
7.77
23.75
40.13
53.84
62.20
63.63
58.06
46.78
31.90
15.56
-0.65
-15.80
-29.37
-40.84
-49.70
-55.65
-59.07
-61.15
-63.47
-67.10
-72.00
-76.89
-79.91
-79.79
-76.52
-71.31
-65.73
-60.68
-55.74
-49.42
-40.07
-26.92
-10.62
7.01
23.69
37.56
47.65
53.84
56.49
56.04
52.81
47.10
39.20
29.57
18.85
7.71
-3.11
-13.00
-21.52
-28.54
-34.32
-39.32
-44.00
-48.52
-52.65
-55.84
-57.63
-57.96
-57.29
-56.46
-56.23
-56.88
-58.17
-59.61
-60.97
-62.50
-64.90
-68.68
-73.63
-78.42
-81.03
-79.46
-72.66
-60.97
-45.96
-29.65
-13.72
0.95
14.17
25.93
35.99
43.78
48.79
50.98
50.93
49.72
48.34
47.37
46.83
46.47
46.06
45.69
45.65
46.12
46.85
47.22
46.45
44.04
40.10
35.26
30.37
26.09
22.52
19.40
16.28
12.87
9.11
5.22
1.34
-2.49
-6.43
-10.63
-15.09
-19.59
-23.80
-27.55
-31.07
-34.93
-39.65
-45.20
-50.67
-54.29
-54.18
-49.06
-38.96
-25.23
-10.03
4.52
17.07
27.20
35.12
41.12
45.25
47.33
47.25
45.33
42.41
39.58
37.77
37.45
38.42
40.06
41.67
42.78
43.29
43.40
43.29
42.95
42.13
40.44
37.67
33.95
29.69
25.44
21.52
17.95
14.48
10.84
6.88
2.69
-1.56
-5.72
-9.86
-14.06
-18.35
-22.64
-26.79
-30.92
-35.49
-40.99
-47.55
-54.45
-59.94
-61.91
-58.67
-49.87
-36.69
-21.39
-6.35
6.71
17.14
25.14
31.12
35.38
37.95
38.80
38.10
36.32
34.14
32.24
31.03
30.65
31.02
31.94
33.12
34.21
34.86
34.66
33.37
30.87
27.29
23.00
18.50
14.25
10.58
7.51
4.75
1.79
-1.84
-6.42
-11.75
-17.22
-22.09
-25.83
-28.47
-30.67
-33.35
-37.29
-42.74
-49.39
-56.59
-63.51
-69.32
-73.12
-73.86
-70.49
-62.37
-49.74
-33.88
-16.92
-1.23
11.47
20.48
26.11
29.21
30.72
31.34
31.45
31.29
31.00
30.74
30.67
30.95
31.75
33.11
34.82
36.46
37.46
37.33
35.95
33.58
30.77
28.07
25.68
23.41
20.75
17.19
12.48
6.76
0.46
-5.78
-11.38
-16.04
-19.79
-23.03
-26.36
-30.32
-35.17
-40.93
-47.47
-54.56
-61.78
-68.42
-73.26
-74.81
-71.72
-63.31
-50.00
-33.25
-15.20
1.93
16.43
27.38
34.61
38.53
39.85
39.38
37.84
35.80
33.70
31.91
30.81
30.71
31.78
33.78
36.14
38.11
39.05
38.71
37.27
35.15
32.61
29.72
26.29
22.16
17.50
12.72
8.28
4.38
0.85
-2.81
-6.99
-11.79
-16.90
-21.84
-26.31
-30.37
-34.48
-39.21
-45.02
-51.96
-59.59
-66.90
-72.40
-74.43
-71.58
-63.26
-50.02
-33.52
-16.06
0.11
13.47
23.53
30.61
35.48
38.82
40.98
42.06
42.05
41.14
39.71
38.38
37.70
38.05
39.38
41.29
43.16
44.46
44.87
44.33
42.92
40.71
37.73
34.08
30.02
26.02
22.55
19.85
17.72
15.54
12.54
8.18
2.34
-4.51
-11.65
-18.31
-24.02
-28.78
-33.10
-37.83
-43.84
-51.52
-60.47
-69.29
-75.88
-78.04
-74.29
-64.35
-49.43
-31.76
-13.94
1.89
14.50
23.76
30.17
34.47
37.21
38.66
38.97
38.37
37.33
36.43
36.15
36.60
37.53
38.47
39.00
38.99
38.62
38.17
37.75
37.18
36.03
33.89
30.63
26.51
22.10
18.00
14.48
11.37
8.23
4.52
-0.05
-5.50
-11.46
-17.37
-22.67
-26.93
-30.07
-32.45
-34.84
-38.20
-43.33
-50.56
-59.43
-68.72
-76.67
-81.35
-81.23
-75.53
-64.46
-49.22
-31.81
-14.48
0.85
13.10
22.22
28.88
33.91
37.80
40.53
41.79
41.46
39.95
38.15
37.05
37.28
38.83
41.14
43.45
45.18
46.14
46.40
46.07
45.11
43.34
40.56
36.70
31.90
26.52
21.05
15.92
11.42
7.48
3.74
-0.29
-4.90
-10.10
-15.49
-20.54
-24.84
-28.37
-31.48
-34.78
-38.84
-44.00
-50.32
-57.59
-65.23
-72.30
-77.44
-79.20
-76.36
-68.47
-56.15
-40.85
-24.53
-9.00
4.42
15.11
23.07
28.62
32.27
34.44
35.51
35.80
35.56
34.98
34.33
33.84
33.74
34.18
35.17
36.51
37.83
38.67
38.52
37.04
34.22
30.30
25.79
21.17
16.68
12.22
7.52
2.38
-3.18
-8.79
-14.01
-18.48
-22.14
-25.22
-28.16
-31.49
-35.72
-41.28
-48.34
-56.60
-65.09
-72.20
-76.06
-75.07
-68.50
-56.78
-41.40
-24.44
-8.01
6.37
17.86
26.35
32.23
36.03
38.16
38.89
38.41
36.96
35.01
33.18
32.02
31.83
32.51
33.64
34.74
35.51
35.95
36.21
36.35
36.18
35.25
33.12
29.63
25.16
20.36
15.89
11.95
8.27
4.16
-0.93
-7.06
-13.72
-20.01
-25.16
-28.99
-31.93
-34.87
-38.73
-44.12
-51.09
-59.18
-67.41
-74.46
-78.77
-78.87
-73.72
-63.25
-48.44
-31.14
-13.60
2.29
15.37
25.39
32.70
37.87
41.42
43.68
44.83
45.04
44.57
43.79
43.09
42.82
43.16
44.04
45.20
46.18
46.58
46.19
44.98
43.09
40.60
37.52
33.76
29.35
24.52
19.67
15.23
11.34
7.77
4.01
-0.47
-5.89
-11.98
-18.13
-23.65
-28.14
-31.79
-35.19
-39.21
-44.65
-51.92
-60.74
-70.10
-78.38
-83.60
-84.00
-78.56
-67.39
-51.84
-34.07
-16.47
-0.89
11.79
21.60
29.18
35.18
39.97
43.51
45.53
45.89
44.84
43.01
41.18
40.00
39.69
40.00
40.44
40.58
40.28
39.75
39.35
39.20
38.95
37.86
35.15
30.43
24.10
17.26
11.13
6.51
3.34
0.76
-2.35
-6.79
-12.60
-19.07
-25.22
-30.30
-34.13
-37.16
-40.28
-44.46
-50.35
-58.12
-67.17
-76.27
-83.69
-87.65
-86.77
-80.50
-69.26
-54.31
-37.47
-20.66
-5.53
6.86
16.16
22.70
27.21
30.52
33.20
35.47
37.32
38.64
39.43
39.86
40.07
40.17
40.12
39.92
39.65
39.51
39.61
39.87
39.92
39.20
37.20
33.78
29.26
24.27
19.55
15.47
12.00
8.70
5.01
0.61
-4.49
-9.94
-15.31
-20.24
-24.63
-28.67
-32.72
-37.25
-42.73
-49.51
-57.69
-66.83
-75.77
-82.77
-85.92
-83.71
-75.62
-62.40
-45.89
-28.45
-12.26
1.31
11.88
19.99
26.61
32.51
37.97
42.68
46.03
47.56
47.27
45.74
43.79
42.22
41.40
41.36
41.87
42.70
43.73
44.79
45.56
45.49
43.95
40.54
35.39
29.13
22.75
17.16
12.87
9.80
7.46
5.17
2.41
-1.10
-5.34
-10.13
-15.18
-20.21
-24.95
-29.27
-33.27
-37.40
-42.26
-48.37
-55.79
-63.89
-71.38
-76.56
-77.87
-74.34
-65.87
-53.29
-38.11
-22.15
-7.05
6.05
16.66
24.87
30.99
35.43
38.47
40.28
41.11
41.31
41.29
41.37
41.65
42.01
42.16
41.91
41.20
40.18
39.04
37.91
36.77
35.44
33.66
31.18
27.95
24.05
19.78
15.46
11.35
7.55
3.95
0.37
-3.46
-7.59
-11.94
-16.18
-19.98
-23.13
-25.71
-28.20
-31.32
-35.81
-42.06
-49.94
-58.67
-66.98
-73.43
-76.59
-75.48
-69.66
-59.48
-45.97
-30.73
-15.52
-1.89
9.25
17.81
24.23
29.27
33.45
36.99
39.72
41.41
42.00
41.72
41.01
40.23
39.55
38.87
37.95
36.72
35.32
34.07
33.29
32.96
32.75
31.99
30.08
26.70
22.07
16.84
11.78
7.49
4.03
1.05
-2.04
-5.76
-10.34
-15.59
-21.03
-26.07
-30.24
-33.37
-35.67
-37.69
-40.13
-43.68
-48.68
-54.99
-62.04
-68.81
-74.10
-76.63
-75.42
-69.96
-60.48
-48.04
-34.25
-20.89
-9.36
-0.25
6.57
11.72
15.86
19.32
22.05
23.86
24.67
24.68
24.36
24.16
24.32
24.85
25.54
26.17
26.67
27.09
27.50
27.86
27.92
27.30
25.66
22.84
19.03
14.69
10.36
6.45
3.13
0.24
-2.53
-5.42
-8.49
-11.63
-14.66
-17.64
-20.84
-24.82
-30.01
-36.42
-43.51
-50.13
-54.88
-56.45
-54.04
-47.55
-37.69
-25.71
-13.09
-1.18
9.18
17.65
24.34
29.42
32.98
34.97
35.37
34.39
32.46
30.21
28.10
26.31
24.69
23.00
21.12
19.17
17.47
16.30
15.74
15.61
15.59
15.27
14.26
12.24
8.95
4.35
-1.35
-7.52
-13.45
-18.52
-22.47
-25.46
-28.04
-30.82
-34.31
-38.78
-44.16
-49.97
-55.25
-58.68
-58.88
-54.92
-46.81
-35.55
-22.88
-10.56
0.13
8.76
15.51
20.86
25.16
28.49
30.73
31.70
31.40
30.10
28.28
26.47
25.08
24.27
23.86
23.51
22.86
21.76
20.30
18.67
17.00
15.24
13.13
10.39
6.78
2.28
-2.96
-8.63
-14.31
-19.58
-24.14
-28.04
-31.61
-35.39
-39.98
-45.76
-52.72
-60.30
-67.48
-72.86
-75.05
-73.03
-66.51
-56.16
-43.38
-29.85
-17.00
-5.63
4.14
12.54
19.81
25.91
30.60
33.65
35.09
35.26
34.74
34.13
33.80
33.85
34.08
34.17
33.88
33.12
31.97
30.61
29.15
27.56
25.60
22.95
19.37
14.81
9.42
3.62
-2.13
-7.41
-12.03
-16.07
-19.83
-23.70
-28.04
-33.14
-39.13
-46.02
-53.62
-61.40
-68.35
-72.97
-73.72
-69.48
-60.22
-47.07
-32.01
-17.16
-4.04
6.73
15.38
22.52
28.61
33.81
37.94
40.74
42.13
42.28
41.64
40.75
40.11
40.06
40.65
41.53
42.17
42.03
40.84
38.66
35.85
32.79
29.63
26.19
22.09
17.01
10.89
4.06
-2.88
-9.29
-14.73
-19.09
-22.56
-25.52
-28.46
-31.91
-36.40
-42.46
-50.34
-59.79
-69.79
-78.60
-84.14
-84.57
-79.02
-67.88
-52.72
-35.72
-18.97
-3.92
8.82
19.26
27.71
34.45
39.60
43.24
45.48
46.56
46.82
46.64
46.31
45.96
45.66
45.38
45.02
44.48
43.57
42.14
40.13
37.64
34.86
31.96
28.95
25.58
21.51
16.43
10.36
3.75
-2.72
-8.36
-12.87
-16.44
-19.68
-23.37
-28.23
-34.66
-42.60
-51.60
-60.72
-68.72
-74.15
-75.71
-72.56
-64.61
-52.64
-38.10
-22.78
-8.23
4.60
15.43
24.43
31.97
38.29
43.27
46.74
48.54
48.88
48.28
47.46
46.95
46.93
47.22
47.40
47.16
46.43
45.47
44.52
43.62
42.55
40.89
38.32
34.80
30.52
25.80
20.78
15.39
9.40
2.77
-4.27
-11.06
-16.88
-21.23
-24.23
-26.62
-29.56
-34.11
-40.82
-49.44
-58.84
-67.35
-73.08
-74.53
-70.84
-62.01
-48.97
-33.31
-17.02
-1.98
10.53
20.11
27.23
32.77
37.55
41.93
45.70
48.32
49.34
48.74
46.98
44.88
43.28
42.72
43.23
44.36
45.40
45.69
44.83
42.87
40.11
36.91
33.47
29.72
25.51
20.77
15.67
10.58
5.84
1.57
-2.40
-6.43
-10.86
-15.80
-21.20
-26.88
-32.80
-39.01
-45.57
-52.26
-58.33
-62.47
-63.25
-59.52
-51.04
-38.69
-24.26
-9.89
2.62
12.40
19.53
24.80
29.09
32.93
36.26
38.70
39.87
39.77
38.85
37.84
37.35
37.64
38.54
39.61
40.31
40.24
39.15
37.08
34.23
30.93
27.60
24.49
21.52
18.29
14.27
9.13
3.01
-3.55
-9.82
-15.22
-19.61
-23.21
-26.53
-30.14
-34.51
-39.91
-46.37
-53.48
-60.30
-65.48
-67.46
-64.94
-57.49
-45.65
-30.99
-15.47
-0.99
11.21
20.72
27.83
33.16
37.18
40.03
41.53
41.49
39.99
37.56
35.07
33.26
32.50
32.64
33.18
33.59
33.51
32.85
31.63
29.84
27.39
24.14
20.00
15.06
9.49
3.58
-2.32
-7.86
-12.76
-16.86
-20.22
-23.09
-25.79
-28.61
-31.67
-35.06
-38.87
-43.28
-48.37
-53.85
-58.88
-62.10
-62.06
-57.81
-49.26
-37.34
-23.71
-10.16
1.88
11.57
18.78
23.86
27.32
29.65
31.21
32.17
32.63
32.60
32.15
31.42
30.56
29.74
29.05
28.49
28.01
27.58
27.25
27.06
26.95
26.57
25.44
23.06
19.27
14.29
8.78
3.47
-1.10
-4.76
-7.75
-10.41
-13.09
-15.90
-18.88
-21.92
-25.06
-28.37
-32.05
-36.39
-41.61
-47.85
-54.97
-62.37
-68.93
-73.21
-73.77
-69.69
-60.95
-48.55
-34.17
-19.70
-6.66
4.06
12.30
18.36
22.76
25.95
28.25
29.87
30.91
31.51
31.76
31.80
31.78
31.86
32.14
32.54
32.80
32.59
31.70
30.16
28.28
26.43
24.82
23.27
21.38
18.67
14.96
10.46
5.70
1.31
-2.29
-5.11
-7.41
-9.71
-12.46
-15.94
-20.18
-24.94
-29.80
-34.21
-37.77
-40.37
-42.27
-44.15
-46.83
-50.94
-56.58
-63.08
-69.02
-72.58
-72.10
-66.67
-56.56
-43.19
-28.57
-14.67
-2.78
6.66
13.88
19.44
23.75
27.02
29.38
31.02
32.24
33.33
34.42
35.36
35.85
35.68
34.82
33.51
32.16
31.11
30.56
30.40
30.29
29.75
28.35
25.80
22.14
17.62
12.63
7.66
3.13
-0.61
-3.42
-5.34
-6.74
-8.21
-10.42
-13.77
-18.31
-23.54
-28.75
-33.16
-36.35
-38.44
-39.94
-41.70
-44.59
-49.16
-55.46
-62.72
-69.41
-73.64
-73.75
-68.93
-59.54
-46.96
-33.11
-19.79
-8.16
1.36
8.87
14.69
19.04
22.09
24.01
25.09
25.73
26.25
26.82
27.35
27.63
27.55
27.19
26.79
26.68
27.01
27.67
28.29
28.37
27.49
25.54
22.69
19.32
15.76
12.26
8.83
5.40
1.85
-1.83
-5.59
-9.26
-12.72
-15.95
-19.04
-22.23
-25.72
-29.74
-34.45
-39.94
-46.16
-52.79
-59.09
-63.92
-65.95
-63.99
-57.49
-46.83
-33.38
-19.10
-5.94
4.72
12.48
17.78
21.61
24.85
27.90
30.56
32.23
32.44
31.19
29.14
27.21
26.22
26.49
27.72
29.25
30.40
30.70
30.02
28.44
26.13
23.29
20.14
16.91
13.74
10.51
6.95
2.74
-2.21
-7.58
-12.80
-17.28
-20.85
-23.73
-26.49
-29.66
-33.58
-38.39
-44.07
-50.51
-57.38
-63.97
-68.96
-70.82
-68.13
-60.31
-47.88
-32.49
-16.34
-1.48
10.76
20.04
26.70
31.40
34.63
36.56
37.12
36.39
34.82
33.22
32.36
32.64
33.81
35.21
36.21
36.60
36.64
36.71
36.94
36.92
35.96
33.48
29.45
24.49
19.50
15.21
11.77
8.75
5.38
1.05
-4.49
-10.99
-17.73
-23.84
-28.58
-31.71
-33.59
-35.19
-37.68
-42.02
-48.53
-56.65
-65.04
-71.85
-75.24
-73.85
-67.16
-55.71
-40.97
-24.95
-9.62
3.57
14.04
22.03
28.14
32.98
36.79
39.55
41.13
41.55
41.06
40.12
39.20
38.70
38.86
39.75
41.21
42.93
44.46
45.30
45.05
43.51
40.72
36.95
32.63
28.23
24.10
20.36
16.88
13.26
9.13
4.27
-1.19
-6.90
-12.48
-17.75
-22.88
-28.23
-34.14
-40.77
-48.07
-55.87
-63.91
-71.71
-78.34
-82.42
-82.44
-77.29
-66.88
-52.35
-35.73
-19.22
-4.44
7.99
18.25
26.88
34.18
40.07
44.23
46.53
47.23
46.95
46.36
45.88
45.53
45.07
44.35
43.45
42.74
42.59
43.02
43.62
43.67
42.50
39.86
35.99
31.48
26.99
22.87
19.09
15.25
10.87
5.60
-0.56
-7.18
-13.61
-19.17
-23.49
-26.61
-29.07
-31.75
-35.62
-41.44
-49.51
-59.35
-69.67
-78.43
-83.31
-82.40
-74.86
-61.32
-43.77
-24.91
-7.35
7.15
17.93
25.33
30.34
34.09
37.44
40.79
44.11
47.04
49.20
50.28
50.27
49.36
47.83
46.04
44.31
42.91
41.98
41.49
41.10
40.36
38.82
36.22
32.59
28.16
23.29
18.25
13.20
8.21
3.29
-1.56
-6.36
-11.11
-15.83
-20.58
-25.42
-30.44
-35.80
-41.68
-48.29
-55.69
-63.58
-71.18
-77.16
-79.80
-77.54
-69.55
-56.22
-39.17
-20.90
-3.85
10.30
21.11
29.06
35.02
39.66
43.20
45.54
46.56
46.44
45.54
44.37
43.32
42.53
42.01
41.60
41.17
40.61
39.86
38.86
37.55
35.83
33.49
30.33
26.25
21.37
15.98
10.49
5.14
-0.10
-5.49
-11.25
-17.28
-23.13
-28.07
-31.58
-33.65
-34.88
-36.29
-38.97
-43.59
-50.09
-57.57
-64.42
-68.68
-68.64
-63.33
-52.86
-38.43
-21.94
-5.52
9.06
20.76
29.39
35.41
39.52
42.38
44.29
45.28
45.20
44.08
42.23
40.23
38.75
38.23
38.66
39.64
40.60
41.07
40.85
39.94
38.34
35.96
32.62
28.23
23.03
17.67
12.98
9.62
7.70
6.75
5.99
4.67
2.47
-0.54
-4.12
-8.18
-12.93
-18.74
-25.97
-34.68
-44.56
-54.91
-64.66
-72.51
-76.99
-76.82
-71.23
-60.42
-45.56
-28.63
-11.83
3.08
15.12
24.09
30.36
34.52
37.11
38.58
39.27
39.42
39.21
38.76
38.11
37.32
36.49
35.79
35.39
35.34
35.51
35.61
35.28
34.22
32.35
29.77
26.72
23.37
19.80
15.82
11.19
5.75
-0.37
-6.69
-12.56
-17.48
-21.34
-24.59
-28.00
-32.42
-38.36
-45.77
-53.93
-61.51
-66.87
-68.40
-64.94
-56.23
-42.97
-26.81
-9.93
5.53
18.00
26.76
31.98
34.46
35.24
35.27
35.13
35.01
34.80
34.31
33.51
32.50
31.52
30.80
30.36
29.98
29.36
28.21
26.47
24.29
21.94
19.60
17.19
14.34
10.58
5.63
-0.28
-6.45
-11.95
-16.08
-18.75
-20.63
-22.77
-26.10
-30.99
-37.17
-44.02
-50.93
-57.42
-63.14
-67.44
-69.31
-67.49
-61.10
-50.22
-36.07
-20.70
-6.28
5.63
14.53
20.77
25.02
27.83
29.33
29.45
28.23
26.13
24.00
22.79
23.10
24.85
27.32
29.47
30.44
29.92
28.29
26.24
24.45
23.12
21.89
20.08
16.98
12.32
6.29
-0.47
-7.11
-12.90
-17.34
-20.36
-22.31
-23.97
-26.21
-29.82
-35.09
-41.61
-48.29
-53.55
-55.88
-54.11
-47.93
-37.86
-25.23
-11.77
0.87
11.47
19.47
24.86
28.04
29.48
29.52
28.46
26.61
24.42
22.42
21.10
20.67
21.04
21.75
22.32
22.37
21.74
20.58
19.17
17.87
16.82
15.92
14.72
12.63
9.13
4.11
-2.02
-8.43
-14.19
-18.65
-21.68
-23.68
-25.36
-27.50
-30.75
-35.45
-41.58
-48.66
-55.67
-61.19
-63.67
-61.87
-55.41
-44.82
-31.48
-17.21
-3.78
7.62
16.44
22.72
26.92
29.50
30.78
30.88
29.90
28.09
25.91
23.97
22.81
22.61
23.17
23.93
24.37
24.12
23.21
21.90
20.52
19.26
18.03
16.53
14.30
10.99
6.57
1.39
-3.89
-8.54
-12.12
-14.66
-16.62
-18.65
-21.20
-24.44
-28.24
-32.50
-37.31
-42.91
-49.34
-56.00
-61.54
-64.14
-62.26
-55.30
-44.02
-30.26
-16.31
-4.08
5.44
12.21
16.83
20.06
22.49
24.31
25.51
26.02
25.87
25.29
24.56
23.98
23.73
23.86
24.26
24.74
25.07
25.05
24.47
23.23
21.27
18.67
15.63
12.38
9.04
5.61
1.98
-1.93
-6.11
-10.41
-14.59
-18.43
-21.79
-24.56
-26.83
-28.85
-31.10
-34.25
-38.95
-45.51
-53.61
-62.16
-69.40
-73.49
-73.00
-67.39
-57.28
-44.17
-30.05
-16.70
-5.35
3.61
10.45
15.71
19.84
23.03
25.16
26.11
25.90
24.82
23.42
22.26
21.82
22.32
23.73
25.86
28.34
30.67
32.35
32.87
31.88
29.32
25.54
21.10
16.70
12.74
9.28
5.94
2.26
-2.08
-7.05
-12.23
-17.11
-21.34
-24.82
-27.79
-30.60
-33.59
-37.02
-41.05
-45.69
-50.76
-55.71
-59.52
-60.96
-58.82
-52.50
-42.25
-29.24
-15.24
-2.14
8.62
16.37
21.32
24.24
26.06
27.46
28.70
29.79
30.64
31.25
31.75
32.26
32.75
33.08
33.09
32.77
32.35
32.13
32.30
32.71
32.92
32.36
30.61
27.52
23.14
17.74
11.77
5.73
0.12
-4.75
-8.86
-12.47
-15.99
-19.70
-23.77
-28.26
-33.19
-38.64
-44.69
-51.27
-57.98
-64.11
-68.60
-70.32
-68.31
-62.04
-51.65
-38.05
-22.80
-7.69
5.72
16.63
24.94
31.04
35.32
37.89
38.56
37.31
34.63
31.54
29.23
28.47
29.28
31.00
32.68
33.65
33.76
33.29
32.64
32.02
31.30
30.20
28.46
26.01
22.92
19.30
15.18
10.52
5.34
-0.16
-5.59
-10.59
-14.94
-18.71
-22.27
-26.01
-30.32
-35.41
-41.42
-48.28
-55.68
-62.84
-68.47
-71.03
-69.16
-62.23
-50.76
-36.26
-20.74
-6.03
6.73
17.19
25.56
32.17
37.15
40.39
41.68
40.97
38.63
35.40
32.27
30.12
29.49
30.43
32.49
34.97
37.08
38.18
37.89
36.17
33.28
29.67
25.80
21.99
18.30
14.57
10.61
6.31
1.65
-3.20
-8.10
-12.92
-17.52
-21.74
-25.42
-28.47
-31.18
-34.20
-38.29
-44.02
-51.18
-58.60
-64.33
-66.33
-63.13
-54.54
-41.61
-26.30
-10.86
2.91
13.96
22.01
27.32
30.33
31.38
30.83
29.05
26.59
24.30
23.08
23.60
25.98
29.58
33.25
35.72
36.24
34.77
32.07
29.10
26.56
24.55
22.55
19.80
15.77
10.46
4.32
-1.91
-7.59
-12.44
-16.49
-20.09
-23.70
-27.80
-32.84
-39.01
-46.11
-53.42
-59.68
-63.33
-62.98
-57.82
-47.96
-34.43
-18.96
-3.45
10.45
21.70
30.00
35.49
38.63
39.84
39.40
37.52
34.57
31.14
28.11
26.38
26.45
28.18
30.75
32.98
33.89
33.11
30.93
28.06
25.15
22.44
19.70
16.48
12.45
7.58
2.15
-3.49
-9.04
-14.32
-19.21
-23.63
-27.61
-31.42
-35.59
-40.69
-47.01
-54.15
-60.91
-65.59
-66.39
-62.22
-53.01
-39.78
-24.27
-8.41
6.18
18.53
28.17
35.08
39.47
41.70
42.23
41.61
40.38
38.96
37.55
36.20
34.92
33.79
32.97
32.58
32.54
32.54
32.29
31.58
30.39
28.87
27.03
24.66
21.34
16.75
10.86
4.12
-2.76
-9.05
-14.32
-18.60
-22.31
-26.15
-30.85
-37.03
-44.94
-54.34
-64.32
-73.35
-79.53
-81.09
-76.91
-67.01
-52.54
-35.52
-18.17
-2.40
10.78
21.07
28.86
34.67
38.88
41.64
42.93
42.78
41.49
39.62
37.87
36.80
36.64
37.23
38.10
38.80
39.00
38.62
37.76
36.48
34.72
32.23
28.77
24.23
18.69
12.47
5.99
-0.29
-6.02
-10.96
-15.10
-18.63
-21.96
-25.58
-29.98
-35.49
-42.21
-49.85
-57.75
-64.84
-69.66
-70.80
-67.19
-58.50
-45.38
-29.36
-12.51
3.22
16.41
26.50
33.63
38.41
41.52
43.47
44.58
45.05
45.08
44.90
44.73
44.64
44.61
44.45
44.03
43.27
42.18
40.85
39.26
37.34
34.93
31.96
28.46
24.61
20.67
16.86
13.22
9.62
5.79
1.44
-3.58
-9.20
-15.21
-21.26
-27.03
-32.27
-36.83
-40.79
-44.42
-48.21
-52.75
-58.41
-65.07
-71.82
-77.06
-78.85
-75.51
-66.38
-52.12
-34.61
-16.36
0.28
13.76
23.61
30.24
34.46
37.04
38.49
39.03
38.96
38.59
38.33
38.42
38.86
39.33
39.43
38.95
38.01
37.01
36.36
36.20
36.17
35.56
33.71
30.31
25.68
20.68
16.25
12.93
10.62
8.57
5.87
1.90
-3.26
-8.88
-13.98
-17.86
-20.49
-22.51
-24.87
-28.42
-33.56
-40.18
-47.83
-55.84
-63.41
-69.43
-72.55
-71.47
-65.41
-54.57
-40.35
-24.91
-10.48
1.46
10.57
17.41
22.85
27.51
31.40
34.15
35.43
35.27
34.19
32.95
32.21
32.22
32.79
33.44
33.77
33.56
33.00
32.39
31.93
31.54
30.74
28.96
25.81
21.41
16.33
11.35
7.09
3.64
0.65
-2.47
-6.17
-10.50
-15.12
-19.58
-23.51
-26.82
-29.75
-32.84
-36.75
-42.00
-48.66
-56.13
-63.01
-67.52
-67.98
-63.47
-54.18
-41.33
-26.77
-12.41
0.26
10.42
17.95
23.23
26.83
29.25
30.74
31.34
31.01
29.87
28.22
26.60
25.45
25.02
25.29
26.01
26.88
27.65
28.18
28.28
27.78
26.41
24.01
20.48
16.02
11.02
5.96
1.33
-2.57
-5.77
-8.51
-11.19
-14.10
-17.37
-21.01
-25.04
-29.57
-34.78
-40.59
-46.51
-51.48
-54.13
-53.26
-48.28
-39.56
-28.38
-16.43
-5.24
4.22
11.70
17.36
21.41
23.91
24.75
24.01
22.06
19.63
17.50
16.23
15.90
16.14
16.43
16.40
15.99
15.45
15.05
14.89
14.76
14.21
12.69
9.87
5.72
0.65
-4.69
-9.58
-13.49
-16.22
-17.95
-19.14
-20.43
-22.51
-25.97
-31.07
-37.58
-44.59
-50.70
-54.30
-54.08
-49.43
-40.67
-29.01
-16.07
-3.53
7.35
15.83
21.77
25.40
27.15
27.45
26.62
24.90
22.49
19.70
17.00
14.96
14.03
14.38
15.77
17.57
19.06
19.61
18.95
17.10
14.30
10.74
6.59
1.95
-3.01
-8.00
-12.68
-16.69
-19.84
-22.23
-24.28
-26.75
-30.48
-36.02
-43.15
-50.80
-57.09
-60.13
-58.63
-52.41
-42.47
-30.44
-17.99
-6.35
3.82
12.28
18.99
23.96
27.28
29.17
29.96
29.96
29.38
28.25
26.72
25.03
23.52
22.51
22.06
21.97
21.89
21.58
20.94
19.97
18.54
16.29
12.77
7.75
1.51
-5.21
-11.47
-16.60
-20.52
-23.74
-26.97
-30.76
-35.33
-40.71
-46.78
-53.35
-59.96
-65.61
-68.82
-68.04
-62.31
-51.79
-37.91
-22.84
-8.76
2.93
11.87
18.52
23.64
27.72
30.75
32.46
32.59
31.23
28.92
26.54
24.95
24.71
25.87
27.99
30.28
31.88
32.17
30.93
28.36
24.93
21.18
17.56
14.18
10.95
7.60
3.84
-0.48
-5.30
-10.48
-15.80
-21.08
-26.23
-31.27
-36.27
-41.34
-46.73
-52.74
-59.53
-66.84
-73.78
-78.87
-80.36
-76.92
-68.14
-54.85
-38.89
-22.44
-7.39
5.10
14.78
21.96
27.16
30.81
33.14
34.30
34.50
34.09
33.55
33.33
33.76
34.93
36.65
38.51
40.02
40.70
40.24
38.57
35.88
32.52
28.90
25.35
22.00
18.81
15.54
11.91
7.69
2.88
-2.28
-7.37
-12.00
-16.01
-19.57
-23.17
-27.44
-32.78
-39.35
-46.85
-54.69
-61.94
-67.41
-69.76
-67.86
-61.09
-49.72
-34.97
-18.72
-2.91
10.94
22.01
30.15
35.62
38.82
40.15
39.93
38.54
36.49
34.37
32.79
32.21
32.79
34.29
36.17
37.76
38.49
38.13
36.80
34.90
32.76
30.50
27.93
24.64
20.31
14.88
8.74
2.62
-2.75
-6.93
-10.05
-12.75
-15.86
-20.05
-25.56
-32.15
-39.25
-46.07
-51.65
-54.90
-54.76
-50.50
-42.08
-30.34
-16.82
-3.31
8.72
18.50
25.95
31.41
35.20
37.49
38.34
37.83
36.27
34.24
32.41
31.32
31.18
31.82
32.69
33.17
32.84
31.69
30.11
28.62
27.51
26.64
25.38
22.97
18.87
13.08
6.20
-0.76
-6.82
-11.48
-14.82
-17.56
-20.74
-25.32
-31.82
-39.96
-48.69
-56.35
-61.16
-61.69
-57.32
-48.35
-35.89
-21.55
-6.97
6.49
17.87
26.66
32.76
36.42
38.11
38.43
37.86
36.75
35.30
33.70
32.30
31.58
31.86
33.13
34.90
36.28
36.39
34.80
31.72
27.87
24.03
20.70
17.88
15.18
12.12
8.42
4.02
-0.84
-5.84
-10.66
-15.12
-19.20
-23.00
-26.75
-30.75
-35.25
