1520867755.00
64.000000
-0.00
-0.00
-0.00
-0.00
-0.00
-0.00
-0.00
-0.00
-0.00
-0.00
0.00
0.01
0.01
-0.00
-0.03
-0.05
-0.05
0.00
0.13
0.36
0.66
1.01
1.37
1.72
2.06
2.40
2.79
3.24
3.80
4.42
5.06
5.66
6.20
6.68
7.15
7.68
8.31
9.14
10.09
11.04
11.88
12.56
13.14
13.76
14.65
15.96
17.91
20.32
22.90
25.38
27.58
29.57
31.68
34.32
37.81
42.54
48.15
54.10
59.83
64.97
69.58
74.14
79.34
85.71
93.76
103.00
112.62
121.73
129.77
136.75
143.30
150.75
157.77
166.64
177.95
191.79
206.97
220.57
228.25
225.36
208.53
176.87
132.76
80.05
23.07
-34.94
-92.44
-149.16
-205.23
-260.37
-313.74
-363.87
-409.83
-450.91
-486.50
-515.74
-537.23
-549.22
-549.96
-538.37
-514.21
-478.67
-433.88
-382.45
-327.02
-269.84
-212.63
-156.66
-102.95
-52.37
-5.90
35.58
71.43
101.35
125.50
144.38
158.69
169.15
176.37
180.75
182.57
182.07
179.51
175.23
169.65
163.18
156.15
148.81
141.30
133.69
126.02
118.33
110.69
103.16
95.80
88.68
81.83
75.25
68.95
62.95
57.25
51.86
46.78
42.03
37.59
33.45
29.61
26.07
22.81
19.83
17.11
14.67
12.48
10.54
8.83
7.35
6.07
4.97
4.05
3.27
2.62
2.09
1.65
1.30
1.01
0.79
0.61
0.47
0.37
0.28
0.23
0.18
0.15
0.13
0.13
0.13
0.14
0.16
0.18
0.21
0.25
0.28
0.32
0.36
0.41
0.45
0.50
0.55
0.60
0.65
0.71
0.77
0.83
0.90
0.98
1.07
1.16
1.27
1.39
1.53
1.68
1.85
2.04
2.25
2.48
2.74
3.02
3.33
3.68
4.05
4.46
4.90
5.38
5.90
6.45
7.05
7.68
8.36
9.09
9.85
10.67
11.52
12.43
13.37
14.39
15.45
16.59
17.78
19.03
20.29
21.52
22.66
23.62
24.28
24.51
24.21
23.27
21.64
19.30
16.28
12.65
8.58
4.23
-0.20
-4.48
-8.42
-11.85
-14.63
-16.70
-18.02
-18.61
-18.55
-17.93
-16.87
-15.49
-13.90
-12.22
-10.53
-8.85
-7.19
-5.56
-3.94
-2.30
-0.64
1.08
2.85
4.69
6.60
8.69
10.85
13.09
15.39
17.76
20.18
22.65
25.16
27.81
30.77
33.92
37.23
40.73
44.35
48.01
51.58
54.98
58.28
61.75
65.22
68.75
72.42
76.16
79.84
83.22
86.10
88.51
90.76
92.60
94.00
94.85
94.80
93.11
88.76
80.44
66.36
49.58
31.07
11.62
-8.30
-28.49
-48.91
-69.63
-90.79
-112.66
-135.58
-160.49
-187.39
-215.01
-240.66
-260.84
-272.47
-274.00
-265.94
-250.58
-231.53
-211.89
-193.77
-178.18
-165.38
-155.11
-146.57
-138.24
-127.94
-113.76
-94.49
-70.36
-43.24
-16.08
8.04
26.96
39.96
47.87
52.35
55.36
58.44
62.25
66.51
70.33
72.80
73.45
72.56
70.98
69.78
69.73
71.00
73.04
74.96
75.90
75.42
73.58
70.79
67.53
63.95
59.83
54.57
47.51
38.25
26.80
13.58
-0.73
-15.44
-29.90
-43.36
-54.91
-63.37
-67.50
-66.37
-59.79
-48.46
-33.97
-18.25
-3.15
10.06
20.91
29.58
36.60
42.49
47.51
51.57
54.37
55.63
55.32
53.77
51.56
49.34
47.60
46.54
46.03
45.67
44.95
43.34
40.44
36.07
30.35
23.62
16.32
8.88
1.57
-5.51
-12.43
-19.33
-26.43
-33.96
-41.95
-50.01
-57.15
-61.88
-62.56
-58.06
-48.27
-34.28
-18.09
-1.96
12.22
23.36
31.25
36.25
38.95
39.93
39.57
38.10
35.60
32.18
28.03
23.48
18.99
14.99
11.77
9.43
7.91
7.06
6.76
6.83
7.07
7.11
6.57
5.17
2.84
-0.16
-3.47
-6.74
-9.92
-13.29
-17.36
-22.65
-29.32
-36.89
-44.19
-49.57
-51.37
-48.52
-41.04
-29.99
-17.22
-4.72
6.09
14.52
20.59
24.63
26.94
27.74
27.23
25.74
23.79
21.96
20.69
20.10
20.12
20.60
21.44
22.53
23.64
24.29
23.81
21.65
17.64
12.16
5.96
-0.09
-5.43
-9.89
-13.72
-17.37
-21.31
-25.86
-31.14
-36.94
-42.66
-47.24
-49.35
-47.77
-41.83
-31.77
-18.71
-4.44
9.07
20.21
28.02
32.36
33.74
33.08
31.37
29.42
27.68
26.23
24.91
23.50
21.88
20.13
18.50
17.22
16.33
15.65
14.83
13.49
11.38
8.50
5.00
1.15
-2.89
-7.04
-11.30
-15.68
-20.18
-24.85
-29.89
-35.57
-41.99
-48.78
-54.91
-58.84
-59.02
-54.51
-45.42
-32.96
-18.97
-5.41
6.29
15.42
21.97
26.31
28.92
30.27
30.69
30.46
29.77
28.78
27.59
26.27
24.82
23.25
21.55
19.78
18.05
16.49
15.17
14.06
12.94
11.48
9.32
6.24
2.28
-2.22
-6.79
-10.90
-14.34
-17.24
-20.12
-23.67
-28.47
-34.66
-41.81
-48.82
-54.24
-56.56
-54.65
-48.15
-37.61
-24.43
-10.41
2.66
13.56
21.81
27.66
31.71
34.58
36.63
37.91
38.31
37.81
36.53
34.81
33.04
31.50
30.25
29.14
27.96
26.53
24.82
22.96
21.13
19.43
17.78
15.92
13.54
10.41
6.45
1.82
-3.18
-8.22
-13.04
-17.54
-21.69
-25.57
-29.28
-32.91
-36.61
-40.61
-45.13
-50.18
-55.35
-59.67
-61.74
-60.19
-54.19
-43.91
-30.56
-16.06
-2.36
9.13
17.88
24.12
28.42
31.33
33.16
34.05
34.12
33.60
32.81
32.02
31.31
30.56
29.62
28.40
26.99
25.54
24.19
22.92
21.51
19.68
17.23
14.20
10.83
7.45
4.30
1.38
-1.58
-5.06
-9.44
-14.84
-20.97
-27.18
-32.70
-36.90
-39.50
-40.72
-41.13
-41.59
-42.83
-45.24
-48.48
-51.50
-52.79
-50.83
-44.70
-34.44
-21.14
-6.57
7.26
18.76
27.02
31.87
33.78
33.54
32.03
30.07
28.28
26.99
26.32
26.22
26.54
27.14
27.85
28.48
28.75
28.41
27.26
25.32
22.85
20.23
17.79
15.67
13.74
11.66
9.09
5.84
1.95
-2.30
-6.56
-10.57
-14.13
-17.27
-20.12
-22.92
-26.00
-29.74
-34.41
-40.06
-46.30
-52.18
-56.37
-57.39
-54.23
-46.67
-35.51
-22.27
-8.78
3.43
13.45
21.02
26.36
29.80
31.65
32.16
31.58
30.25
28.58
26.96
25.65
24.72
24.10
23.63
23.14
22.51
21.68
20.70
19.66
18.67
17.79
16.94
15.87
14.23
11.71
8.18
3.81
-0.96
-5.63
-9.80
-13.35
-16.43
-19.44
-22.84
-27.02
-32.19
-38.31
-45.01
-51.48
-56.58
-58.96
-57.48
-51.60
-41.67
-28.87
-14.95
-1.68
9.59
18.16
23.94
27.22
28.42
27.92
26.12
23.41
20.25
17.11
14.32
12.09
10.41
9.20
8.34
7.74
7.38
7.19
7.11
6.92
6.36
5.14
3.07
0.18
-3.24
-6.76
-9.97
-12.68
-15.06
-17.55
-20.71
-24.92
-30.19
-36.01
-41.50
-45.53
-47.02
-45.17
-39.72
-31.05
-20.12
-8.28
3.08
12.85
20.40
25.58
28.62
29.83
29.60
28.25
26.12
23.63
21.16
19.05
17.46
16.36
15.63
15.06
14.49
13.82
13.02
12.05
10.83
9.20
6.99
4.09
0.57
-3.37
-7.42
-11.32
-15.01
-18.58
-22.39
-26.86
-32.30
-38.71
-45.54
-51.72
-55.79
-56.33
-52.47
-44.25
-32.73
-19.60
-6.61
4.90
14.29
21.47
26.61
29.97
31.75
32.21
31.76
30.85
29.87
28.99
28.09
26.93
25.38
23.55
21.77
20.45
19.71
19.40
19.03
18.02
15.96
12.73
8.52
3.74
-1.23
-6.03
-10.56
-14.82
-19.02
-23.47
-28.61
-34.72
-41.67
-48.71
-54.44
-57.18
-55.48
-48.74
-37.44
-23.06
-7.61
7.04
19.56
29.36
36.38
40.88
43.14
43.45
42.14
39.68
36.68
33.76
31.37
29.70
28.69
28.10
27.70
27.28
26.68
25.71
24.14
21.80
18.60
14.60
9.92
4.66
-1.08
-7.18
-13.41
-19.42
-24.79
-29.30
-33.00
-36.35
-40.05
-44.78
-50.87
-58.12
-65.61
-71.95
-75.54
-75.05
-69.85
-60.15
-46.96
-31.68
-15.69
0.07
15.14
29.31
42.42
54.04
63.48
70.01
73.12
72.86
69.84
65.09
59.72
54.60
50.15
46.44
43.26
40.45
38.02
36.15
35.06
34.83
35.25
35.69
35.28
33.14
28.75
22.21
14.22
5.90
-1.72
-8.02
-12.98
-17.13
-21.20
-25.91
-31.72
-38.64
-46.23
-53.48
-59.02
-61.37
-59.41
-52.86
-42.45
-29.75
-16.65
-4.72
5.13
12.80
18.71
23.41
27.21
30.15
32.05
32.80
32.50
31.60
30.71
30.44
31.17
32.99
35.61
38.33
40.03
39.22
34.42
24.80
10.72
-5.99
-22.54
-36.09
-44.83
-48.52
-48.32
-46.03
-43.31
-41.24
-40.34
-40.94
-43.22
-47.00
-51.39
-54.66
-54.57
-49.23
-37.92
-21.47
-2.10
17.32
34.14
46.61
54.12
57.07
56.47
53.46
49.03
43.85
38.31
32.60
26.88
21.37
16.40
12.34
9.53
8.09
7.87
8.40
9.06
9.15
8.20
6.00
2.70
-1.30
-5.53
-9.66
-13.53
-17.19
-20.87
-24.88
-29.55
-35.16
-41.66
-48.62
-55.02
-59.39
-60.25
-56.58
-48.34
-36.56
-23.09
-9.98
1.19
9.73
15.79
19.96
22.90
24.92
26.07
26.20
25.27
23.47
21.14
18.65
16.30
14.30
12.85
12.20
12.53
13.85
15.73
17.32
17.55
15.57
11.08
4.56
-2.90
-9.95
-15.47
-18.96
-20.68
-21.53
-22.84
-25.84
-31.32
-39.07
-47.87
-55.62
-59.96
-59.08
-52.37
-40.64
-25.83
-10.26
4.02
15.80
24.69
30.94
35.06
37.59
38.95
39.51
39.52
39.20
38.64
37.87
36.82
35.36
33.41
31.01
28.33
25.75
23.65
22.26
21.44
20.69
19.22
16.38
11.92
6.17
-0.05
-5.77
-10.27
-13.41
-15.67
-18.01
-21.44
-26.69
-33.85
-42.22
-50.38
-56.52
-58.97
-56.65
-49.42
-38.19
-24.63
-10.68
1.97
12.35
20.26
26.09
30.40
33.58
35.75
36.84
36.81
35.89
34.54
33.26
32.38
31.91
31.55
30.89
29.67
27.92
25.99
24.28
23.08
22.31
21.49
19.95
17.10
12.72
7.11
0.98
-4.77
-9.48
-12.96
-15.54
-18.01
-21.25
-25.98
-32.46
-40.32
-48.55
-55.64
-59.91
-60.00
-55.25
-46.01
-33.49
-19.41
-5.53
6.83
16.95
24.71
30.32
34.20
36.77
38.40
39.30
39.63
39.46
38.80
37.76
36.45
34.98
33.36
31.44
29.07
26.24
23.12
20.12
17.54
15.45
13.47
10.89
7.07
1.80
-4.50
-10.90
-16.38
-20.36
-22.92
-24.80
-26.96
-30.24
-34.96
-40.97
-47.68
-54.23
-59.53
-62.47
-62.07
-57.86
-50.16
-40.01
-28.92
-18.33
-9.05
-1.23
5.45
11.32
16.33
20.04
21.93
21.80
20.08
17.71
15.76
15.05
15.78
17.60
19.85
21.94
23.64
25.07
26.55
28.23
29.93
31.00
30.59
27.98
22.85
15.47
6.66
-2.49
-10.98
-18.16
-23.92
-28.54
-32.59
-36.62
-40.97
-45.71
-50.52
-54.71
-57.25
-56.97
-52.89
-44.59
-32.54
-18.03
-2.84
11.30
23.20
32.39
38.96
43.14
45.08
44.75
42.18
37.73
32.21
26.72
22.36
19.82
19.16
19.94
21.41
22.89
23.98
24.61
24.93
25.17
25.46
25.75
25.82
25.20
23.30
19.55
13.58
5.48
-4.13
-14.11
-23.12
-29.94
-33.89
-34.93
-33.56
-30.52
-26.34
-21.10
-14.46
-5.83
5.23
18.68
33.96
50.15
66.27
81.65
96.03
109.43
121.86
133.02
142.09
147.76
148.57
143.30
131.34
113.11
90.00
64.25
38.44
14.99
-4.31
-18.56
-27.90
-33.38
-36.71
-39.85
-44.54
-51.93
-62.37
-75.51
-90.43
-105.94
-120.72
-133.57
-143.51
-149.91
-152.75
-152.63
-150.60
-147.91
-145.55
-144.01
-143.23
-142.70
-141.73
-139.54
-135.36
-128.52
-118.66
-105.79
-90.41
-73.39
-55.69
-38.08
-21.06
-4.89
10.22
23.99
36.09
46.29
54.58
61.32
67.03
72.28
77.45
82.62
87.62
92.19
96.11
99.31
101.87
103.93
105.47
106.25
105.73
103.31
98.60
91.82
83.86
76.08
69.83
65.90
64.21
63.85
63.52
62.01
58.79
54.26
49.73
47.07
47.99
53.27
62.15
72.39
80.86
84.59
81.83
72.39
57.49
39.12
19.43
0.32
-16.64
-30.23
-39.76
-45.09
-46.70
-45.42
-42.14
-37.59
-32.34
-27.11
-23.04
-21.61
-24.33
-32.07
-44.62
-60.61
-77.80
-93.78
-106.65
-115.45
-120.22
-121.70
-120.84
-118.45
-115.19
-111.89
-109.65
-109.71
-112.88
-118.88
-125.99
-131.54
-132.97
-128.94
-119.95
-108.11
-95.97
-85.39
-76.78
-69.14
-60.80
-50.43
-37.65
-23.17
-8.36
5.36
17.06
26.57
34.40
41.36
48.20
55.21
62.27
68.95
74.90
80.04
84.52
88.41
91.37
92.67
91.60
88.04
82.80
77.33
72.88
69.72
66.72
61.89
53.40
40.65
24.77
8.19
-6.21
-16.25
-21.12
-21.55
-19.32
-16.68
-15.48
-16.50
-19.24
-22.11
-23.20
-21.20
-16.15
-9.55
-3.80
-1.16
-2.78
-8.25
-15.82
-23.20
-28.35
-29.94
-27.36
-20.51
-9.56
4.98
22.02
39.67
55.48
66.96
72.56
72.37
68.19
62.76
58.66
57.22
58.27
60.40
61.83
61.09
57.18
49.41
37.15
19.95
-1.72
-25.95
-49.34
-68.00
-79.14
-82.49
-80.69
-78.05
-78.46
-83.48
-91.81
-100.36
-106.28
-108.82
-109.62
-111.46
-116.18
-123.26
-129.96
-132.78
-129.29
-119.16
-103.84
-85.28
-64.74
-42.53
-18.66
6.24
30.47
51.78
68.22
78.89
84.20
85.50
84.57
83.20
82.93
84.75
88.66
93.50
97.17
97.40
92.79
83.45
71.17
58.74
49.00
44.12
45.27
52.80
66.36
84.92
106.71
129.15
149.32
164.65
173.77
176.90
175.69
172.42
169.17
167.03
165.99
165.19
163.39
159.29
151.69
139.58
122.37
100.58
76.14
52.30
32.68
19.95
14.61
14.81
17.14
18.11
15.60
9.33
0.46
-9.32
-18.76
-27.49
-35.92
-44.85
-54.98
-66.67
-79.70
-93.21
-105.71
-115.33
-120.29
-119.37
-112.19
-99.32
-82.01
-61.88
-40.65
-20.15
-2.23
11.24
18.84
19.94
15.13
6.16
-4.50
-14.34
-21.47
-24.97
-24.76
-21.43
-16.00
-9.78
-4.34
-1.09
-0.96
-3.91
-8.96
-14.69
-19.91
-24.28
-28.36
-32.96
-38.48
-44.45
-49.69
-52.89
-53.21
-50.61
-45.63
-39.09
-31.79
-24.37
-17.36
-11.08
-5.59
-0.37
5.57
13.41
24.01
37.31
52.15
66.53
78.21
85.51
87.88
85.88
80.59
72.98
63.28
50.89
34.93
15.18
-7.49
-31.05
-52.95
-71.22
-85.18
-95.56
-103.95
-111.81
-119.65
-126.81
-132.01
-134.16
-133.26
-130.36
-127.10
-124.74
-123.35
-121.74
-118.16
-111.38
-101.74
-91.39
-83.64
-81.58
-86.59
-97.43
-110.58
-121.55
-126.53
-123.67
-113.44
-97.73
-78.69
-57.74
-35.30
-11.40
13.64
38.80
62.60
83.55
100.55
112.86
119.79
120.67
115.23
104.27
90.22
76.86
68.52
68.74
79.12
98.89
125.25
154.17
181.22
202.35
214.20
214.61
202.99
180.64
150.53
116.57
82.30
49.74
19.09
-10.75
-40.74
-70.41
-97.41
-118.17
-129.44
-130.05
-121.56
-107.69
-92.79
-80.08
-70.62
-63.55
-57.13
-49.97
-42.02
-34.41
-28.78
-26.22
-26.68
-28.90
-31.20
-32.41
-32.45
-32.33
-33.54
-37.17
-43.57
-52.18
-62.04
-72.21
-82.00
-90.88
-98.35
-103.90
-107.34
-109.09
-110.16
-111.82
-115.06
-120.20
-126.87
-134.43
-142.20
-149.78
-156.86
-163.04
-167.86
-170.67
-170.95
-168.43
-163.40
-156.64
-149.36
-142.78
-137.59
-133.52
-129.27
-122.86
-112.55
-97.50
-78.18
-56.24
-33.81
-12.84
5.33
20.23
32.09
41.66
49.80
57.32
64.73
72.35
80.32
88.80
97.99
107.95
118.19
127.44
133.91
135.94
132.80
125.22
115.18
105.22
97.62
93.82
94.25
98.53
105.62
114.03
121.89
127.34
128.99
126.29
119.83
110.90
100.88
90.43
79.25
66.47
51.44
34.41
16.61
-0.03
-13.60
-22.67
-26.55
-25.31
-19.70
-11.20
-1.91
5.84
10.17
10.41
7.41
3.36
0.88
1.90
6.97
15.22
25.05
34.90
43.96
52.02
59.29
66.02
72.30
78.13
83.64
88.92
93.82
97.74
99.53
97.70
91.03
79.08
62.63
43.50
24.09
6.49
-8.23
-20.38
-31.48
-43.51
-58.00
-75.21
-93.90
-111.62
-125.49
-133.06
-132.80
-124.48
-109.12
-88.87
-66.64
-45.55
-27.98
-14.78
-4.77
4.80
17.02
33.82
54.98
78.12
99.80
117.08
128.65
135.05
137.88
138.68
138.30
136.77
133.83
129.28
123.20
115.64
106.31
94.59
79.93
62.43
43.10
23.55
5.35
-10.66
-24.86
-38.46
-52.96
-69.50
-88.39
-109.09
-130.23
-149.85
-165.79
-176.17
-179.85
-176.84
-168.22
-155.70
-140.96
-125.16
-108.83
-92.18
-75.61
-59.89
-46.10
-35.09
-27.17
-21.90
-18.39
-15.69
-13.21
-10.89
-9.02
-7.94
-7.75
-8.16
-8.51
-8.02
-6.04
-2.28
3.14
9.71
16.74
23.55
29.54
34.25
37.32
38.35
36.87
32.38
24.41
12.75
-2.31
-19.81
-38.10
-55.01
-68.33
-76.24
-77.78
-73.10
-63.37
-50.50
-36.64
-23.63
-12.72
-4.34
1.56
5.07
5.87
3.22
-3.64
-14.64
-28.45
-42.46
-53.64
-59.58
-59.38
-53.51
-43.26
-29.76
-13.66
4.62
24.23
43.48
59.96
71.37
76.36
74.97
68.44
58.70
47.51
36.19
25.45
15.50
6.30
-2.43
-11.25
-20.87
-32.00
-44.74
-58.28
-70.72
-79.46
-82.11
-77.40
-65.81
-49.38
-30.97
-13.21
2.42
15.81
27.93
40.06
52.99
66.61
79.99
91.97
101.69
109.04
114.42
118.22
120.34
119.94
116.02
108.20
97.32
85.36
74.55
66.21
59.99
53.90
45.28
32.12
14.09
-7.11
-28.21
-45.59
-56.45
-59.76
-56.49
-49.08
-40.56
-33.67
-30.17
-30.71
-34.98
-41.76
-49.21
-55.15
-57.54
-55.05
-47.47
-35.82
-21.90
-7.59
5.74
17.43
27.46
36.14
43.90
51.19
58.41
65.75
72.93
79.02
82.59
82.07
76.30
65.02
49.31
31.64
15.39
3.95
-0.51
1.96
8.85
15.92
18.70
14.04
1.20
-18.15
-40.87
-63.56
-83.64
-99.97
-112.94
-124.23
-136.41
-151.99
-172.40
-197.12
-223.61
-248.15
-267.15
-278.15
-280.01
-272.36
-255.03
-228.28
-193.87
-155.95
-120.74
-94.59
-81.21
-80.03
-86.70
-95.73
-103.22
-108.27
-111.99
-115.45
-118.05
-117.69
-112.43
-102.13
-88.71
-74.93
-62.31
-50.24
-36.48
-19.11
1.75
23.48
41.94
53.49
56.58
52.25
43.57
34.17
26.87
22.96
22.23
23.78
26.90
31.66
38.74
48.77
61.74
76.78
92.59
108.38
124.54
142.77
165.26
193.10
224.90
256.20
280.39
290.92
284.21
261.49
228.85
195.19
168.64
153.48
148.51
147.92
144.05
130.79
106.09
72.79
37.31
7.25
-11.30
-15.53
-6.45
12.17
35.49
59.35
81.04
99.34
113.71
123.73
128.99
129.57
126.57
122.13
118.70
117.96
120.12
123.85
127.25
128.99
128.85
127.78
127.04
127.33
128.31
128.83
127.65
123.88
117.13
107.22
94.00
77.26
57.33
35.48
14.07
-4.05
-16.51
-22.41
-22.44
-18.32
-11.85
-4.15
4.33
13.35
22.11
29.08
32.50
31.15
24.90
14.59
1.53
-13.14
-28.52
-43.86
-58.24
-70.57
-80.14
-87.19
-93.08
-99.71
-108.38
-118.70
-128.48
-134.72
-135.21
-129.86
-121.05
-112.49
-107.52
-107.76
-112.64
-120.22
-128.42
-136.05
-142.73
-147.98
-150.27
-147.09
-135.92
-115.96
-89.06
-59.38
-31.74
-9.50
6.78
19.11
30.54
43.16
56.78
68.96
76.31
76.12
67.53
51.84
31.74
10.31
-9.89
-27.23
-40.88
-50.52
-55.88
-56.70
-52.93
-44.98
-33.87
-21.20
-8.74
2.03
10.29
16.00
19.58
21.53
22.10
21.27
19.24
16.91
16.31
20.29
31.67
52.15
81.42
116.93
154.48
189.40
217.73
237.06
246.75
247.55
240.92
228.39
211.08
189.56
164.11
135.12
103.52
71.00
39.73
11.85
-11.26
-29.29
-42.91
-53.17
-60.68
-65.21
-65.86
-61.55
-51.82
-37.29
-19.67
-1.38
15.00
27.34
34.35
35.99
33.54
29.45
26.73
28.01
34.57
45.67
58.44
68.61
71.67
64.25
45.12
15.71
-20.36
-58.24
-93.25
-122.15
-143.59
-157.93
-166.30
-169.80
-169.06
-164.52
-157.07
-148.50
-141.32
-138.15
-140.90
-150.25
-165.58
-184.81
-204.46
-219.81
-225.58
-217.30
-192.88
-153.95
-105.87
-56.34
-12.83
19.95
41.39
54.47
63.75
73.07
84.35
97.88
113.66
132.39
155.28
182.77
213.13
242.26
265.21
278.54
282.19
279.41
274.70
271.21
269.36
267.30
262.84
255.34
246.22
237.85
232.10
229.36
228.83
229.43
230.53
231.71
232.06
229.57
221.61
206.28
183.74
156.43
128.03
101.58
78.17
56.90
36.13
14.96
-5.99
-25.36
-42.54
-58.93
-77.90
-103.36
-137.68
-180.36
-227.85
-274.75
-315.48
-345.71
-363.21
-367.94
-361.69
-347.52
-329.06
-309.73
-291.96
-276.76
-263.58
-250.83
-236.88
-221.04
-204.03
-187.83
-174.88
-167.06
-165.04
-167.99
-174.06
-181.32
-188.69
-196.50
-206.12
-218.95
-235.17
-253.08
-269.50
-281.02
-285.59
-283.12
-274.84
-261.89
-244.02
-219.59
-186.99
-146.32
-100.24
-52.95
-8.11
32.91
71.13
108.36
144.86
178.26
204.25
218.82
220.56
211.65
196.95
182.10
171.61
167.98
171.74
181.88
196.27
211.83
224.76
231.25
228.64
216.26
195.75
170.44
144.30
120.64
101.32
86.59
75.33
65.65
55.51
43.25
28.17
10.62
-8.04
-25.93
-41.24
-52.68
-59.56
-61.66
-59.04
-52.18
-42.10
-30.50
-19.34
-10.16
-3.38
1.70
6.40
11.62
17.11
21.42
22.67
19.75
13.15
4.90
-2.31
-6.40
-6.69
-3.93
0.48
5.55
11.15
17.86
26.20
35.98
46.22
55.71
63.71
70.45
76.87
83.88
91.60
99.10
104.79
107.13
105.39
100.02
92.39
84.26
77.18
71.99
68.73
66.92
65.96
65.55
65.78
67.09
69.90
74.32
80.00
86.07
91.35
94.54
94.64
91.25
84.79
76.43
67.57
59.21
51.33
43.04
33.20
21.21
7.67
-5.97
-18.08
-27.89
-35.82
-43.19
-51.29
-60.58
-70.31
-78.98
-85.15
-88.28
-89.03
-88.94
-89.72
-92.51
-97.46
-103.76
-109.97
-114.58
-116.37
-114.73
-109.70
-101.89
-92.34
-82.19
-72.46
-63.69
-55.92
-48.89
-42.30
-36.30
-31.57
-29.20
-30.22
-35.04
-43.04
-52.72
-62.00
-68.95
-72.29
-71.67
-67.58
-61.05
-53.27
-45.30
-37.97
-31.84
-27.28
-24.48
-23.43
-23.93
-25.55
-27.72
-29.90
-31.78
-33.48
-35.54
-38.78
-43.76
-50.43
-57.80
-64.16
-67.56
-66.55
-60.65
-50.54
-37.89
-24.67
-12.76
-3.36
3.06
6.79
8.70
10.00
11.96
15.66
21.71
30.09
40.04
50.17
58.62
63.57
63.76
58.99
50.26
39.57
29.16
20.68
14.61
10.26
6.23
1.31
-4.85
-11.65
-17.84
-22.21
-24.21
-24.09
-22.72
-21.14
-20.17
-20.14
-20.91
-21.84
-21.99
-20.27
-15.80
-8.18
2.25
14.38
26.72
37.77
46.59
52.94
57.23
60.12
62.19
63.73
64.75
65.23
65.17
64.63
63.56
61.69
58.58
53.87
47.52
40.00
32.16
24.82
18.46
12.98
7.89
2.56
-3.54
-10.61
-18.58
-27.16
-35.90
-44.25
-51.66
-57.90
-63.15
-68.11
-73.73
-80.76
-89.46
-99.40
-109.59
-118.68
-125.23
-127.88
-125.59
-117.87
-104.93
-87.79
-68.04
-47.43
-27.45
-9.10
7.14
21.05
32.45
41.11
46.87
49.81
50.46
49.69
48.55
47.91
48.28
49.58
51.35
52.92
53.72
53.47
52.21
50.11
47.39
44.09
40.11
35.33
29.66
23.22
16.26
9.17
2.28
-4.21
-10.37
-16.47
-22.94
-30.19
-38.53
-48.02
-58.45
-69.23
-79.33
-87.43
-92.07
-92.08
-87.05
-77.55
-65.08
-51.70
-39.38
-29.55
-22.81
-19.06
-17.81
-18.45
-20.53
-23.72
-27.87
-32.77
-38.15
-43.71
-49.06
-53.81
-57.69
-60.46
-61.94
-61.91
-60.06
-56.01
-49.43
-40.11
-28.08
-13.48
3.53
22.95
44.86
69.17
95.16
121.17
144.56
162.27
171.74
171.97
164.11
151.36
137.98
128.09
124.36
127.52
136.42
148.77
161.96
173.68
182.19
186.35
185.62
180.05
170.43
158.26
145.40
133.56
123.72
115.93
109.48
103.66
98.43
94.66
93.76
96.83
103.96
114.05
125.28
135.90
144.81
151.60
155.97
157.21
153.92
144.23
126.38
99.53
64.29
23.09
-19.97
-59.72
-90.94
-109.67
-114.47
-106.96
-91.42
-73.40
-58.09
-48.86
-46.58
-49.83
-55.76
-61.15
-63.26
-60.52
-52.99
-42.51
-32.61
-27.83
-32.20
-47.70
-72.84
-102.84
-131.43
-153.65
-168.07
-177.00
-184.25
-191.46
-195.58
-189.47
-165.53
-120.90
-60.99
1.03
48.77
69.01
56.81
16.84
-39.04
-96.12
-140.99
-163.89
-159.82
-128.91
-76.79
-14.38
43.68
82.31
90.78
66.79
18.04
-40.12
-90.15
-118.94
-122.42
-106.41
-83.23
-65.81
-62.41
-73.83
-94.43
-115.73
-130.55
-135.43
-130.71
-118.76
-101.83
-81.22
-57.59
-31.91
-6.17
17.10
35.78
49.25
58.60
65.80
72.36
78.25
82.08
81.82
75.88
63.74
45.97
24.12
1.04
-18.67
-29.02
-24.55
-3.53
29.54
64.04
86.73
87.48
63.99
22.79
-24.10
-65.04
-93.69
-110.26
-119.27
-125.47
-130.81
-134.08
-132.56
-124.21
-108.82
-87.62
-61.72
-30.74
7.40
55.34
113.87
179.85
245.58
300.47
334.40
341.42
321.85
281.73
229.72
173.35
116.85
61.45
7.65
-42.47
-84.77
-114.94
-131.15
-135.52
-133.20
-129.42
-126.65
-123.78
-117.61
-105.73
-88.73
-70.24
-54.97
-46.08
-43.59
-44.77
-45.95
-44.53
-39.96
-33.62
-27.59
-23.64
-22.63
-24.59
-29.13
-35.68
-43.68
-52.44
-61.02
-68.07
-71.87
-70.74
-63.46
-49.84
-30.99
-9.17
12.71
31.94
46.58
56.00
60.69
62.01
61.66
61.19
61.64
63.47
66.47
70.02
73.38
75.96
77.50
78.05
77.71
76.32
73.41
68.35
60.70
50.72
39.38
28.08
18.13
10.12
3.83
-1.62
-7.19
-13.48
-20.53
-27.96
-35.20
-41.73
-47.02
-50.48
-51.40
-49.21
-43.75
-35.55
-25.76
-15.82
-6.94
0.27
5.82
10.09
13.46
16.01
17.61
18.02
17.17
15.30
12.86
10.33
8.05
6.14
4.55
3.22
2.20
1.55
1.32
1.32
1.11
0.10
-2.18
-5.86
-10.62
-15.76
-20.54
-24.44
-27.42
-29.96
-32.90
-37.16
-43.31
-51.34
-60.40
-68.91
-74.87
-76.44
-72.53
-63.20
-49.71
-34.15
-18.79
-5.50
4.68
11.56
15.57
17.50
18.21
18.52
19.17
20.70
23.34
26.96
31.11
35.29
39.14
42.57
45.70
48.57
50.94
52.29
51.87
49.11
43.87
36.56
28.07
19.45
11.57
4.93
-0.53
-5.37
-10.50
-16.81
-24.82
-34.30
-44.17
-52.58
-57.50
-57.34
-51.53
-40.82
-26.94
-12.10
1.69
13.12
21.74
27.78
31.74
34.13
35.27
35.39
34.65
33.28
31.53
29.65
27.77
25.91
24.04
22.16
20.40
18.92
17.87
17.16
16.42
15.06
12.47
8.27
2.41
-4.76
-12.60
-20.39
-27.48
-33.57
-38.75
-43.52
-48.62
-54.69
-61.88
-69.53
-76.15
-79.78
-78.67
-71.87
-59.70
-43.59
-25.70
-8.16
7.42
20.18
29.92
36.78
41.04
42.99
42.91
41.25
38.61
35.89
34.00
33.72
35.47
39.12
43.99
49.11
53.53
56.69
58.62
59.78
60.81
62.03
63.16
63.42
61.77
57.47
50.36
41.00
30.46
19.92
10.33
2.20
-4.44
-9.97
-14.98
-20.25
-26.53
-34.32
-43.56
-53.42
-62.28
-68.08
-68.95
-63.85
-53.01
-37.80
-20.42
-3.17
12.09
24.28
33.11
38.81
41.89
42.94
42.58
41.41
39.96
38.71
37.91
37.53
37.29
36.77
35.60
33.56
30.72
27.29
23.53
19.64
15.61
11.33
6.69
1.64
-3.67
-8.92
-13.80
-18.10
-21.85
-25.37
-29.13
-33.65
-39.28
-45.97
-53.09
-59.48
-63.62
-64.02
-59.75
-50.81
-38.24
-23.80
-9.45
3.27
13.54
21.26
26.77
30.50
32.73
33.64
33.44
32.47
31.19
30.06
29.34
29.15
29.43
30.07
30.95
32.00
33.05
33.89
34.28
33.99
32.90
31.02
28.48
25.54
22.46
19.52
16.88
14.58
12.47
10.30
7.89
5.33
3.15
2.17
3.24
6.83
12.88
20.81
30.01
40.18
51.35
63.72
77.14
90.97
104.28
116.32
126.87
136.09
143.94
149.67
151.77
148.63
139.49
125.10
107.42
88.56
69.64
50.34
29.57
6.67
-17.72
-41.79
-63.61
-82.42
-98.98
-114.76
-130.42
-144.83
-155.49
-159.98
-157.77
-150.67
-141.88
-134.20
-128.77
-125.13
-122.42
-120.48
-119.99
-121.70
-125.28
-128.99
-130.86
-130.16
-128.32
-127.87
-130.46
-135.20
-138.80
-137.39
-129.10
-115.41
-100.47
-88.86
-83.18
-82.99
-85.65
-88.13
-88.45
-85.89
-80.09
-69.85
-53.00
-27.64
6.14
45.24
84.27
117.67
141.99
157.31
166.84
174.61
183.10
191.80
197.56
196.42
185.71
165.42
138.32
108.83
81.43
59.43
44.22
35.50
31.62
30.44
30.04
29.24
27.76
25.98
24.40
23.30
22.60
22.04
21.50
21.08
21.10
21.75
22.76
23.50
23.24
21.47
18.23
14.03
9.54
5.24
1.09
-3.34
-8.59
-14.90
-22.04
-29.34
-36.04
-41.62
-46.09
-49.99
-54.14
-59.35
-66.10
-74.24
-82.94
-90.75
-95.91
-96.85
-92.63
-83.31
-69.82
-53.69
-36.45
-19.36
-3.28
11.16
23.26
32.34
37.80
39.53
38.02
34.35
29.90
25.96
23.40
22.49
22.96
24.15
25.23
25.47
24.40
21.94
18.37
14.16
9.80
5.59
1.52
-2.68
-7.47
-13.34
-20.73
-29.83
-40.42
-51.71
-62.25
-70.18
-73.66
-71.48
-63.48
-50.71
-35.07
-18.81
-3.82
8.71
18.40
25.45
30.36
33.59
35.51
36.35
36.28
35.42
33.93
31.94
29.56
26.97
24.34
21.92
19.91
18.42
17.40
16.60
15.57
13.83
10.99
6.89
1.67
-4.30
-10.45
-16.29
-21.53
-26.28
-31.04
-36.52
-43.39
-51.80
-61.07
-69.63
-75.42
-76.41
-71.42
-60.53
-45.09
-27.31
-9.52
6.45
19.63
29.83
37.38
42.75
46.33
48.38
49.14
48.87
47.87
46.47
44.90
43.31
41.75
40.25
38.83
37.51
36.24
34.92
33.36
31.33
28.68
25.37
21.52
17.38
13.13
8.84
4.37
-0.46
-5.88
-11.83
-18.07
-24.18
-29.79
-34.75
-39.21
-43.61
-48.52
-54.46
-61.69
-70.06
-78.72
-86.19
-90.53
-89.86
-83.05
-70.22
-52.84
-33.27
-14.03
2.99
16.90
27.74
35.99
42.17
46.59
49.37
50.65
50.74
50.11
49.23
48.40
47.69
46.98
46.07
44.89
43.53
42.25
41.32
40.88
40.77
40.51
39.49
37.14
33.23
28.00
22.06
16.13
10.76
6.11
1.93
-2.23
-6.77
-11.80
-17.10
-22.23
-26.74
-30.42
-33.43
-36.27
-39.59
-44.01
-49.90
-57.23
-65.38
-73.13
-78.78
-80.50
-76.79
-67.10
-52.15
-33.77
-14.48
3.34
18.08
29.15
36.84
41.90
45.07
46.89
47.72
47.84
47.55
47.08
46.61
46.12
45.51
44.60
43.31
41.69
39.91
38.23
36.83
35.78
34.93
33.92
32.24
29.51
25.64
20.92
16.01
11.58
8.12
5.64
3.72
1.70
-1.03
-4.76
-9.40
-14.51
-19.54
-24.07
-27.90
-31.14
-34.11
-37.26
-41.09
-45.98
-52.12
-59.29
-66.68
-72.86
-76.08
-74.79
-68.17
-56.55
-41.40
-24.81
-8.90
4.79
15.51
23.25
28.39
31.45
32.98
33.45
33.29
32.85
32.33
31.82
31.30
30.75
30.17
29.56
28.94
28.29
27.62
26.95
26.39
26.01
25.72
25.21
24.09
22.00
18.87
14.94
10.76
6.86
3.52
0.67
-2.07
-5.14
-8.83
-13.08
-17.58
-21.92
-25.73
-28.87
-31.39
-33.54
-35.70
-38.30
-41.78
-46.47
-52.36
-58.93
-65.09
-69.34
-70.14
-66.42
-57.99
-45.69
-31.15
-16.32
-2.88
8.15
16.47
22.33
26.21
28.50
29.48
29.29
28.14
26.36
24.35
22.50
21.12
20.37
20.25
20.65
21.33
21.94
22.12
21.69
20.69
19.38
18.09
17.02
16.06
14.87
13.00
10.23
6.65
2.69
-1.13
-4.46
-7.30
-9.89
-12.60
-15.61
-18.88
-22.16
-25.15
-27.73
-29.97
-32.11
-34.42
-37.10
-40.29
-44.06
-48.45
-53.38
-58.41
-62.70
-65.03
-64.13
-59.13
-49.95
-37.49
-23.35
-9.44
2.66
12.01
18.44
22.35
24.30
24.78
24.09
22.45
20.11
17.46
14.99
13.16
12.17
11.99
12.33
12.88
13.42
13.91
14.40
14.89
15.23
15.08
14.14
12.25
9.53
6.38
3.31
0.65
-1.58
-3.66
-6.06
-9.15
-12.98
-17.29
-21.63
-25.57
-28.91
-31.79
-34.61
-37.94
-42.22
-47.57
-53.62
-59.39
-63.54
-64.62
-61.58
-54.10
-42.81
-29.11
-14.77
-1.41
9.87
18.56
24.71
28.61
30.66
31.19
30.60
29.30
27.68
26.12
24.83
23.85
23.14
22.64
22.36
22.31
22.41
22.47
22.21
21.36
19.83
17.68
15.13
12.36
9.47
6.44
3.21
-0.26
-3.97
-7.85
-11.86
-15.94
-20.02
-24.03
-27.92
-31.66
-35.33
-39.14
-43.45
-48.61
-54.80
-61.71
-68.38
-73.33
-74.88
-71.81
-63.85
-51.82
-37.40
-22.56
-9.00
2.29
11.06
17.52
22.14
25.30
27.29
28.28
28.46
28.04
27.31
26.56
26.05
25.94
26.19
26.69
27.23
27.65
27.82
27.64
26.97
25.65
23.55
20.61
17.05
13.18
9.38
5.87
2.63
-0.60
-4.14
-8.23
-12.88
-17.89
-22.99
-27.91
-32.56
-36.98
-41.45
-46.34
-52.07
-58.81
-66.20
-73.18
-78.08
-79.07
-74.86
-65.25
-51.30
-34.94
-18.38
-3.35
9.16
18.95
26.27
31.57
35.22
37.58
38.96
39.72
40.13
40.40
40.58
40.66
40.58
40.34
39.97
39.57
39.24
39.04
38.95
38.82
38.40
37.36
35.58
33.04
29.96
26.61
23.18
19.72
16.09
12.07
7.56
2.58
-2.65
-7.81
-12.62
-16.94
-20.90
-24.89
-29.47
-35.26
-42.64
-51.52
-61.11
-69.92
-76.04
-77.66
-73.64
-63.94
-49.66
-32.77
-15.43
0.52
13.97
24.55
32.42
38.01
41.75
44.11
45.51
46.37
47.02
47.66
48.32
48.89
49.17
48.99
48.27
47.08
45.68
44.46
43.79
43.77
44.15
44.33
43.58
41.42
37.83
33.29
28.52
24.14
20.38
17.04
13.71
10.02
5.88
1.40
-3.20
-7.69
-11.93
-15.78
-19.15
-22.07
-24.83
-27.98
-32.09
-37.39
-43.35
-48.63
-51.49
-50.40
-44.79
-35.28
-23.54
-11.60
-1.17
6.88
12.46
15.96
17.83
18.35
17.69
16.12
14.19
12.75
12.70
14.65
18.69
24.29
30.48
36.18
40.52
43.01
43.62
42.62
40.39
37.29
33.51
29.13
24.18
18.77
13.12
7.60
2.54
-1.85
-5.60
-8.90
-12.04
-15.30
-18.83
-22.78
-27.28
-32.50
-38.64
-45.69
-53.24
-60.32
-65.53
-67.37
-64.78
-57.56
-46.51
-33.29
-19.80
-7.68
2.14
9.47
14.65
18.27
20.81
22.59
23.80
24.69
25.55
26.79
28.79
31.77
35.72
40.34
45.13
49.52
52.97
55.08
55.63
54.56
51.98
48.13
43.36
38.03
32.44
26.73
20.92
14.92
8.74
2.49
-3.57
-9.12
-13.92
-18.07
-21.88
-25.90
-30.69
-36.67
-43.95
-52.18
-60.46
-67.45
-71.59
-71.48
-66.35
-56.36
-42.62
-26.95
-11.28
2.72
14.13
22.74
28.98
33.53
37.04
39.89
42.17
43.72
44.35
44.03
42.94
41.44
39.91
38.61
37.57
36.65
35.67
34.47
33.03
31.38
29.57
27.59
25.38
22.77
19.60
15.73
11.19
6.15
0.96
-4.04
-8.63
-12.80
-16.72
-20.67
-24.93
-29.75
-35.36
-42.01
-49.73
-58.05
-65.86
-71.42
-72.88
-68.98
-59.54
-45.71
-29.50
-13.14
1.59
13.71
23.04
29.86
34.66
37.91
40.03
41.34
42.07
42.36
42.24
41.78
41.04
40.24
39.56
39.13
38.98
38.99
38.99
38.83
38.35
37.39
35.76
33.24
29.76
25.45
20.65
15.74
11.06
6.70
2.54
-1.67
-6.11
-10.85
-15.70
-20.44
-24.89
-29.03
-33.13
-37.60
-42.96
-49.55
-57.35
-65.73
-73.42
-78.66
-79.70
-75.31
-65.31
-50.73
-33.49
-15.87
0.13
13.27
23.19
30.23
35.03
38.28
40.51
42.08
43.21
44.06
44.74
45.24
45.51
45.42
44.87
43.84
42.46
40.98
39.64
38.64
37.96
37.32
36.30
34.41
31.31
27.02
21.87
16.54
11.68
7.66
4.37
1.30
-2.23
-6.66
-11.91
-17.48
-22.66
-26.97
-30.34
-33.16
-36.12
-39.89
-45.01
-51.66
-59.55
-67.82
-74.99
-79.23
-78.83
-72.78
-61.21
-45.52
-27.89
-10.67
4.32
16.20
24.92
31.04
35.26
38.23
40.36
41.91
43.01
43.73
44.10
44.11
43.71
42.85
41.54
39.87
38.08
36.46
35.27
34.61
34.31
33.98
33.05
31.06
27.82
23.59
18.93
14.53
10.85
7.94
5.41
2.67
-0.79
-5.14
-10.18
-15.47
-20.58
-25.19
-29.27
-32.96
-36.57
-40.52
-45.23
-51.07
-58.04
-65.51
-72.17
-76.21
-75.85
-70.03
-58.90
-43.90
-27.24
-11.25
2.40
13.00
20.70
26.12
29.85
32.22
33.36
33.41
32.69
31.67
30.79
30.26
30.02
29.82
29.44
28.87
28.32
28.02
28.01
28.08
27.80
26.74
24.64
21.60
17.95
14.14
10.52
7.25
4.20
1.11
-2.28
-6.15
-10.44
-14.95
-19.35
-23.33
-26.80
-29.94
-33.22
-37.22
-42.43
-48.86
-55.91
-62.29
-66.32
-66.42
-61.59
-51.89
-38.41
-22.97
-7.57
6.15
17.26
25.57
31.34
35.05
37.07
37.66
37.03
35.50
33.49
31.50
29.89
28.84
28.22
27.84
27.51
27.24
27.11
27.20
27.43
27.49
26.95
25.44
22.81
19.22
15.07
10.84
6.93
3.47
0.28
-2.99
-6.78
-11.31
-16.52
-22.06
-27.40
-32.11
-36.09
-39.53
-42.92
-46.87
-51.89
-58.18
-65.47
-72.79
-78.55
-80.85
-78.08
-69.55
-55.89
-38.94
-21.14
-4.75
8.81
19.11
26.49
31.60
35.07
37.30
38.56
39.11
39.18
39.04
38.84
38.68
38.50
38.16
37.52
36.50
35.13
33.63
32.27
31.25
30.51
29.72
28.33
25.91
22.28
17.73
12.84
8.24
4.27
0.92
-2.21
-5.61
-9.66
-14.39
-19.52
-24.58
-29.17
-33.07
-36.39
-39.50
-42.96
-47.34
-53.00
-59.95
-67.68
-75.11
-80.66
-82.62
-79.61
-71.07
-57.60
-40.84
-23.04
-6.38
7.63
18.39
26.12
31.50
35.26
37.87
39.54
40.31
40.27
39.65
38.75
37.86
37.07
36.37
35.61
34.68
33.63
32.66
31.98
31.68
31.53
31.06
29.69
27.03
23.07
18.23
13.18
8.63
4.97
2.15
-0.31
-3.10
-6.80
-11.65
-17.37
-23.37
-28.95
-33.62
-37.27
-40.24
-43.15
-46.69
-51.47
-57.71
-65.18
-72.92
-79.41
-82.78
-81.38
-74.35
-61.97
-45.70
-27.73
-10.27
5.01
17.22
26.27
32.54
36.58
38.96
40.13
40.43
40.15
39.51
38.72
37.91
37.14
36.41
35.66
34.83
33.96
33.16
32.60
32.34
32.29
32.11
31.33
29.48
26.35
22.07
17.08
11.99
7.32
3.33
-0.10
-3.32
-6.73
-10.52
-14.57
-18.56
-22.18
-25.36
-28.39
-31.80
-36.12
-41.71
-48.55
-56.17
-63.67
-69.79
-73.10
-72.28
-66.52
-55.87
-41.38
-24.88
-8.49
5.97
17.41
25.57
30.86
33.92
35.38
35.69
35.22
34.26
33.16
32.23
31.69
31.62
31.93
32.50
33.14
33.67
33.88
33.62
32.76
31.30
29.31
26.94
24.29
21.44
18.38
15.04
11.34
7.14
2.37
-2.93
-8.51
-14.04
-19.11
-23.50
-27.33
-30.97
-35.04
-40.06
-46.34
-53.71
-61.52
-68.58
-73.33
-74.17
-69.89
-60.22
-45.95
-28.90
-11.42
4.35
17.00
26.09
32.00
35.57
37.61
38.70
39.11
38.92
38.22
37.18
36.07
35.16
34.65
34.61
34.94
35.44
35.82
35.78
35.12
33.71
31.55
28.73
25.38
21.63
17.59
13.38
9.06
4.67
0.20
-4.40
-9.19
-14.17
-19.22
-24.13
-28.69
-32.79
-36.61
-40.59
-45.30
-51.23
-58.43
-66.25
-73.29
-77.70
-77.66
-72.02
-60.80
-45.26
-27.53
-9.98
5.43
17.59
26.31
32.08
35.73
38.06
39.70
41.00
42.14
43.14
43.93
44.40
44.44
44.01
43.13
41.94
40.63
39.42
38.43
37.61
36.77
35.58
33.72
30.98
27.38
23.16
18.66
14.18
9.88
5.69
1.43
-3.12
-8.04
-13.25
-18.50
-23.52
-28.14
-32.37
-36.50
-40.99
-46.38
-53.07
-61.02
-69.53
-77.18
-82.04
-82.28
-76.78
-65.58
-50.00
-32.20
-14.51
1.23
14.05
23.78
30.79
35.59
38.70
40.54
41.53
42.03
42.37
42.74
43.13
43.42
43.44
43.07
42.28
41.17
39.88
38.57
37.37
36.30
35.21
33.80
31.73
28.76
24.92
20.57
16.24
12.43
9.32
6.68
3.97
0.62
-3.73
-9.02
-14.83
-20.61
-25.81
-30.19
-33.79
-36.98
-40.37
-44.71
-50.61
-58.27
-67.18
-75.91
-82.43
-84.64
-81.11
-71.59
-57.21
-40.00
-22.30
-6.03
7.63
18.27
26.05
31.38
34.75
36.64
37.50
37.78
37.88
38.09
38.55
39.19
39.83
40.23
40.22
39.85
39.31
38.87
38.65
38.49
37.94
36.49
33.76
29.71
24.73
19.42
14.39
10.04
6.48
3.50
0.66
-2.46
-6.21
-10.64
-15.53
-20.48
-25.02
-28.90
-32.14
-35.10
-38.34
-42.50
-48.05
-55.00
-62.76
-70.01
-74.96
-75.75
-71.10
-60.84
-46.11
-28.96
-11.80
3.42
15.62
24.64
30.97
35.26
38.01
39.49
39.84
39.28
38.17
37.00
36.23
36.08
36.47
37.09
37.56
37.64
37.33
36.74
36.00
35.06
33.67
31.51
28.38
24.39
19.89
15.38
11.24
7.61
4.31
0.97
-2.81
-7.28
-12.43
-18.01
-23.54
-28.56
-32.78
-36.17
-39.09
-42.20
-46.32
-52.09
-59.63
-68.21
-76.19
-81.38
-81.64
-75.73
-63.78
-47.35
-28.92
-11.05
4.37
16.51
25.43
31.75
36.15
39.11
40.88
41.71
41.87
41.74
41.67
41.85
42.20
42.44
42.26
41.46
40.16
38.71
37.52
36.82
36.45
35.89
34.48
31.77
27.75
22.90
17.91
13.40
9.58
6.25
2.91
-0.92
-5.47
-10.64
-16.08
-21.34
-26.09
-30.24
-33.97
-37.64
-41.74
-46.78
-53.10
-60.63
-68.80
-76.33
-81.50
-82.54
-78.17
-68.16
-53.49
-36.11
-18.33
-2.20
11.05
21.11
28.33
33.35
36.72
38.81
39.84
40.03
39.59
38.82
37.92
36.98
36.03
35.09
34.26
33.69
33.54
33.85
34.46
35.02
35.08
34.26
32.32
29.32
25.57
21.51
17.54
13.79
10.16
6.28
1.79
-3.46
-9.35
-15.53
-21.60
-27.24
-32.35
-36.98
-41.37
-45.90
-51.02
-57.15
-64.29
-71.75
-78.07
-81.25
-79.42
-71.60
-58.20
-40.98
-22.50
-5.23
9.11
19.92
27.49
32.56
35.78
37.53
37.90
36.96
35.02
32.63
30.43
28.86
28.03
27.70
27.49
27.07
26.32
25.33
24.28
23.30
22.37
21.34
19.90
17.69
14.37
9.79
4.11
-2.24
-8.59
-14.34
-19.11
-22.99
-26.42
-30.06
-34.56
-40.39
-47.64
-55.89
-64.12
-70.76
-74.01
-72.30
-64.90
-52.26
-35.95
-18.27
-1.52
12.58
23.24
30.54
35.08
37.58
38.63
38.61
37.75
36.30
34.58
32.90
31.52
30.51
29.71
28.84
27.67
26.15
24.45
22.88
21.65
20.70
19.62
17.82
14.73
10.09
4.09
-2.70
-9.56
-15.84
-21.19
-25.66
-29.64
-33.82
-38.97
-45.69
-54.08
-63.50
-72.50
-79.07
-81.18
-77.47
-67.73
-53.10
-35.67
-17.91
-1.88
11.18
20.96
27.84
32.48
35.54
37.46
38.52
38.91
38.82
38.42
37.87
37.18
36.25
34.95
33.17
30.96
28.56
26.24
24.18
22.28
20.17
17.34
13.37
8.14
1.92
-4.79
-11.39
-17.47
-22.89
-27.90
-33.08
-39.13
-46.61
-55.53
-65.13
-73.78
-79.33
-79.78
-73.96
-62.08
-45.71
-27.33
-9.51
5.75
17.49
25.79
31.39
35.25
38.09
40.22
41.57
41.88
40.98
38.98
36.23
33.25
30.50
28.25
26.51
25.01
23.40
21.32
18.52
14.96
10.76
6.16
1.42
-3.28
-7.96
-12.80
-18.12
-24.26
-31.50
-39.87
-48.94
-57.75
-64.76
-68.15
-66.37
-58.68
-45.60
-28.85
-10.88
5.89
19.78
30.17
37.41
42.34
45.85
48.45
50.30
51.28
51.22
50.05
47.84
44.84
41.42
38.03
35.08
32.80
31.13
29.69
27.89
25.20
21.33
16.35
10.66
4.71
-1.11
-6.70
-12.18
-17.90
-24.33
-31.91
-40.84
-50.83
-60.92
-69.44
-74.38
-74.02
-67.52
-55.34
-39.16
-21.36
-4.25
10.56
22.48
31.70
38.84
44.50
49.00
52.34
54.44
55.29
55.07
54.16
52.94
51.67
50.35
48.85
46.94
44.57
41.86
39.13
36.68
34.54
32.42
29.69
25.66
19.92
12.54
4.12
-4.43
-12.20
-18.65
-23.78
-28.14
-32.63
-38.16
-45.35
-54.26
-64.18
-73.68
-80.80
-83.56
-80.55
-71.46
-57.23
-39.87
-21.76
-4.95
9.37
20.97
30.25
37.73
43.66
47.96
50.39
50.90
49.81
47.77
45.47
43.43
41.75
40.27
38.71
36.92
34.96
33.06
31.43
30.14
28.97
27.46
25.07
21.35
16.17
9.78
2.83
-3.87
-9.62
-14.11
-17.57
-20.72
-24.47
-29.62
-36.51
-44.87
-53.79
-61.82
-67.27
-68.54
-64.58
-55.30
-41.69
-25.62
-9.28
5.46
17.57
26.93
34.02
39.44
43.48
46.05
46.93
46.06
43.79
40.87
38.18
36.40
35.73
35.88
36.23
36.13
35.16
33.34
30.98
28.52
26.19
23.90
21.18
17.49
12.46
6.15
-0.89
-7.86
-14.02
-18.98
-22.79
-25.88
-28.90
-32.48
-37.19
-43.39
-51.19
-60.18
-69.29
-76.80
-80.63
-79.06
-71.30
-57.98
-40.98
-22.85
-5.94
8.25
19.38
27.94
34.75
40.47
45.29
49.04
51.39
52.20
51.58
49.94
47.82
45.68
43.82
42.24
40.80
39.29
37.50
35.36
32.87
30.12
27.25
24.32
21.27
17.94
14.07
9.48
4.11
-1.81
-7.83
-13.45
-18.29
-22.31
-25.85
-29.46
-33.81
-39.37
-46.38
-54.70
-63.69
-72.21
-78.66
-81.25
-78.53
-69.95
-56.17
-39.00
-20.87
-4.06
9.92
20.63
28.50
34.41
39.20
43.36
46.95
49.77
51.50
51.93
51.05
49.06
46.33
43.33
40.49
38.15
36.45
35.35
34.59
33.71
32.23
29.75
26.18
21.67
16.66
11.61
6.88
2.56
-1.49
-5.52
-9.76
-14.32
-19.11
-23.95
-28.60
-32.91
-36.94
-40.95
-45.41
-50.82
-57.47
-65.17
-72.96
-79.26
-82.20
-80.20
-72.56
-59.78
-43.50
-25.99
-9.47
4.44
15.10
22.79
28.32
32.56
36.12
39.15
41.49
42.91
43.26
42.63
41.27
39.48
37.52
35.54
33.68
32.02
30.64
29.53
28.55
27.40
25.77
23.36
20.08
16.04
11.52
6.89
2.44
-1.72
-5.68
-9.71
-14.08
-18.84
-23.80
-28.57
-32.80
-36.41
-39.73
-43.39
-48.10
-54.24
-61.59
-69.26
-75.73
-79.23
-78.21
-71.83
-60.34
-45.05
-28.08
-11.63
2.51
13.46
21.24
26.42
29.78
31.90
33.08
33.46
33.13
32.26
31.11
29.99
29.12
28.54
28.16
27.77
27.16
26.19
24.90
23.38
21.71
19.84
17.60
14.75
11.11
6.70
1.73
-3.40
-8.29
-12.61
-16.24
-19.26
-21.94
-24.68
-27.87
-31.91
-37.07
-43.47
-50.89
-58.62
-65.45
-69.76
-70.01
-65.20
-55.34
-41.57
-25.82
-10.21
3.60
14.71
23.08
29.11
33.29
35.93
37.16
37.03
35.72
33.65
31.35
29.41
28.16
27.65
27.58
27.45
26.79
25.36
23.27
20.91
18.66
16.73
14.91
12.74
9.67
5.39
-0.03
-6.12
-12.23
-17.76
-22.39
-26.17
-29.44
-32.74
-36.65
-41.66
-48.04
-55.60
-63.58
-70.62
-74.97
-74.97
-69.61
-58.93
-44.15
-27.32
-10.67
3.97
15.64
24.17
29.96
33.60
35.63
36.49
36.51
36.00
35.20
34.32
33.45
32.60
31.77
30.89
29.92
28.79
27.45
25.89
24.12
22.19
20.12
17.80
15.00
11.44
6.91
1.42
-4.76
-11.13
-17.14
-22.37
-26.71
-30.36
-33.78
-37.59
-42.36
-48.56
-56.27
-65.03
-73.69
-80.47
-83.36
-80.70
-71.91
-57.77
-40.30
-22.13
-5.59
7.89
18.05
25.49
31.08
35.50
39.01
41.53
42.92
43.21
42.68
41.76
40.85
40.16
39.68
39.18
38.41
37.19
35.51
33.51
31.33
29.08
26.71
24.01
20.75
16.72
11.90
6.41
0.55
-5.33
-10.99
-16.25
-21.12
-25.73
-30.34
-35.25
-40.88
-47.60
-55.56
-64.46
-73.33
-80.57
-84.30
-82.92
-75.64
-62.87
-46.20
-27.89
-10.23
5.06
17.15
26.06
32.35
36.78
39.93
42.11
43.43
43.91
43.69
43.00
42.14
41.33
40.59
39.80
38.79
37.51
36.02
34.48
32.97
31.46
29.83
27.92
25.61
22.86
19.61
15.78
11.28
6.10
0.41
-5.48
-11.17
-16.32
-20.84
-24.91
-28.98
-33.63
-39.44
-46.74
-55.42
-64.71
-73.16
-78.87
-79.95
-75.22
-64.61
-49.31
-31.45
-13.46
2.62
15.59
25.22
31.94
36.44
39.31
40.91
41.35
40.72
39.23
37.26
35.24
33.57
32.37
31.52
30.70
29.59
28.08
26.31
24.59
23.16
22.02
20.85
19.10
16.25
12.06
6.72
0.81
-4.94
-9.94
-13.97
-17.28
-20.49
-24.35
-29.50
-36.22
-44.33
-53.13
-61.34
-67.26
-69.16
-65.72
-56.55
-42.48
-25.35
-7.52
8.87
22.40
32.52
39.41
43.54
45.37
45.25
43.51
40.61
37.23
34.09
31.75
30.44
29.98
29.87
29.52
28.54
26.90
24.88
22.94
21.43
20.31
19.10
17.08
13.59
8.38
1.77
-5.43
-12.28
-18.11
-22.72
-26.52
-30.26
-34.77
-40.67
-48.15
-56.85
-65.79
-73.44
-77.95
-77.66
-71.55
-59.73
-43.53
-25.12
-6.93
9.12
21.97
31.47
38.09
42.47
45.09
46.23
46.10
44.98
43.37
41.82
40.79
40.41
40.42
40.30
39.51
37.72
35.01
31.80
28.68
26.03
23.88
21.82
19.15
15.28
9.97
3.44
-3.72
-10.81
-17.27
-22.88
-27.73
-32.15
-36.61
-41.63
-47.70
-55.03
-63.35
-71.71
-78.46
-81.63
-79.54
-71.45
-57.87
-40.56
-21.94
-4.40
10.39
21.66
29.63
34.97
38.56
41.02
42.75
43.84
44.34
44.25
43.71
42.91
42.04
41.21
40.39
39.50
38.39
36.96
35.20
33.16
30.91
28.47
25.79
22.76
19.29
15.29
10.78
5.80
0.50
-4.89
-10.16
-15.10
-19.65
-23.96
-28.29
-33.02
-38.56
-45.23
-53.15
-61.95
-70.69
-77.84
-81.54
-80.15
-72.85
-59.99
-43.12
-24.57
-6.75
8.50
20.29
28.70
34.44
38.40
41.30
43.52
45.14
46.09
46.30
45.83
44.85
43.58
42.22
40.92
39.76
38.80
38.06
37.50
36.92
36.04
34.51
32.08
28.73
24.65
20.15
15.54
10.96
6.38
1.61
-3.50
-8.96
-14.61
-20.15
-25.27
-29.77
-33.68
-37.31
-41.26
-46.23
-52.77
-60.91
-69.87
-78.03
-83.22
-83.42
-77.39
-65.24
-48.49
-29.58
-11.18
4.63
16.75
25.21
30.67
34.08
36.20
37.48
38.09
38.13
37.74
37.15
36.59
36.20
36.02
36.00
36.04
36.03
35.89
35.50
34.74
33.46
31.51
28.78
25.25
21.01
16.29
11.36
6.47
1.74
-2.81
-7.26
-11.65
-15.95
-20.05
-23.85
-27.44
-31.15
-35.52
-41.08
-48.05
-56.07
-64.11
-70.51
-73.43
-71.31
-63.49
-50.47
-33.83
-15.83
1.31
15.90
27.15
35.08
40.23
43.26
44.75
45.06
44.46
43.25
41.76
40.28
39.04
38.06
37.28
36.61
36.00
35.44
34.85
34.10
32.87
30.92
28.14
24.66
20.82
16.94
13.21
9.59
5.88
1.83
-2.67
-7.59
-12.75
-17.96
-23.10
-28.09
-32.88
-37.48
-42.00
-46.73
-52.14
-58.65
-66.31
-74.38
-81.31
-84.94
-83.30
-75.34
-61.47
-43.50
-24.10
-5.79
9.63
21.49
30.02
35.89
39.83
42.35
43.85
44.64
45.10
45.52
46.05
46.61
46.93
46.72
45.80
44.24
42.36
40.58
39.23
38.41
37.91
37.23
35.78
33.09
29.01
23.83
18.19
12.82
8.27
4.64
1.54
-1.71
-5.75
-10.86
-16.85
-23.07
-28.80
-33.55
-37.25
-40.34
-43.54
-47.68
-53.37
-60.78
-69.43
-78.13
-84.99
-87.85
-84.91
-75.40
-60.04
-40.88
-20.78
-2.45
12.33
23.04
30.21
34.92
38.16
40.53
42.24
43.29
43.76
43.91
44.05
44.36
44.78
45.04
44.82
44.00
42.73
41.36
40.28
39.63
39.24
38.63
37.21
34.51
30.36
25.02
19.10
13.33
8.34
4.38
1.21
-1.75
-5.18
-9.51
-14.76
-20.58
-26.38
-31.69
-36.23
-40.05
-43.46
-46.97
-51.23
-56.84
-64.07
-72.54
-81.00
-87.41
-89.55
-85.67
-75.27
-59.41
-40.36
-20.90
-3.45
10.56
20.81
27.80
32.43
35.52
37.69
39.24
40.31
40.91
41.06
40.82
40.32
39.71
39.12
38.60
38.07
37.42
36.63
35.72
34.81
33.89
32.77
31.08
28.42
24.69
20.18
15.61
11.83
9.45
8.52
8.44
8.24
6.92
3.91
-0.72
-6.32
-11.98
-16.86
-20.58
-23.27
-25.52
-28.10
-31.78
-37.07
-44.11
-52.52
-61.29
-68.79
-73.08
-72.41
-65.82
-53.62
-37.40
-19.61
-2.78
11.17
21.31
27.77
31.31
32.91
33.41
33.39
33.17
32.87
32.56
32.24
31.96
31.77
31.74
31.97
32.50
33.27
34.10
34.74
34.92
34.40
33.03
30.77
27.70
24.01
19.92
15.66
11.38
7.14
2.88
-1.52
-6.17
-11.11
-16.24
-21.33
-26.12
-30.42
-34.32
-38.18
-42.56
-48.04
-54.87
-62.68
-70.36
-76.24
-78.48
-75.66
-67.26
-53.87
-37.07
-18.97
-1.66
13.27
24.91
33.12
38.20
40.74
41.39
40.73
39.28
37.49
35.73
34.30
33.37
32.93
32.76
32.60
32.21
31.56
30.77
30.03
29.40
28.67
27.39
25.18
21.84
17.61
12.97
8.45
4.38
0.73
-2.85
-6.75
-11.22
-16.19
-21.32
-26.16
-30.37
-33.83
-36.72
-39.49
-42.75
-47.16
-53.18
-60.77
-69.18
-76.92
-81.98
-82.42
-77.03
-65.83
-50.19
-32.39
-14.86
0.48
12.69
21.72
28.11
32.49
35.33
36.90
37.40
37.05
36.11
34.94
33.81
32.87
32.16
31.63
31.23
30.94
30.82
30.94
31.33
31.88
32.34
32.27
31.34
29.34
26.39
22.80
18.98
15.15
11.34
7.33
2.88
-2.16
-7.69
-13.42
-18.92
-23.79
-27.85
-31.15
-34.07
-37.22
-41.32
-46.95
-54.19
-62.43
-70.22
-75.59
-76.53
-71.73
-61.11
-45.85
-28.13
-10.40
5.34
17.94
27.13
33.33
37.09
38.96
39.37
38.68
37.29
35.67
34.20
33.15
32.56
32.30
32.16
32.02
31.75
31.29
30.60
29.58
28.14
26.19
23.66
20.53
16.84
12.65
8.10
3.40
-1.34
-5.98
-10.47
-14.78
-18.85
-22.62
-26.02
-29.04
-31.84
-34.77
-38.31
-42.93
-48.95
-56.14
-63.62
-69.88
-73.05
-71.43
-64.11
-51.42
-34.90
-16.94
0.05
14.24
24.80
31.87
36.19
38.58
39.79
40.25
40.18
39.75
39.12
38.40
37.67
36.93
36.12
35.16
34.03
32.76
31.39
29.95
28.40
26.65
24.61
22.21
19.41
16.23
12.68
8.77
4.54
0.07
-4.52
-9.04
-13.31
-17.19
-20.67
-23.85
-26.93
-30.23
-34.18
-39.18
-45.52
-53.07
-61.06
-68.02
-72.06
-71.39
-65.01
-53.17
-37.45
-20.22
-3.94
9.57
19.57
26.31
30.59
33.25
34.82
35.46
35.15
33.93
32.06
30.01
28.19
26.87
26.04
25.51
25.05
24.52
23.91
23.31
22.81
22.41
21.92
21.04
19.36
16.51
12.34
6.99
0.93
-5.19
-10.72
-15.30
-18.98
-22.13
-25.33
-29.18
-34.19
-40.64
-48.51
-57.30
-65.94
-72.80
-76.04
-74.19
-66.63
-53.95
-37.80
-20.39
-3.85
10.31
21.42
29.49
34.95
38.29
39.96
40.25
39.48
38.00
36.25
34.68
33.66
33.36
33.64
34.12
34.31
33.86
32.66
30.93
28.99
27.08
25.14
22.77
19.51
15.08
9.61
3.63
-2.18
-7.28
-11.46
-14.95
-18.18
-21.64
-25.72
-30.71
-36.77
-43.89
-51.63
-58.93
-64.18
-65.57
-61.75
-52.46
-38.75
-22.73
-6.87
6.84
17.40
24.82
29.79
33.13
35.41
36.87
37.53
37.45
36.80
35.90
35.10
34.64
34.58
34.76
34.91
34.70
33.89
32.45
30.52
28.34
26.16
24.08
21.99
19.66
16.78
13.18
8.88
4.10
-0.74
-5.25
-9.16
-12.48
-15.49
-18.63
-22.37
-27.12
-33.05
-40.07
-47.70
-55.00
-60.66
-63.13
-61.10
-53.96
-42.17
-27.23
-11.36
3.27
15.11
23.64
29.24
32.81
35.26
37.20
38.84
40.12
40.85
40.92
40.33
39.22
37.90
36.62
35.63
34.94
34.37
33.59
32.31
30.40
27.94
25.19
22.39
19.66
16.93
13.99
10.69
6.99
3.01
-1.04
-4.98
-8.72
-12.33
-15.95
-19.80
-24.05
-28.87
-34.37
-40.61
-47.46
-54.50
-60.88
-65.36
-66.60
-63.56
-55.94
-44.37
-30.35
-15.79
-2.46
8.44
16.49
21.88
25.15
26.81
27.26
26.77
25.55
23.92
22.24
20.90
20.12
19.88
19.92
19.86
19.39
18.44
17.14
15.79
14.59
13.54
12.42
10.82
8.35
4.85
0.44
-4.42
-9.13
-13.13
-16.09
-18.10
-19.62
-21.35
-24.00
-28.01
-33.44
-39.87
-46.45
-51.98
-55.14
-54.76
-50.14
-41.35
-29.29
-15.57
-2.02
9.77
18.87
25.09
28.82
30.68
31.25
30.88
29.77
28.14
26.23
24.44
23.14
22.56
22.62
23.01
23.29
23.06
22.16
20.67
18.82
16.86
14.90
12.82
10.37
7.27
3.37
-1.22
-6.15
-10.99
-15.29
-18.82
-21.64
-24.09
-26.68
-30.01
-34.59
-40.66
-48.06
-56.02
-63.23
-67.99
-68.64
-64.20
-54.69
-41.28
-26.01
-11.08
1.82
11.87
19.24
24.58
28.63
31.79
34.13
35.46
35.71
34.98
33.58
31.89
30.24
28.77
27.46
26.20
24.87
23.39
21.78
20.09
18.41
16.74
14.99
12.97
10.46
7.27
3.35
-1.21
-6.19
-11.30
-16.23
-20.75
-24.75
-28.26
-31.54
-35.03
-39.21
-44.45
-50.68
-57.31
-63.13
-66.61
-66.27
-61.25
-51.62
-38.43
-23.42
-8.59
4.41
14.60
21.77
26.34
29.07
30.76
31.99
33.12
34.26
35.39
36.44
37.29
37.87
38.12
38.09
37.81
37.36
36.78
35.99
34.90
33.42
31.52
29.28
26.79
24.14
21.26
18.00
14.22
9.87
5.15
0.40
-4.03
-7.96
-11.48
-14.83
-18.31
-22.18
-26.64
-31.86
-37.90
-44.59
-51.27
-56.76
-59.47
-57.97
-51.54
-40.63
-26.82
-12.30
0.79
11.09
18.22
22.69
25.40
27.20
28.55
29.52
30.01
29.93
29.40
28.73
28.17
27.78
27.37
26.56
25.14
23.16
21.03
19.22
18.02
17.34
16.74
15.65
13.63
10.55
6.57
2.01
-2.76
-7.42
-11.74
-15.55
-18.85
-21.79
-24.76
-28.24
-32.66
-38.24
-44.76
-51.51
-57.32
-60.79
-60.69
-56.23
-47.52
-35.49
-21.73
-7.99
4.22
14.04
21.23
26.03
28.87
30.10
29.97
28.69
26.55
24.00
21.56
19.74
18.78
18.58
18.82
19.08
19.06
18.72
18.19
17.59
16.86
15.74
13.76
10.58
6.13
0.76
-4.84
-9.88
-13.80
-16.52
-18.45
-20.44
-23.40
-28.00
-34.35
-41.92
-49.57
-55.71
-58.78
-57.52
-51.47
-41.12
-27.85
-13.56
-0.13
11.08
19.44
25.02
28.33
29.97
30.45
30.13
29.33
28.28
27.17
26.10
25.05
23.94
22.63
21.10
19.42
17.80
16.44
15.45
14.74
13.96
12.67
10.43
7.08
2.79
-2.04
-6.88
-11.33
-15.25
-18.76
-22.22
-26.05
-30.70
-36.47
-43.31
-50.61
-57.20
-61.45
-61.76
-57.13
-47.69
-34.68
-20.14
-6.18
5.67
14.82
21.51
26.40
30.13
33.02
35.08
36.20
36.35
35.74
34.73
33.72
32.97
32.42
31.81
30.79
29.17
27.02
24.62
22.38
20.53
19.02
17.48
15.41
12.37
8.17
2.94
-2.92
-8.88
-14.42
-19.20
-23.11
-26.41
-29.63
-33.44
-38.44
-44.83
-52.15
-59.29
-64.64
-66.49
-63.62
-55.73
-43.63
-29.00
-13.88
-0.11
11.14
19.55
25.43
29.42
32.17
34.14
35.57
36.51
36.91
36.76
36.10
35.11
34.03
33.04
32.21
31.39
30.30
28.76
26.75
24.52
22.40
20.62
19.09
17.44
15.10
11.64
7.00
1.51
-4.20
-9.45
-13.82
-17.25
-20.07
-22.87
-26.31
-30.99
-37.26
-45.00
-53.52
-61.56
-67.49
-69.68
-67.01
-59.24
-47.20
-32.52
-17.19
-3.04
8.69
17.55
23.73
27.86
30.64
32.65
34.18
35.22
35.67
35.43
34.60
33.40
32.09
30.86
29.72
28.56
27.27
25.82
24.32
22.90
21.56
20.19
18.45
16.01
12.66
8.46
3.72
-1.07
-5.42
-9.10
-12.14
-14.90
-17.93
-21.73
-26.66
-32.79
-39.89
-47.43
-54.54
-60.09
-62.78
-61.49
-55.63
-45.43
-32.09
-17.39
-3.21
9.00
18.54
25.44
30.11
33.05
34.51
34.65
33.56
31.53
29.02
26.58
24.64
23.36
22.64
22.20
21.75
21.10
20.31
19.53
18.92
18.40
17.63
16.10
13.37
9.25
3.98
-1.80
-7.37
-12.09
-15.73
-18.56
-21.23
-24.52
-29.13
-35.35
-42.96
-51.10
-58.39
-63.23
-64.20
-60.45
-52.05
-39.98
-25.84
-11.45
1.67
12.61
21.12
27.44
32.06
35.40
37.71
39.05
39.43
38.91
37.71
36.19
34.70
33.46
32.48
31.61
30.64
29.42
27.94
26.32
24.71
23.15
21.53
19.55
16.86
13.25
8.72
3.53
-1.90
-7.15
-11.92
-16.08
-19.73
-23.09
-26.50
-30.38
-35.16
-41.14
-48.27
-55.89
-62.67
-66.86
-66.76
-61.37
-50.80
-36.37
-20.14
-4.36
9.29
19.96
27.66
32.99
36.60
38.99
40.36
40.77
40.34
39.32
38.08
37.00
36.29
35.93
35.79
35.64
35.34
34.83
34.11
33.16
31.89
30.22
28.06
25.36
22.11
18.33
14.01
9.19
3.98
-1.41
-6.67
-11.56
-15.92
-19.80
-23.42
-27.08
-31.13
-35.93
-41.71
-48.52
-55.96
-63.07
-68.34
-70.08
-66.92
-58.47
-45.50
-29.80
-13.62
1.07
13.03
21.93
28.11
32.17
34.72
36.24
36.99
37.23
37.13
36.80
36.34
35.80
35.28
34.88
34.69
34.69
34.75
34.62
34.07
32.90
31.05
28.53
25.44
21.91
18.08
14.03
9.80
5.35
0.68
-4.20
-9.14
-13.91
-18.19
-21.80
-24.71
-27.22
-29.86
-33.28
-38.01
-44.20
-51.38
-58.46
-63.88
-66.00
-63.65
-56.51
-45.26
-31.38
-16.75
-3.09
8.40
17.21
23.44
27.52
29.98
31.26
31.60
31.16
30.12
28.73
27.35
26.35
26.02
26.38
27.23
28.15
28.67
28.47
27.43
25.72
23.63
21.46
19.23
16.70
13.51
9.39
4.36
-1.14
-6.48
-11.03
-14.53
-17.11
-19.26
-21.65
-24.83
-29.16
-34.66
-41.00
-47.45
-52.93
-56.15
-55.89
-51.39
-42.65
-30.54
-16.57
-2.54
10.01
20.04
27.22
31.73
34.08
34.83
34.47
33.39
31.87
30.16
28.47
26.99
25.87
25.16
24.86
24.85
24.94
24.86
24.33
23.14
21.24
18.76
15.93
13.02
10.14
7.25
4.14
0.59
-3.47
-7.89
-12.34
-16.44
-20.01
-23.15
-26.20
-29.65
-33.95
-39.33
-45.69
-52.52
-58.82
-63.25
-64.37
-61.07
-53.04
-40.99
-26.52
-11.64
1.84
12.83
21.09
27.03
31.30
34.35
36.33
37.22
37.03
35.96
34.45
32.96
31.81
31.05
30.49
29.84
28.88
27.58
26.09
24.60
23.22
21.93
20.55
18.81
16.47
13.44
9.77
5.63
1.25
-3.19
-7.58
-11.89
-16.14
-20.31
-24.36
-28.31
-32.30
-36.61
-41.65
-47.71
-54.63
-61.61
-67.25
-69.84
-67.93
-60.95
-49.38
-34.78
-19.21
-4.67
7.50
16.81
23.47
28.09
31.28
33.39
34.52
34.72
34.09
32.92
31.63
30.58
29.98
29.72
29.50
28.96
27.87
26.24
24.28
22.30
20.54
19.04
17.61
15.87
13.43
10.07
5.75
0.73
-4.63
-9.92
-14.83
-19.26
-23.27
-27.04
-30.83
-34.93
-39.62
-45.11
-51.40
-58.09
-64.23
-68.44
-69.25
-65.60
-57.28
-45.16
-30.91
-16.47
-3.45
7.22
15.38
21.28
25.33
27.80
28.86
28.68
27.55
25.94
24.37
23.24
22.72
22.69
22.86
22.89
22.59
21.99
21.28
20.67
20.21
19.70
18.72
16.78
13.59
9.17
3.90
-1.59
-6.68
-10.97
-14.43
-17.39
-20.44
-24.17
-29.00
-35.09
-42.14
-49.45
-55.89
-60.09
-60.71
-56.90
-48.60
-36.70
-22.83
-8.85
3.66
13.84
21.53
27.06
30.95
33.55
35.06
35.57
35.24
34.32
33.17
32.08
31.25
30.66
30.18
29.59
28.65
27.27
25.51
23.58
21.71
20.04
18.46
16.67
14.26
10.94
6.65
1.68
-3.56
-8.65
-13.34
-17.65
-21.76
-25.92
-30.38
-35.42
-41.30
-48.20
-56.03
-64.16
-71.25
-75.56
-75.37
-69.66
-58.64
-43.71
-27.13
-11.15
2.55
13.24
21.08
26.70
30.82
33.95
36.34
38.06
39.16
39.73
39.95
39.98
39.89
39.66
39.15
38.28
37.00
35.41
33.70
32.03
30.48
28.98
27.36
25.36
22.73
19.27
14.88
9.65
3.89
-1.95
-7.40
-12.15
-16.20
-19.84
-23.57
-27.90
-33.19
-39.57
-46.86
-54.51
-61.53
-66.54
-67.98
-64.56
-55.82
-42.42
-26.16
-9.39
5.65
17.53
25.89
31.24
34.49
36.49
37.69
38.21
38.08
37.44
36.57
35.87
35.56
35.70
36.10
36.45
36.46
35.97
34.97
33.54
31.81
29.87
27.76
25.40
22.66
19.39
15.49
10.99
6.05
0.89
-4.18
-8.98
-13.45
-17.66
-21.78
-25.99
-30.43
-35.30
-40.82
-47.18
-54.26
-61.42
-67.40
-70.49
-69.12
-62.46
-50.88
-35.90
-19.76
-4.67
7.85
17.23
23.75
28.10
30.95
32.67
33.37
33.09
31.97
30.44
29.05
28.26
28.23
28.71
29.15
29.06
28.21
26.80
25.30
24.12
23.36
22.67
21.45
19.10
15.39
10.53
5.10
-0.16
-4.75
-8.50
-11.66
-14.72
-18.23
-22.64
-28.19
-34.87
-42.33
-49.79
-56.07
-59.75
-59.52
-54.59
-45.06
-32.00
-17.15
-2.49
10.37
20.51
27.82
32.70
35.79
37.60
38.40
38.28
37.38
35.96
34.48
33.39
32.98
33.19
33.67
33.90
33.46
32.20
30.28
28.05
25.83
23.76
21.73
19.35
16.23
12.08
6.98
1.30
-4.40
-9.56
-13.89
-17.38
-20.31
-23.10
-26.30
-30.40
-35.76
-42.51
-50.28
-58.12
-64.56
-67.91
-66.80
-60.61
-49.79
-35.74
-20.41
-5.73
6.84
16.61
23.63
28.46
31.84
34.37
36.41
38.02
39.08
39.46
39.18
38.35
37.23
36.05
34.89
33.70
32.37
30.80
29.01
27.15
25.40
23.83
22.34
20.61
18.31
15.19
11.26
6.78
2.15
-2.25
-6.24
-9.84
-13.24
-16.68
-20.38
-24.46
-29.04
-34.26
-40.26
-47.01
-54.03
-60.26
-64.16
-64.12
-59.10
-49.11
-35.35
-19.89
-4.93
7.81
17.60
24.57
29.40
32.82
35.35
37.16
38.24
38.59
38.24
37.32
36.01
34.51
33.05
31.77
30.75
29.93
29.14
28.20
26.99
25.48
23.75
21.81
19.65
17.11
14.04
10.34
6.03
1.31
-3.55
-8.23
-12.52
-16.37
-19.90
-23.33
-26.97
-31.11
-36.03
-41.83
-48.39
-55.21
-61.28
-65.26
-65.77
-61.89
-53.55
-41.68
-27.92
-14.14
-1.85
8.11
15.53
20.66
23.88
25.52
25.86
25.21
23.93
22.50
21.35
20.79
20.92
21.62
22.60
23.47
23.86
23.56
22.57
21.08
19.39
17.76
16.24
14.60
12.39
9.22
4.94
-0.15
-5.46
-10.32
-14.33
-17.53
-20.33
-23.27
-26.78
-31.08
-36.17
-41.93
-48.06
-53.86
-58.21
-59.70
-57.02
-49.59
-37.90
-23.55
-8.69
4.65
15.16
22.56
27.34
30.30
32.20
33.47
34.20
34.38
33.99
33.15
32.08
30.97
29.97
29.12
28.37
27.64
26.78
25.64
24.12
22.15
19.80
17.20
14.50
11.76
8.93
5.82
2.24
-1.87
-6.41
-11.06
-15.50
-19.44
-22.81
-25.69
-28.35
-31.14
-34.50
-38.84
-44.38
-50.94
-57.69
-63.23
-65.81
-63.97
-57.10
-45.73
-31.44
-16.36
-2.45
9.04
17.75
24.01
28.42
31.51
33.56
34.68
34.95
34.54
33.72
32.75
31.85
31.10
30.47
29.84
29.06
28.01
26.60
24.88
22.96
21.02
19.15
17.36
15.43
13.04
9.86
5.75
0.83
-4.51
-9.76
-14.51
-18.57
-22.08
-25.38
-28.88
-32.96
-37.89
-43.77
-50.44
-57.32
-63.35
-67.06
-66.92
-61.95
-52.14
-38.65
-23.48
-8.80
3.73
13.31
20.01
24.36
26.99
28.37
28.76
28.38
27.53
26.54
25.70
25.13
24.76
24.34
23.55
22.26
20.53
18.68
17.14
16.25
15.97
15.95
15.53
14.08
11.26
7.15
2.24
-2.84
-7.49
-11.41
-14.61
-17.36
-20.10
-23.32
-27.45
-32.74
-39.12
-46.08
-52.65
-57.49
-59.23
-56.90
-50.24
-39.88
-27.17
-13.81
-1.38
9.05
17.05
22.70
26.37
28.45
29.21
28.91
27.77
26.17
24.55
23.28
22.50
22.14
21.90
21.47
20.71
19.70
18.68
17.84
17.16
16.28
14.65
11.71
7.25
1.60
-4.51
-10.20
-14.83
-18.33
-21.21
-24.36
-28.63
-34.57
-42.07
-50.42
-58.35
-64.28
-66.67
-64.47
-57.45
-46.38
-32.90
-19.00
-6.51
3.48
10.73
15.67
18.96
21.12
22.34
22.57
21.76
20.08
17.96
15.92
14.39
13.54
13.27
13.47
14.09
15.33
17.35
20.22
23.54
26.51
28.18
27.75
24.98
20.23
14.38
8.42
3.14
-1.13
-4.63
-7.96
-11.95
-17.31
-24.39
-32.96
-42.12
-50.40
-56.05
-57.51
-53.92
-45.44
-33.26
-19.25
-5.41
6.75
16.48
23.76
29.11
33.15
36.31
38.76
40.44
41.25
41.17
40.33
38.96
37.28
35.43
33.44
31.38
29.37
27.67
26.59
26.26
26.53
26.82
26.36
24.43
20.63
15.16
8.66
2.07
-3.75
-8.27
-11.48
-13.82
-16.02
-18.88
-23.07
-28.97
-36.40
-44.52
-51.83
-56.49
-56.71
-51.56
-41.30
-27.47
-12.38
1.64
13.01
21.21
26.65
30.15
32.45
33.85
34.34
33.80
32.32
30.23
28.09
26.40
25.43
25.07
24.95
24.59
23.71
22.27
20.48
18.64
16.87
15.00
12.66
9.41
5.06
-0.27
-6.09
-11.75
-16.67
-20.60
-23.62
-26.20
-29.00
-32.70
-37.73
-44.16
-51.45
-58.50
-63.73
-65.53
-62.76
-55.23
-43.78
-30.13
-16.21
-3.61
6.83
15.03
21.38
26.34
30.18
32.95
34.61
35.18
34.86
33.96
32.84
31.80
30.96
30.25
29.48
28.42
26.95
25.14
23.20
21.41
19.85
18.35
16.49
13.77
9.91
5.01
-0.47
-5.85
-10.55
-14.31
-17.29
-19.92
-22.84
-26.57
-31.48
-37.68
-44.82
-52.06
-58.08
-61.26
-60.16
-54.07
-43.40
-29.66
-14.94
-1.25
10.12
18.73
24.91
29.30
32.45
34.66
36.05
36.64
36.53
35.90
34.99
34.04
33.21
32.59
32.12
31.61
30.84
29.67
28.15
26.49
24.89
23.44
21.88
19.78
16.71
12.47
7.30
1.73
-3.59
-8.25
-12.18
-15.63
-19.01
-22.70
-26.96
-31.93
-37.70
-44.24
-51.19
-57.69
-62.35
-63.63
-60.33
-52.14
-39.94
-25.48
-10.87
2.15
12.62
20.40
25.88
29.59
31.87
32.93
32.90
32.01
30.60
29.09
27.81
26.93
26.38
25.95
25.38
24.49
23.27
21.93
20.75
19.92
19.36
18.70
17.34
14.69
10.49
4.96
-1.29
-7.41
-12.69
-16.80
-19.99
-22.85
-26.17
-30.57
-36.32
-43.17
-50.35
-56.72
-60.91
-61.69
-58.21
-50.34
-38.79
-24.99
-10.71
2.33
13.00
20.89
26.20
29.43
31.06
31.43
30.76
29.34
27.60
26.02
24.95
24.45
24.30
24.12
23.62
22.73
21.60
20.43
19.35
18.30
17.09
15.38
12.88
9.38
4.94
-0.17
-5.43
-10.34
-14.60
-18.28
-21.86
-25.99
-31.25
-37.79
-45.13
-52.23
-57.63
-59.89
-57.98
-51.62
-41.40
-28.64
-15.04
-2.23
8.64
17.05
23.02
26.92
29.24
30.48
31.01
31.14
31.08
30.91
30.61
30.14
29.38
28.26
26.77
25.02
23.22
21.60
20.37
19.54
18.87
17.84
15.89
12.55
7.78
1.95
-4.19
-9.84
-14.39
-17.69
-20.05
-22.21
-25.05
-29.33
-35.37
-42.78
-50.43
-56.59
-59.44
-57.62
-50.72
-39.53
-25.72
-11.37
1.73
12.53
20.80
26.94
31.51
34.94
37.30
38.49
38.44
37.36
35.75
34.21
33.23
32.86
32.82
32.59
31.73
30.07
27.79
25.29
22.94
20.92
19.15
17.32
15.06
12.11
8.38
3.99
-0.79
-5.62
-10.16
-14.11
-17.36
-19.98
-22.33
-24.95
-28.43
-33.17
-39.16
-45.91
-52.40
-57.33
-59.42
-57.67
-51.74
-41.99
-29.49
-15.79
-2.53
8.95
17.87
24.17
28.26
30.82
32.47
33.59
34.32
34.67
34.57
34.02
33.07
31.82
30.40
28.92
27.59
26.57
26.00
25.82
25.84
25.69
24.96
23.37
20.81
17.47
13.65
9.76
6.10
2.79
-0.26
-3.24
-6.40
-9.80
-13.34
-16.77
-19.82
-22.43
-24.79
-27.37
-30.70
-35.24
-41.10
-47.95
-54.96
-60.83
-64.11
-63.52
-58.41
-49.06
-36.66
-22.97
-9.75
1.70
10.84
17.75
22.84
26.50
28.98
30.40
30.85
30.51
29.63
28.50
27.38
26.43
25.71
25.17
24.73
24.32
23.92
23.57
23.26
22.90
22.30
21.21
19.40
16.81
13.60
10.13
6.77
3.81
1.27
-1.03
-3.37
-5.98
-8.92
-12.07
-15.19
-18.09
-20.67
-23.06
-25.55
-28.46
-32.17
-36.92
-42.75
-49.32
-55.78
-60.80
-62.88
-60.79
-54.11
-43.44
-30.24
-16.43
-3.67
6.95
15.07
20.81
24.49
26.40
26.80
26.02
24.58
23.07
22.09
21.95
22.63
23.81
25.01
25.84
26.14
25.98
25.57
25.13
24.70
24.09
22.98
21.12
18.44
15.22
11.90
8.90
6.39
4.15
1.70
-1.47
-5.61
-10.57
-15.85
-20.79
-24.88
-27.99
-30.41
-32.78
-35.81
-40.03
-45.58
-52.13
-58.82
-64.43
-67.47
-66.66
-61.21
-51.20
-37.70
-22.50
-7.62
5.21
15.07
21.86
26.13
28.62
29.95
30.46
30.33
29.70
28.74
27.71
26.88
26.43
26.38
26.65
27.07
27.48
27.82
28.12
28.46
28.80
28.95
28.56
27.22
24.69
21.02
16.58
11.99
7.89
4.67
2.34
0.54
-1.32
-3.82
-7.30
-11.76
-16.84
-21.94
-26.47
-30.12
-32.96
-35.51
-38.55
-42.76
-48.46
-55.40
-62.74
-69.23
-73.44
-74.07
-70.28
-61.93
-49.71
-35.03
-19.76
-5.68
5.94
14.62
20.60
24.59
27.29
29.17
30.38
30.92
30.84
30.31
29.63
29.11
28.92
29.09
29.44
29.75
29.90
29.79
29.51
29.16
28.83
28.45
27.88
26.86
25.16
22.65
19.37
15.56
11.62
7.97
4.86
2.30
-0.05
-2.66
-5.92
-9.93
-14.42
-18.86
-22.84
-26.18
-29.05
-31.82
-34.85
-38.35
-42.43
-47.17
-52.72
-59.05
-65.73
-71.72
-75.49
-75.42
-70.36
-60.19
-45.90
-29.34
-12.63
2.37
14.51
23.35
29.11
32.31
33.61
33.61
32.87
31.82
30.81
30.12
29.89
30.08
30.55
31.05
31.36
31.38
31.13
30.78
30.52
30.41
30.37
30.17
29.52
28.17
25.97
22.93
19.26
15.32
11.56
8.39
5.95
4.05
2.19
-0.21
-3.56
-7.91
-12.91
-18.02
-22.73
-26.79
-30.25
-33.45
-36.86
-40.97
-46.16
-52.55
-59.81
-67.06
-72.91
-75.71
-74.09
-67.38
-55.96
-41.17
-25.04
-9.63
3.45
13.34
19.98
23.84
25.64
26.08
25.71
24.93
24.07
23.40
23.10
23.28
23.87
24.67
25.49
26.16
26.66
27.07
27.47
27.85
28.00
27.67
26.55
24.51
21.61
18.12
14.33
10.47
6.64
2.78
-1.23
-5.43
-9.79
-14.14
-18.29
-22.12
-25.63
-29.08
-32.92
-37.67
-43.70
-50.91
-58.52
-65.10
-68.88
-68.33
-62.69
-52.28
-38.42
-22.96
-7.72
5.95
17.31
26.15
32.49
36.50
38.38
38.45
37.20
35.21
33.10
31.36
30.31
30.02
30.40
31.22
32.17
32.95
33.31
33.04
32.02
30.23
27.72
24.69
21.36
17.95
14.53
11.03
7.23
2.93
-1.92
-7.16
-12.45
-17.45
-21.96
-26.01
-29.91
-34.08
-38.97
-44.93
-51.99
-59.81
-67.46
-73.59
-76.61
-75.20
-68.74
-57.61
-43.11
-27.09
-11.43
2.49
13.98
22.98
29.80
34.84
38.34
40.42
41.19
40.82
39.65
38.12
36.69
35.66
35.13
34.99
34.97
34.82
34.29
33.27
31.76
29.87
27.79
25.67
23.54
21.26
18.59
15.26
11.21
6.59
1.73
-2.99
-7.30
-11.20
-14.87
-18.67
-22.95
-28.04
-34.05
-40.83
-47.81
-53.94
-57.84
-58.13
-53.91
-45.06
-32.49
-17.83
-3.03
10.26
21.00
28.94
34.32
37.63
39.39
39.99
39.77
39.00
37.99
36.96
36.09
35.41
34.88
34.40
33.85
33.14
32.24
31.13
29.83
28.34
26.61
24.52
21.86
18.45
14.17
9.09
3.50
-2.15
-7.39
-11.88
-15.53
-18.61
-21.61
-25.13
-29.68
-35.54
-42.64
-50.50
-58.21
-64.48
-67.87
-67.13
-61.63
-51.68
-38.52
-23.94
-9.82
2.45
12.20
19.44
24.55
27.96
29.93
30.68
30.41
29.49
28.43
27.68
27.50
27.81
28.29
28.52
28.25
27.50
26.50
25.58
24.87
24.17
23.02
20.87
17.37
12.54
6.81
0.83
-4.75
-9.50
-13.41
-16.86
-20.52
-25.13
-31.22
-38.85
-47.36
-55.36
-61.06
-62.72
-59.29
-50.73
-38.09
-23.16
-7.84
6.31
18.39
28.03
35.24
40.15
42.90
43.70
42.94
41.18
39.14
37.38
36.21
35.59
35.19
34.62
33.59
32.13
30.49
29.02
27.91
27.02
25.96
24.19
21.29
17.13
11.94
6.14
0.27
-5.24
-10.19
-14.66
-19.07
-24.05
-30.24
-37.98
-47.02
-56.30
-64.15
-68.63
-68.15
-62.03
-50.76
-35.87
-19.47
-3.62
10.24
21.44
30.08
36.66
41.77
45.75
48.71
50.60
51.41
51.36
50.77
50.01
49.30
48.65
47.88
46.82
45.38
43.59
41.60
39.49
37.31
34.97
32.33
29.22
25.46
20.92
15.61
9.62
3.26
-3.03
-8.80
-13.81
-18.03
-21.76
-25.49
-29.84
-35.34
-42.31
-50.62
-59.57
-67.75
-73.32
-74.46
-70.01
-59.95
-45.51
-28.79
-12.09
2.75
14.84
24.16
31.21
36.63
40.92
44.28
46.83
48.63
49.75
50.26
50.19
49.54
48.34
46.81
45.26
44.04
43.34
43.05
42.79
42.07
40.48
37.90
34.49
30.55
26.40
22.19
17.88
13.38
8.60
3.54
-1.67
-6.88
-11.98
-16.91
-21.69
-26.34
-30.91
-35.52
-40.34
-45.69
-51.78
-58.46
-64.97
-69.89
-71.47
-68.19
-59.47
-46.01
-29.65
-12.79
2.42
14.64
23.58
29.80
34.15
37.41
40.02
42.12
43.66
44.59
44.95
44.84
44.38
43.66
42.62
41.23
39.45
37.46
35.52
33.99
32.99
32.42
31.84
30.64
28.38
24.93
20.59
15.92
11.57
7.93
4.96
2.31
-0.60
-4.21
-8.71
-13.88
-19.25
-24.25
-28.49
-31.90
-34.74
-37.58
-41.09
-45.81
-51.92
-59.11
-66.41
-72.33
-75.18
-73.54
-66.74
-55.22
-40.46
-24.53
-9.53
3.05
12.56
19.14
23.43
26.16
27.89
28.98
29.60
29.87
29.94
29.93
29.96
30.08
30.22
30.27
30.08
29.61
28.88
28.01
27.13
26.19
25.01
23.28
20.78
17.46
13.58
9.60
5.95
2.86
0.21
-2.36
-5.23
-8.67
-12.60
-16.70
-20.62
-24.08
-27.07
-29.88
-32.98
-36.93
-42.15
-48.68
-55.99
-62.84
-67.50
-68.16
-63.63
-53.86
-40.09
-24.49
-9.42
3.39
13.15
20.08
24.80
27.94
29.82
30.55
30.21
29.14
27.88
26.97
26.71
27.04
27.54
27.79
27.54
26.93
26.31
26.04
26.21
26.57
26.56
25.65
23.55
20.33
16.38
12.19
8.12
4.29
0.60
-3.17
-7.23
-11.64
-16.33
-21.07
-25.56
-29.55
-32.86
-35.52
-37.82
-40.27
-43.55
-48.24
-54.60
-62.24
-70.04
-76.27
-79.06
-76.95
-69.49
-57.35
-42.19
-26.10
-10.98
1.83
11.78
18.96
23.86
27.10
29.27
30.84
32.05
32.98
33.58
33.80
33.60
33.10
32.41
31.68
30.94
30.18
29.36
28.50
27.64
26.75
25.66
24.05
21.59
18.16
13.95
9.46
5.25
1.70
-1.27
-4.12
-7.43
-11.57
-16.50
-21.74
-26.67
-30.82
-34.11
-36.87
-39.67
-43.11
-47.60
-53.24
-59.75
-66.39
-71.94
-74.94
-74.01
-68.32
-57.93
-43.93
-28.13
-12.51
1.26
12.19
20.09
25.29
28.44
30.19
31.04
31.34
31.37
31.26
31.14
31.06
31.00
30.93
30.78
30.54
30.26
30.05
29.97
30.02
30.01
29.68
28.71
26.84
23.99
20.26
15.94
11.43
7.09
3.15
-0.44
-3.94
-7.71
-11.97
-16.71
-21.61
-26.24
-30.29
-33.76
-37.08
-40.92
-45.97
-52.52
-60.27
-68.12
-74.41
-77.26
-75.18
-67.58
-55.10
-39.41
-22.77
-7.33
5.46
15.05
21.69
25.99
28.55
29.79
29.93
29.17
27.81
26.26
24.88
23.94
23.49
23.45
23.64
23.86
23.95
23.78
23.28
22.46
21.37
20.10
18.66
16.95
14.78
11.92
8.26
3.90
-0.89
-5.74
-10.33
-14.50
-18.25
-21.75
-25.29
-29.21
-33.86
-39.52
-46.15
-53.29
-59.96
-64.77
-66.24
-63.26
-55.54
-43.74
-29.37
-14.31
-0.29
11.51
20.67
27.27
31.67
34.22
35.16
34.70
33.18
31.09
29.03
27.50
26.74
26.68
26.95
27.16
26.99
26.37
25.35
24.08
22.68
21.14
19.34
17.06
14.09
10.26
5.60
0.38
-5.00
-10.05
-14.46
-18.21
-21.58
-25.07
-29.22
-34.49
-41.08
-48.84
-57.15
-64.90
-70.50
-72.35
-69.21
-60.80
-47.93
-32.33
-16.13
-1.24
11.17
20.67
27.48
32.10
35.06
36.83
37.76
38.12
38.12
37.88
37.46
36.92
36.35
35.85
35.51
35.32
35.14
34.76
34.02
32.85
31.27
29.38
27.19
24.62
21.51
17.72
13.26
8.24
2.87
-2.64
-8.13
-13.49
-18.57
-23.24
-27.46
-31.42
-35.61
-40.72
-47.29
-55.35
-64.15
-72.14
-77.33
-77.88
-72.74
-62.02
-46.94
-29.55
-12.10
3.52
16.17
25.51
31.92
36.11
38.86
40.78
42.23
43.38
44.26
44.84
45.06
44.85
44.19
43.12
41.81
40.49
39.41
38.74
38.44
38.26
37.81
36.64
34.44
31.12
26.84
21.98
17.02
12.38
8.29
4.72
1.37
-2.18
-6.33
-11.24
-16.74
-22.37
-27.57
-31.88
-35.26
-38.12
-41.26
-45.58
-51.65
-59.35
-67.65
-74.74
-78.49
-77.10
-69.76
-56.93
-40.27
-22.16
-4.93
9.63
20.75
28.53
33.65
36.98
39.26
40.91
42.12
42.90
43.26
43.23
42.93
42.44
41.81
40.99
39.95
38.69
37.38
36.28
35.54
35.14
34.80
34.08
32.58
30.13
26.85
23.08
19.18
15.42
11.89
8.59
5.42
2.27
-1.06
-4.74
-8.89
-13.44
-18.18
-22.79
-26.98
-30.71
-34.16
-37.73
-41.91
-47.11
-53.55
-61.05
-68.87
-75.70
-79.81
-79.48
-73.62
-62.29
-46.70
-29.02
-11.57
3.78
15.98
24.87
30.82
34.46
36.33
36.87
36.46
35.52
34.47
33.68
33.38
33.62
34.26
35.05
35.83
36.50
37.11
37.70
38.20
38.40
37.96
36.58
34.14
30.77
26.78
22.58
18.45
14.47
10.55
6.39
1.74
-3.52
-9.25
-15.07
-20.49
-25.15
-28.97
-32.26
-35.66
-39.88
-45.40
-52.19
-59.53
-66.08
-70.21
-70.36
-65.59
-55.82
-41.98
-25.75
-9.13
6.05
18.44
27.43
33.07
35.89
36.64
36.11
34.90
33.48
32.13
31.03
30.29
29.94
29.91
30.07
30.27
30.43
30.57
30.72
30.87
30.86
30.42
29.24
27.08
23.91
19.94
15.57
11.23
7.25
3.72
0.47
-2.85
-6.59
-10.94
-15.80
-20.79
-25.40
-29.23
-32.20
-34.61
-37.13
-40.61
-45.72
-52.67
-60.93
-69.22
-75.66
-78.37
-75.93
-67.96
-55.17
-39.22
-22.21
-6.09
7.69
18.49
26.29
31.53
34.76
36.55
37.29
37.30
36.86
36.25
35.65
35.20
34.83
34.41
33.85
33.13
32.40
31.82
31.48
31.31
31.05
30.40
29.09
26.98
24.10
20.63
16.84
13.03
9.40
5.98
2.60
-1.04
-5.16
-9.82
-14.81
-19.78
-24.38
-28.48
-32.23
-36.07
-40.59
-46.28
-53.32
-61.28
-69.10
-75.17
-77.73
-75.42
-67.71
-55.20
-39.39
-22.32
-5.93
8.31
19.62
27.84
33.19
36.11
37.14
36.86
35.83
34.57
33.43
32.57
31.98
31.54
31.15
30.82
30.61
30.56
30.67
30.78
30.64
29.96
28.53
26.26
23.23
19.71
15.98
12.36
8.95
5.65
2.17
-1.82
-6.46
-11.59
-16.80
-21.57
-25.54
-28.72
-31.47
-34.37
-38.11
-43.15
-49.61
-57.03
-64.37
-70.06
-72.34
-69.79
-61.84
-49.09
-33.21
-16.45
-0.94
11.82
21.23
27.45
31.03
32.57
32.55
31.30
29.15
26.51
23.86
21.67
20.31
19.92
20.39
21.44
22.65
23.65
24.13
23.94
23.03
21.49
19.45
17.04
14.31
11.16
7.37
2.76
-2.67
-8.60
-14.52
-19.83
-24.15
-27.47
-30.25
-33.27
-37.34
-43.03
-50.39
-58.78
-66.90
-73.03
-75.40
-72.72
-64.60
-51.72
-35.72
-18.70
-2.75
10.60
20.62
27.32
31.22
33.06
33.53
33.15
32.24
31.06
29.84
28.77
28.04
27.73
27.80
28.09
28.38
28.42
28.05
27.23
26.06
24.72
23.31
21.82
20.02
17.59
14.21
9.76
4.40
-1.46
-7.32
-12.77
-17.64
-22.02
-26.18
-30.50
-35.40
-41.23
-48.25
-56.40
-65.12
-73.18
-78.85
-80.29
-76.18
-66.24
-51.50
-33.97
-16.07
0.12
13.39
23.42
30.62
35.61
39.00
41.16
42.34
42.71
42.49
41.87
41.05
40.15
39.22
38.29
37.35
36.44
35.56
34.69
33.72
32.56
31.10
29.27
27.01
24.31
21.09
17.24
12.68
7.41
1.57
-4.49
-10.39
-15.74
-20.39
-24.48
-28.46
-32.94
-38.51
-45.50
-53.83
-62.85
-71.33
-77.60
-79.84
-76.63
-67.46
-52.99
-35.07
-16.21
1.15
15.27
25.53
32.25
36.36
38.83
40.32
41.15
41.41
41.12
40.34
39.23
38.00
36.85
35.97
35.46
35.37
35.58
35.85
35.89
35.41
34.22
32.29
29.66
26.46
22.81
18.83
14.56
9.99
5.11
-0.10
-5.55
-11.08
-16.45
-21.46
-26.06
-30.38
-34.81
-39.84
-45.92
-53.25
-61.49
-69.65
-76.16
-79.12
-76.98
-69.05
-55.85
-39.08
-21.09
-4.17
10.01
20.77
28.22
32.99
35.78
37.11
37.27
36.43
34.76
32.62
30.55
29.08
28.58
28.99
29.88
30.61
30.69
29.97
28.71
27.35
26.20
25.20
23.96
21.87
18.49
13.72
7.85
1.47
-4.77
-10.38
-15.20
-19.39
-23.40
-27.84
-33.24
-39.95
-47.88
-56.41
-64.32
-69.97
-71.65
-68.14
-59.16
-45.57
-29.24
-12.44
2.78
15.15
24.27
30.46
34.35
36.50
37.29
36.91
35.52
33.39
30.92
28.55
26.65
25.41
24.78
24.48
24.15
23.59
22.76
21.80
20.84
19.90
18.72
16.98
14.35
10.76
6.44
1.85
-2.50
-6.19
-9.03
-11.02
-12.37
-13.38
-14.43
-15.96
-18.50
-22.52
-28.38
-36.04
-44.83
-53.31
-59.47
-61.28
-57.30
-47.31
-32.38
-14.65
3.39
19.62
32.77
42.54
49.33
53.86
56.77
58.48
59.16
58.90
57.81
56.13
54.17
52.26
50.59
49.21
48.01
46.83
45.56
44.18
42.70
41.06
39.06
36.45
32.97
28.56
23.44
18.04
12.85
8.16
3.96
-0.11
-4.51
-9.60
-15.38
-21.47
-27.31
-32.44
-36.76
-40.63
-44.75
-49.89
-56.58
-64.77
-73.76
-82.06
-87.68
-88.65
-83.58
-72.24
-55.78
-36.43
-16.88
0.56
14.51
24.68
31.64
36.29
39.49
41.82
43.54
44.74
45.43
45.66
45.51
45.09
44.46
43.67
42.72
41.62
40.38
39.07
37.73
36.32
34.70
32.65
29.90
26.38
22.22
17.75
13.33
9.21
5.39
1.68
-2.24
-6.58
-11.35
-16.37
-21.29
-25.84
-29.85
-33.36
-36.71
-40.39
-45.06
-51.21
-58.91
-67.49
-75.47
-80.73
-81.18
-75.45
-63.52
-46.78
-27.70
-8.98
7.21
19.69
28.37
33.83
36.97
38.52
39.01
38.79
38.06
37.01
35.81
34.61
33.54
32.67
32.05
31.61
31.25
30.82
30.21
29.34
28.18
26.70
24.81
22.41
19.40
15.84
11.85
7.66
3.40
-0.91
-5.39
-10.11
-15.02
-19.89
-24.45
-28.57
-32.39
-36.41
-41.22
-47.32
-54.72
-62.79
-70.26
-75.38
-76.45
-72.28
-62.63
-48.41
-31.44
-13.97
2.00
15.10
24.82
31.35
35.24
37.05
37.25
36.22
34.30
31.88
29.38
27.18
25.54
24.57
24.23
24.38
24.72
24.90
24.53
23.33
21.20
18.26
14.79
11.06
7.22
3.16
-1.32
-6.40
-12.07
-18.15
-24.31
-30.32
-36.07
-41.62
-47.08
-52.63
-58.52
-65.09
-72.72
-81.53
-91.14
-100.35
-107.35
-110.10
-107.07
-97.80
-83.07
-64.66
-44.70
-25.11
-7.20
8.45
21.73
32.80
41.98
49.64
56.18
61.95
67.09
71.51
74.97
77.25
78.38
78.70
78.75
79.01
79.66
80.49
81.05
80.89
79.86
78.11
75.88
73.27
70.15
66.11
60.72
53.67
44.88
34.53
23.04
11.00
-0.88
-11.88
-21.51
-29.76
-37.24
-44.96
-53.91
-64.45
-75.98
-86.91
-95.19
-99.00
-97.24
-89.86
-77.75
-62.40
-45.59
-29.01
-14.07
-1.69
7.74
14.25
18.08
19.46
18.65
16.13
12.78
9.82
8.54
9.79
13.71
19.76
27.10
34.85
42.23
48.41
52.35
52.95
49.56
42.25
31.91
19.75
6.70
-6.96
-21.31
-36.24
-51.07
-64.52
-75.35
-83.10
-88.45
-92.89
-97.98
-104.53
-112.10
-119.17
-123.65
-123.63
-117.91
-106.35
-89.77
-69.75
-48.13
-26.63
-6.58
11.25
26.57
39.48
50.27
59.31
66.82
72.86
77.34
80.07
81.01
80.29
78.24
75.24
71.59
67.55
63.38
59.51
56.49
54.69
54.12
54.36
54.72
54.73
54.43
54.33
55.03
56.73
58.92
60.49
60.20
57.17
51.11
42.29
31.37
19.22
6.99
-3.97
-12.26
-16.79
-17.23
-14.26
-9.44
-4.65
-1.49
-0.71
-2.32
-5.74
-10.29
-15.45
-20.83
-26.13
-30.89
-34.69
-37.15
-38.26
-38.37
-38.17
-38.53
-40.27
-44.00
-49.98
-57.98
-67.24
-76.43
-83.89
-88.16
-88.47
-85.13
-79.45
-73.16
-67.54
-62.78
-57.90
-51.38
-42.16
-30.31
-17.12
-4.49
6.09
14.16
20.27
25.51
30.79
36.56
42.83
49.57
56.99
65.54
75.75
87.82
101.47
115.87
129.79
141.81
150.71
155.78
157.06
155.42
152.23
148.88
146.24
144.39
142.87
141.09
138.88
136.59
134.99
134.78
136.29
139.26
142.94
146.43
148.87
149.57
147.94
143.47
135.80
124.94
111.42
96.34
81.04
66.54
53.00
39.40
23.80
4.20
-20.42
-49.28
-79.70
-107.88
-130.14
-144.22
-149.93
-148.93
-143.85
-137.13
-130.23
-123.46
-116.46
-108.92
-101.04
-93.59
-87.43
-83.03
-80.11
-77.86
-75.41
-72.34
-68.84
-65.52
-62.94
-61.29
-60.25
-59.26
-57.85
-55.94
-53.83
-52.01
-50.92
-50.70
-51.17
-51.93
-52.57
-52.86
-52.90
-53.05
-53.94
-56.08
-59.65
-64.22
-68.73
-71.74
-71.80
-67.94
-60.07
-48.98
-36.14
-23.23
-11.70
-2.43
4.38
8.97
11.87
13.58
14.49
14.84
14.77
14.42
13.99
13.62
13.45
13.42
13.35
12.99
12.19
11.00
9.67
8.51
7.61
6.78
5.56
3.47
0.29
-3.80
-8.33
-12.77
-16.87
-20.71
-24.72
-29.42
-35.18
-42.08
-49.79
-57.55
-64.22
-68.46
-69.06
-65.33
-57.36
-46.07
-32.95
-19.58
-7.23
3.38
12.07
19.02
24.51
28.86
32.28
34.86
36.63
37.61
37.87
37.58
36.93
36.12
35.18
