1520270096.00
64.000000
-0.00
-0.00
-0.00
-0.00
-0.00
-0.00
-0.00
-0.00
-0.00
-0.00
0.00
0.01
0.01
-0.00
-0.03
-0.05
-0.05
0.00
0.13
0.36
0.66
1.01
1.37
1.72
2.06
2.40
2.79
3.24
3.80
4.42
5.06
5.66
6.20
6.68
7.15
7.68
8.31
9.14
10.09
11.04
11.88
12.56
13.14
13.76
14.65
15.96
17.91
20.32
22.90
25.38
27.58
29.57
31.68
34.32
37.81
42.54
48.15
54.10
59.83
64.97
69.58
74.14
79.34
85.71
93.76
103.00
112.62
121.73
129.77
136.75
143.30
150.75
157.78
166.65
177.95
191.79
206.96
220.56
228.25
225.38
208.56
176.91
132.79
80.03
22.96
-35.17
-92.77
-149.58
-205.69
-260.84
-314.20
-364.33
-410.33
-451.49
-487.19
-516.54
-538.11
-550.12
-550.83
-539.19
-515.04
-479.61
-435.02
-383.87
-328.71
-271.71
-214.53
-158.47
-104.67
-54.13
-7.95
32.96
68.04
97.22
120.85
139.56
154.00
164.64
171.80
175.60
176.27
174.24
170.16
164.80
158.80
152.48
145.80
138.44
130.11
120.76
110.73
100.67
91.23
82.83
75.49
68.81
62.24
55.26
47.50
38.71
28.96
18.84
9.71
3.56
2.42
7.43
18.02
31.91
45.73
56.39
62.20
63.25
61.00
57.24
53.25
49.45
45.71
41.86
38.03
34.58
31.81
29.71
27.94
25.97
23.41
20.20
16.66
13.33
10.71
9.06
8.29
8.02
7.71
6.90
5.39
3.34
1.35
0.16
0.34
1.92
4.24
6.26
6.94
5.85
3.35
0.37
-2.10
-3.53
-4.03
-4.13
-4.36
-4.90
-5.52
-5.87
-5.77
-5.31
-4.83
-4.59
-4.67
-4.95
-5.22
-5.35
-5.31
-5.17
-4.93
-4.54
-3.88
-2.90
-1.63
-0.22
1.17
2.39
3.39
4.16
4.66
4.82
4.56
3.91
3.06
2.34
2.10
2.53
3.58
4.96
6.33
7.47
8.33
9.05
9.81
10.66
11.51
12.13
12.32
11.94
10.97
9.52
7.67
5.59
3.25
0.70
-1.99
-4.69
-7.22
-9.41
-11.19
-12.51
-13.47
-14.15
-14.61
-14.87
-14.94
-14.80
-14.47
-13.94
-13.13
-11.97
-10.36
-8.33
-6.02
-3.70
-1.60
0.11
1.37
2.25
2.82
3.11
3.14
2.92
2.48
1.91
1.26
0.64
0.08
-0.36
-0.65
-0.75
-0.65
-0.39
-0.04
0.29
0.53
0.66
0.69
0.68
0.63
0.54
0.44
0.38
0.45
0.69
1.09
1.53
1.82
1.79
1.39
0.73
0.04
-0.49
-0.76
-0.91
-1.20
-1.74
-2.65
-3.87
-5.19
-6.26
-6.79
-6.64
-5.81
-4.44
-2.71
-0.82
1.10
2.92
4.50
5.69
6.36
6.48
6.13
5.49
4.77
4.12
3.66
3.41
3.31
3.30
3.29
3.23
3.10
2.89
2.61
2.32
2.07
1.89
1.78
1.67
1.48
1.15
0.65
0.04
-0.61
-1.24
-1.87
-2.53
-3.29
-4.20
-5.25
-6.39
-7.55
-8.69
-9.77
-10.80
-11.82
-12.87
-13.88
-14.72
-15.18
-15.02
-14.06
-12.29
-9.82
-6.94
-3.97
-1.22
1.08
2.80
3.94
4.58
4.86
4.94
4.96
5.03
5.18
5.40
5.69
6.03
6.39
6.73
6.96
7.00
6.83
6.49
6.09
5.75
5.52
5.33
5.02
4.41
3.43
2.13
0.69
-0.71
-1.95
-2.98
-3.83
-4.57
-5.26
-5.96
-6.73
-7.68
-8.88
-10.32
-11.91
-13.42
-14.53
-14.88
-14.24
-12.57
-10.06
-7.10
-4.16
-1.61
0.37
1.80
2.83
3.62
4.25
4.72
5.02
5.17
5.26
5.38
5.62
6.01
6.48
6.95
7.34
7.58
7.64
7.55
7.34
7.05
6.69
6.26
5.73
5.04
4.21
3.27
2.30
1.34
0.45
-0.39
-1.18
-1.96
-2.82
-3.89
-5.27
-7.02
-9.02
-11.02
-12.70
-13.75
-14.01
-13.46
-12.21
-10.39
-8.17
-5.72
-3.22
-0.88
1.15
2.82
4.15
5.19
5.95
6.39
6.46
6.22
5.82
5.49
5.38
5.54
5.87
6.19
6.37
6.36
6.19
5.93
5.63
5.34
5.04
4.74
4.41
4.03
3.53
2.90
2.11
1.15
0.08
-1.07
-2.27
-3.50
-4.74
-6.00
-7.31
-8.67
-10.08
-11.40
-12.43
-12.86
-12.45
-11.06
-8.78
-5.85
-2.64
0.51
3.35
5.73
7.63
9.04
10.03
10.67
11.05
11.28
11.45
11.65
11.93
12.38
13.03
13.90
15.00
16.22
17.37
18.26
18.76
18.81
18.54
18.07
17.54
16.96
16.22
15.18
13.73
11.89
9.76
7.52
5.25
3.00
0.72
-1.59
-3.96
-6.32
-8.60
-10.74
-12.64
-14.25
-15.46
-16.16
-16.20
-15.48
-13.93
-11.59
-8.65
-5.39
-2.18
0.70
3.04
4.83
6.19
7.25
8.12
8.84
9.38
9.74
9.97
10.10
10.20
10.27
10.29
10.19
9.96
9.62
9.19
8.73
8.24
7.68
7.02
6.21
5.27
4.22
3.11
1.94
0.72
-0.58
-1.95
-3.39
-4.86
-6.35
-7.82
-9.25
-10.60
-11.81
-12.83
-13.68
-14.46
-15.35
-16.47
-17.81
-19.13
-20.05
-20.14
-19.09
-16.78
-13.34
-9.00
-4.05
1.23
6.60
11.84
16.78
21.33
25.50
29.36
33.05
36.69
40.31
43.91
47.32
50.27
52.35
53.15
52.41
50.20
46.94
43.30
40.00
37.46
35.76
34.66
33.83
33.02
32.15
31.21
30.14
28.73
26.70
23.81
20.08
15.82
11.49
7.55
4.24
1.53
-0.84
-3.19
-5.76
-8.64
-11.85
-15.32
-19.02
-22.94
-27.04
-31.22
-35.25
-38.80
-41.50
-43.03
-43.20
-42.03
-39.74
-36.75
-33.52
-30.44
-27.76
-25.48
-23.46
-21.50
-19.39
-17.03
-14.41
-11.60
-8.67
-5.75
-2.94
-0.38
1.89
3.92
5.89
8.06
10.63
13.64
16.78
19.54
21.29
21.47
19.76
16.07
10.55
3.47
-4.76
-13.59
-22.40
-30.53
-37.48
-42.96
-46.91
-49.48
-50.90
-51.38
-51.15
-50.41
-49.35
-48.07
-46.53
-44.47
-41.51
-37.20
-31.30
-23.86
-15.25
-6.15
2.75
10.87
17.90
23.79
28.66
32.68
35.87
38.11
39.25
39.13
37.78
35.40
32.30
28.79
25.05
21.17
17.15
13.03
8.94
5.07
1.62
-1.36
-3.97
-6.45
-9.03
-11.81
-14.65
-17.27
-19.32
-20.56
-20.95
-20.62
-19.79
-18.69
-17.51
-16.33
-15.25
-14.31
-13.58
-13.13
-13.02
-13.23
-13.74
-14.45
-15.22
-15.89
-16.32
-16.37
-15.91
-14.81
-12.97
-10.35
-7.07
-3.37
0.38
3.74
6.36
7.98
8.53
8.12
6.96
5.40
3.77
2.40
1.51
1.14
1.18
1.42
1.62
1.64
1.42
0.99
0.40
-0.30
-1.04
-1.80
-2.51
-3.13
-3.60
-3.89
-4.04
-4.12
-4.23
-4.47
-4.90
-5.47
-6.11
-6.69
-7.16
-7.62
-8.25
-9.34
-11.14
-13.79
-17.28
-21.42
-25.94
-30.42
-34.47
-37.68
-39.81
-40.81
-40.86
-40.31
-39.54
-38.84
-38.32
-37.94
-37.62
-37.35
-37.21
-37.30
-37.70
-38.37
-39.20
-40.04
-40.80
-41.45
-42.06
-42.71
-43.43
-44.20
-44.94
-45.47
-45.58
-45.05
-43.73
-41.61
-38.88
-35.92
-33.13
-30.88
-29.31
-28.33
-27.59
-26.67
-25.20
-22.96
-19.99
-16.51
-12.86
-9.39
-6.23
-3.33
-0.35
3.17
7.68
13.47
20.46
28.27
36.21
43.49
49.39
53.44
55.58
56.08
55.53
54.60
53.90
53.81
54.52
56.10
58.65
62.25
66.89
72.32
77.91
82.80
86.04
86.89
84.78
79.41
70.73
59.00
45.02
30.22
16.45
5.55
-1.29
-3.91
-3.14
-0.41
2.92
5.89
8.13
9.61
10.34
10.18
8.76
5.58
0.23
-7.35
-16.66
-26.75
-36.46
-45.03
-52.49
-59.70
-67.77
-77.32
-87.84
-97.76
-105.10
-108.41
-107.44
-103.03
-96.50
-89.00
-81.10
-72.96
-64.65
-56.36
-48.27
-40.38
-32.40
-23.89
-14.56
-4.52
5.87
16.19
26.23
36.04
45.76
55.32
64.33
72.11
77.91
81.20
81.76
79.66
75.24
69.11
62.25
55.99
51.85
51.14
54.36
60.91
69.01
76.32
80.78
81.35
78.34
73.07
67.05
61.32
56.01
50.56
44.13
36.07
26.17
14.66
2.11
-10.69
-22.72
-33.01
-40.78
-45.73
-48.17
-48.90
-48.98
-49.34
-50.60
-52.94
-56.05
-59.09
-60.81
-59.74
-54.67
-45.16
-31.83
-16.38
-1.04
12.06
21.52
26.90
28.60
27.47
24.41
20.14
15.19
9.96
4.77
-0.14
-4.62
-8.63
-12.23
-15.55
-18.71
-21.77
-24.66
-27.12
-28.75
-29.11
-27.92
-25.19
-21.28
-16.81
-12.44
-8.60
-5.45
-2.83
-0.49
1.71
3.72
5.36
6.40
6.80
6.71
6.47
6.40
6.68
7.27
7.98
8.58
8.91
8.95
8.82
8.65
8.55
8.49
8.37
8.02
7.36
6.40
5.30
4.27
3.49
2.96
2.52
1.88
0.79
-0.87
-2.99
-5.36
-7.70
-9.77
-11.34
-12.17
-11.99
-10.60
-7.99
-4.44
-0.40
3.63
7.28
10.40
13.05
15.28
17.08
18.32
18.91
18.86
18.36
17.73
17.28
17.19
17.48
18.04
18.71
19.30
19.70
19.87
19.81
19.52
18.97
18.13
16.95
15.42
13.60
11.63
9.64
7.69
5.78
3.85
1.84
-0.22
-2.24
-4.17
-6.04
-7.97
-10.10
-12.38
-14.53
-16.11
-16.63
-15.80
-13.62
-10.38
-6.52
-2.43
1.60
5.37
8.73
11.54
13.66
15.02
15.63
15.64
15.27
14.76
14.34
14.20
14.41
14.93
15.60
16.20
16.54
16.56
16.34
16.05
15.82
15.67
15.45
14.98
14.13
12.88
11.38
9.81
8.36
7.11
6.03
5.07
4.12
3.10
1.91
0.49
-1.20
-3.14
-5.25
-7.31
-9.06
-10.20
-10.44
-9.61
-7.66
-4.74
-1.16
2.64
6.18
9.10
11.20
12.48
13.14
13.42
13.57
13.68
13.75
13.68
13.43
13.00
12.51
12.09
11.83
11.74
11.79
11.89
12.00
12.11
12.22
12.30
12.24
11.94
11.27
10.26
8.99
7.62
6.32
5.19
4.23
3.34
2.41
1.27
-0.19
-1.97
-4.00
-6.06
-7.91
-9.26
-9.92
-9.75
-8.73
-6.92
-4.53
-1.82
0.88
3.26
5.10
6.33
7.03
7.32
7.34
7.13
6.74
6.22
5.69
5.30
5.14
5.21
5.39
5.53
5.51
5.34
5.09
4.90
4.86
4.96
5.11
5.13
4.88
4.25
3.27
2.06
0.82
-0.29
-1.21
-1.96
-2.70
-3.58
-4.69
-6.05
-7.56
-9.02
-10.20
-10.88
-10.88
-10.09
-8.56
-6.47
-4.12
-1.85
0.10
1.68
2.91
3.90
4.70
5.30
5.62
5.59
5.25
4.72
4.19
3.86
3.80
3.99
4.33
4.65
4.82
4.77
4.47
4.00
3.47
2.98
2.61
2.40
2.26
2.08
1.73
1.15
0.35
-0.61
-1.64
-2.69
-3.77
-4.91
-6.15
-7.41
-8.61
-9.64
-10.43
-10.93
-11.11
-10.93
-10.30
-9.17
-7.58
-5.70
-3.76
-1.98
-0.50
0.65
1.49
2.06
2.34
2.29
1.94
1.41
0.90
0.59
0.57
0.83
1.23
1.64
1.97
2.20
2.35
2.44
2.45
2.35
2.05
1.57
0.94
0.27
-0.33
-0.78
-1.03
-1.16
-1.25
-1.43
-1.83
-2.47
-3.34
-4.34
-5.35
-6.28
-7.10
-7.83
-8.53
-9.23
-9.86
-10.27
-10.26
-9.69
-8.55
-6.98
-5.21
-3.51
-2.04
-0.83
0.19
1.08
1.85
2.43
2.67
2.51
2.02
1.43
1.03
1.00
1.38
2.02
2.67
3.11
3.30
3.28
3.19
3.10
2.97
2.70
2.17
1.38
0.46
-0.36
-0.94
-1.23
-1.35
-1.50
-1.86
-2.50
-3.39
-4.40
-5.34
-6.12
-6.67
-7.05
-7.39
-7.82
-8.42
-9.17
-9.89
-10.33
-10.25
-9.52
-8.16
-6.39
-4.49
-2.70
-1.16
0.12
1.17
2.03
2.70
3.09
3.17
2.93
2.46
1.92
1.47
1.23
1.21
1.36
1.60
1.86
2.11
2.33
2.49
2.52
2.35
1.96
1.40
0.78
0.25
-0.14
-0.40
-0.62
-0.92
-1.38
-2.02
-2.76
-3.48
-4.09
-4.53
-4.83
-5.09
-5.43
-5.94
-6.61
-7.36
-7.99
-8.32
-8.19
-7.56
-6.48
-5.05
-3.44
-1.83
-0.38
0.75
1.50
1.85
1.88
1.70
1.40
1.01
0.57
0.08
-0.36
-0.67
-0.75
-0.60
-0.30
0.01
0.25
0.39
0.51
0.66
0.84
0.99
0.98
0.74
0.25
-0.44
-1.21
-1.93
-2.50
-2.87
-3.05
-3.16
-3.34
-3.75
-4.43
-5.35
-6.38
-7.36
-8.17
-8.73
-8.93
-8.69
-7.91
-6.58
-4.79
-2.77
-0.83
0.79
1.96
2.70
3.10
3.25
3.21
3.01
2.65
2.23
1.84
1.60
1.58
1.73
1.94
2.08
2.04
1.84
1.56
1.34
1.26
1.35
1.53
1.69
1.69
1.48
1.05
0.45
-0.21
-0.86
-1.44
-1.95
-2.48
-3.12
-3.93
-4.87
-5.88
-6.82
-7.64
-8.32
-8.89
-9.38
-9.70
-9.68
-9.14
-7.95
-6.18
-4.01
-1.76
0.30
1.96
3.13
3.81
4.02
3.84
3.36
2.77
2.27
2.04
2.16
2.60
3.19
3.70
3.99
4.03
3.91
3.83
3.88
4.05
4.19
4.07
3.58
2.71
1.59
0.45
-0.52
-1.23
-1.74
-2.19
-2.70
-3.31
-3.91
-4.39
-4.68
-4.86
-5.13
-5.72
-6.78
-8.21
-9.72
-10.87
-11.32
-10.90
-9.68
-7.93
-5.93
-3.93
-2.06
-0.39
1.05
2.24
3.18
3.88
4.39
4.76
5.03
5.19
5.24
5.15
4.96
4.71
4.50
4.37
4.38
4.54
4.83
5.14
5.34
5.29
4.87
4.12
3.18
2.22
1.40
0.76
0.22
-0.28
-0.80
-1.31
-1.74
-2.05
-2.28
-2.54
-2.98
-3.73
-4.78
-6.08
-7.46
-8.75
-9.80
-10.47
-10.69
-10.41
-9.60
-8.28
-6.47
-4.30
-1.96
0.30
2.24
3.69
4.61
5.06
5.15
4.98
4.64
4.21
3.79
3.47
3.36
3.47
3.74
4.09
4.40
4.65
4.83
4.96
5.03
4.98
4.71
4.19
3.47
2.65
1.89
1.27
0.78
0.34
-0.18
-0.89
-1.79
-2.81
-3.84
-4.74
-5.47
-6.05
-6.60
-7.26
-8.10
-9.07
-9.95
-10.44
-10.24
-9.20
-7.37
-4.98
-2.44
-0.12
1.73
3.01
3.75
4.08
4.11
3.94
3.67
3.38
3.16
3.08
3.19
3.47
3.90
4.46
5.08
5.65
6.04
6.09
5.70
4.94
3.97
3.06
2.36
1.88
1.50
1.06
0.47
-0.22
-0.90
-1.45
-1.87
-2.25
-2.72
-3.34
-4.09
-4.92
-5.80
-6.75
-7.81
-8.99
-10.14
-11.05
-11.48
-11.21
-10.18
-8.43
-6.17
-3.65
-1.17
1.05
2.84
4.18
5.10
5.65
5.92
5.94
5.76
5.46
5.14
4.90
4.84
4.99
5.30
5.69
6.09
6.42
6.66
6.79
6.81
6.68
6.35
5.80
5.08
4.24
3.42
2.72
2.19
1.77
1.33
0.77
0.01
-0.90
-1.86
-2.73
-3.48
-4.11
-4.73
-5.46
-6.41
-7.58
-8.89
-10.12
-11.03
-11.37
-10.98
-9.82
-7.98
-5.69
-3.22
-0.82
1.32
3.09
4.47
5.46
6.11
6.44
6.50
6.35
6.06
5.72
5.46
5.37
5.51
5.86
6.35
6.88
7.36
7.72
7.92
7.91
7.67
7.19
6.53
5.80
5.15
4.72
4.51
4.38
4.13
3.55
2.58
1.31
-0.02
-1.19
-2.08
-2.71
-3.24
-3.85
-4.66
-5.70
-6.94
-8.25
-9.54
-10.64
-11.36
-11.47
-10.82
-9.38
-7.25
-4.75
-2.20
0.09
1.93
3.30
4.27
4.91
5.32
5.54
5.64
5.71
5.85
6.13
6.49
6.80
6.88
6.69
6.30
5.91
5.75
5.92
6.37
6.88
7.18
7.09
6.57
5.78
4.92
4.16
3.57
3.11
2.71
2.28
1.80
1.25
0.63
-0.08
-0.87
-1.71
-2.57
-3.41
-4.25
-5.17
-6.19
-7.32
-8.45
-9.40
-10.04
-10.25
-9.99
-9.20
-7.84
-5.89
-3.48
-0.86
1.64
3.74
5.31
6.39
7.13
7.63
7.92
7.93
7.62
7.08
6.51
6.11
6.04
6.32
6.82
7.36
7.76
7.95
7.94
7.79
7.57
7.29
6.94
6.49
5.95
5.36
4.79
4.27
3.76
3.24
2.65
1.99
1.29
0.60
-0.06
-0.70
-1.36
-2.05
-2.74
-3.43
-4.13
-4.89
-5.75
-6.69
-7.57
-8.20
-8.35
-7.89
-6.79
-5.15
-3.14
-0.97
1.12
2.94
4.32
5.19
5.59
5.64
5.50
5.28
5.02
4.69
4.26
3.78
3.36
3.13
3.19
3.50
3.95
4.36
4.59
4.58
4.34
3.94
3.43
2.89
2.37
1.88
1.45
1.06
0.71
0.41
0.15
-0.10
-0.45
-0.98
-1.71
-2.58
-3.44
-4.14
-4.63
-5.01
-5.42
-6.00
-6.70
-7.35
-7.69
-7.53
-6.85
-5.75
-4.40
-2.95
-1.43
0.14
1.69
3.07
4.09
4.58
4.55
4.13
3.57
3.10
2.84
2.78
2.86
3.02
3.26
3.62
4.13
4.71
5.19
5.39
5.18
4.56
3.66
2.69
1.84
1.24
0.91
0.77
0.66
0.44
0.04
-0.53
-1.19
-1.81
-2.29
-2.64
-2.94
-3.34
-3.99
-4.98
-6.25
-7.62
-8.84
-9.64
-9.87
-9.46
-8.48
-7.07
-5.40
-3.63
-1.89
-0.31
1.00
1.97
2.59
2.96
3.20
3.45
3.73
3.97
4.04
3.85
3.45
2.99
2.71
2.77
3.16
3.69
4.14
4.32
4.23
3.96
3.68
3.47
3.30
3.07
2.71
2.17
1.53
0.89
0.33
-0.11
-0.48
-0.82
-1.17
-1.57
-2.05
-2.63
-3.35
-4.19
-5.12
-6.11
-7.10
-8.08
-9.01
-9.80
-10.33
-10.42
-9.93
-8.80
-7.13
-5.13
-3.10
-1.29
0.12
1.10
1.73
2.17
2.57
3.03
3.52
3.97
4.25
4.29
4.10
3.74
3.34
2.99
2.77
2.72
2.88
3.23
3.73
4.23
4.58
4.62
4.25
3.51
2.55
1.58
0.76
0.15
-0.28
-0.59
-0.87
-1.17
-1.50
-1.87
-2.33
-2.93
-3.71
-4.68
-5.80
-6.94
-7.99
-8.82
-9.33
-9.48
-9.22
-8.57
-7.53
-6.18
-4.62
-2.96
-1.33
0.14
1.37
2.29
2.89
3.18
3.22
3.08
2.86
2.65
2.51
2.48
2.61
2.89
3.33
3.87
4.41
4.85
5.08
5.06
4.81
4.45
4.08
3.76
3.51
3.26
2.97
2.60
2.18
1.74
1.26
0.72
0.08
-0.64
-1.40
-2.10
-2.70
-3.21
-3.71
-4.31
-5.06
-5.97
-6.95
-7.89
-8.65
-9.10
-9.11
-8.60
-7.55
-6.03
-4.23
-2.39
-0.74
0.58
1.54
2.16
2.51
2.63
2.57
2.38
2.16
2.03
2.05
2.22
2.47
2.68
2.77
2.75
2.67
2.62
2.65
2.75
2.86
2.90
2.81
2.58
2.22
1.78
1.32
0.87
0.40
-0.17
-0.91
-1.82
-2.80
-3.67
-4.30
-4.71
-5.05
-5.54
-6.31
-7.31
-8.28
-8.90
-8.97
-8.43
-7.41
-6.08
-4.60
-3.05
-1.48
0.02
1.36
2.44
3.16
3.54
3.59
3.43
3.17
2.93
2.81
2.82
2.96
3.14
3.30
3.38
3.37
3.30
3.20
3.12
3.06
3.03
3.02
2.95
2.74
2.34
1.73
0.96
0.12
-0.70
-1.39
-1.93
-2.29
-2.51
-2.69
-2.91
-3.31
-3.98
-4.93
-6.09
-7.36
-8.60
-9.68
-10.48
-10.85
-10.61
-9.66
-8.00
-5.82
-3.44
-1.24
0.50
1.69
2.41
2.84
3.14
3.40
3.59
3.68
3.67
3.67
3.78
4.08
4.54
5.06
5.51
5.82
5.96
5.99
5.96
5.87
5.70
5.41
5.00
4.53
4.06
3.63
3.19
2.66
1.98
1.16
0.32
-0.39
-0.91
-1.27
-1.64
-2.20
-3.06
-4.17
-5.39
-6.54
-7.55
-8.46
-9.37
-10.31
-11.22
-11.86
-11.98
-11.41
-10.10
-8.23
-6.08
-3.89
-1.87
-0.12
1.32
2.48
3.39
4.08
4.58
4.90
5.01
4.91
4.60
4.17
3.77
3.59
3.73
4.22
4.92
5.69
6.36
6.85
7.10
7.12
6.85
6.30
5.49
4.54
3.61
2.85
2.34
2.02
1.77
1.42
0.88
0.11
-0.83
-1.79
-2.64
-3.28
-3.73
-4.12
-4.69
-5.62
-6.98
-8.65
-10.35
-11.74
-12.55
-12.60
-11.88
-10.44
-8.42
-6.02
-3.50
-1.13
0.85
2.30
3.19
3.63
3.81
3.88
3.97
4.14
4.41
4.76
5.16
5.54
5.87
6.13
6.30
6.40
6.44
6.48
6.52
6.60
6.66
6.66
6.51
6.12
5.49
4.69
3.81
2.97
2.23
1.61
1.06
0.55
0.03
-0.53
-1.13
-1.76
-2.40
-3.02
-3.63
-4.28
-5.06
-6.06
-7.33
-8.78
-10.22
-11.38
-11.98
-11.83
-10.86
-9.19
-7.04
-4.66
-2.31
-0.17
1.69
3.23
4.46
5.40
6.05
6.39
6.44
6.23
5.85
5.44
5.12
5.02
5.20
5.62
6.18
6.76
7.24
7.51
7.57
7.43
7.16
6.81
6.39
5.92
5.42
4.91
4.44
4.06
3.78
3.60
3.42
3.15
2.69
2.02
1.22
0.38
-0.39
-1.11
-1.89
-2.86
-4.16
-5.77
-7.51
-9.10
-10.25
-10.74
-10.54
-9.73
-8.47
-6.93
-5.22
-3.42
-1.61
0.09
1.51
2.51
3.05
3.18
3.06
2.85
2.65
2.49
2.38
2.31
2.34
2.49
2.78
3.12
3.39
3.50
3.41
3.22
3.04
2.96
2.96
2.96
2.81
2.43
1.81
1.06
0.32
-0.31
-0.82
-1.27
-1.76
-2.36
-3.07
-3.83
-4.61
-5.37
-6.15
-6.96
-7.79
-8.53
-9.03
-9.13
-8.75
-7.84
-6.45
-4.70
-2.75
-0.84
0.86
2.22
3.20
3.86
4.26
4.45
4.45
4.28
4.00
3.70
3.48
3.37
3.38
3.46
3.63
3.90
4.30
4.72
5.02
5.03
4.69
4.05
3.28
2.57
2.01
1.59
1.21
0.76
0.21
-0.44
-1.17
-1.96
-2.79
-3.66
-4.54
-5.40
-6.24
-7.05
-7.86
-8.72
-9.62
-10.50
-11.21
-11.54
-11.27
-10.24
-8.48
-6.16
-3.59
-1.14
0.93
2.45
3.43
3.97
4.20
4.23
4.14
3.98
3.77
3.58
3.49
3.56
3.79
4.16
4.60
5.05
5.46
5.80
6.05
6.15
6.03
5.68
5.16
4.56
3.97
3.44
2.93
2.35
1.66
0.84
-0.05
-0.92
-1.69
-2.32
-2.83
-3.24
-3.62
-4.04
-4.61
-5.42
-6.50
-7.79
-9.12
-10.27
-11.04
-11.30
-10.98
-10.13
-8.82
-7.15
-5.26
-3.34
-1.56
-0.07
1.09
1.98
2.70
3.34
3.93
4.39
4.64
4.70
4.63
4.59
4.69
4.95
5.29
5.61
5.82
5.91
5.89
5.81
5.65
5.34
4.87
4.22
3.45
2.69
1.99
1.40
0.87
0.33
-0.30
-1.01
-1.76
-2.48
-3.11
-3.63
-4.12
-4.65
-5.31
-6.14
-7.12
-8.19
-9.20
-10.00
-10.37
-10.14
-9.18
-7.53
-5.35
-2.95
-0.69
1.15
2.42
3.16
3.53
3.75
3.96
4.23
4.53
4.79
4.99
5.13
5.27
5.45
5.70
6.02
6.36
6.64
6.77
6.68
6.37
5.86
5.23
4.59
4.01
3.52
3.09
2.67
2.19
1.60
0.91
0.13
-0.68
-1.50
-2.31
-3.10
-3.88
-4.63
-5.34
-6.00
-6.63
-7.23
-7.83
-8.36
-8.74
-8.80
-8.38
-7.42
-5.94
-4.08
-2.09
-0.20
1.38
2.55
3.29
3.66
3.78
3.80
3.84
3.98
4.19
4.43
4.63
4.77
4.86
4.95
5.08
5.24
5.40
5.52
5.56
5.52
5.39
5.15
4.77
4.24
3.65
3.11
2.77
2.68
2.75
2.77
2.53
1.87
0.81
-0.51
-1.82
-2.92
-3.68
-4.15
-4.45
-4.75
-5.19
-5.83
-6.60
-7.37
-7.92
-8.06
-7.63
-6.62
-5.11
-3.29
-1.40
0.34
1.75
2.74
3.29
3.44
3.32
3.08
2.85
2.73
2.77
2.95
3.22
3.48
3.64
3.60
3.34
2.90
2.39
1.99
1.81
1.91
2.18
2.45
2.51
2.26
1.68
0.88
-0.01
-0.86
-1.54
-2.00
-2.24
-2.31
-2.34
-2.46
-2.79
-3.42
-4.33
-5.45
-6.60
-7.61
-8.27
-8.39
-7.89
-6.80
-5.26
-3.53
-1.81
-0.26
1.06
2.14
3.00
3.65
4.06
4.23
4.22
4.08
3.90
3.72
3.60
3.53
3.52
3.59
3.74
3.96
4.20
4.36
4.36
4.14
3.70
3.12
2.50
1.93
1.49
1.17
0.93
0.73
0.50
0.20
-0.19
-0.68
-1.25
-1.87
-2.47
-3.04
-3.58
-4.14
-4.76
-5.52
-6.44
-7.48
-8.53
-9.45
-10.06
-10.23
-9.86
-8.93
-7.52
-5.75
-3.81
-1.90
-0.20
1.15
2.10
2.67
2.92
2.95
2.88
2.78
2.69
2.64
2.65
2.69
2.77
2.85
2.95
3.10
3.33
3.66
4.04
4.35
4.45
4.26
3.78
3.14
2.53
2.04
1.69
1.37
0.95
0.35
-0.39
-1.14
-1.80
-2.28
-2.60
-2.81
-3.00
-3.28
-3.75
-4.54
-5.71
-7.21
-8.83
-10.21
-10.96
-10.81
-9.73
-7.89
-5.65
-3.38
-1.38
0.15
1.19
1.78
2.06
2.18
2.29
2.49
2.76
3.02
3.15
3.09
2.85
2.57
2.41
2.49
2.84
3.36
3.90
4.31
4.50
4.49
4.33
4.09
3.80
3.48
3.12
2.70
2.24
1.72
1.14
0.46
-0.33
-1.20
-2.05
-2.79
-3.36
-3.78
-4.16
-4.66
-5.37
-6.33
-7.41
-8.46
-9.25
-9.61
-9.39
-8.55
-7.12
-5.25
-3.15
-1.12
0.63
1.96
2.86
3.38
3.63
3.70
3.65
3.55
3.48
3.52
3.74
4.11
4.55
4.96
5.24
5.37
5.36
5.23
5.03
4.75
4.43
4.06
3.65
3.21
2.74
2.27
1.83
1.45
1.10
0.73
0.29
-0.27
-0.91
-1.53
-2.07
-2.47
-2.82
-3.25
-3.93
-4.95
-6.28
-7.72
-8.94
-9.63
-9.58
-8.76
-7.35
-5.63
-3.88
-2.30
-0.97
0.11
0.95
1.58
1.99
2.18
2.16
2.00
1.75
1.52
1.36
1.33
1.46
1.71
2.01
2.27
2.42
2.48
2.49
2.52
2.62
2.69
2.65
2.34
1.75
0.89
-0.10
-1.08
-1.94
-2.64
-3.18
-3.59
-3.94
-4.26
-4.63
-5.11
-5.78
-6.67
-7.77
-8.94
-9.96
-10.55
-10.48
-9.61
-7.99
-5.84
-3.51
-1.32
0.47
1.74
2.50
2.85
2.92
2.83
2.66
2.45
2.23
2.05
1.93
1.94
2.13
2.53
3.08
3.65
4.08
4.23
4.06
3.64
3.13
2.68
2.36
2.10
1.80
1.34
0.73
0.11
-0.40
-0.70
-0.87
-1.09
-1.57
-2.38
-3.47
-4.68
-5.83
-6.86
-7.81
-8.70
-9.50
-10.08
-10.24
-9.86
-8.93
-7.56
-5.96
-4.33
-2.77
-1.31
0.02
1.20
2.15
2.79
3.08
3.10
2.98
2.89
2.94
3.17
3.51
3.85
4.13
4.34
4.51
4.67
4.83
4.91
4.86
4.62
4.21
3.64
2.93
2.06
1.06
-0.02
-1.04
-1.86
-2.42
-2.74
-2.99
-3.40
-4.13
-5.23
-6.61
-8.08
-9.36
-10.18
-10.29
-9.56
-8.03
-5.93
-3.63
-1.55
0.06
1.10
1.71
2.11
2.51
3.03
3.69
4.43
5.12
5.68
6.03
6.16
6.09
5.91
5.70
5.54
5.45
5.42
5.39
5.30
5.11
4.80
4.40
3.91
3.37
2.76
2.08
1.28
0.36
-0.65
-1.66
-2.59
-3.42
-4.24
-5.19
-6.33
-7.59
-8.68
-9.26
-9.03
-7.94
-6.18
-4.11
-2.08
-0.33
1.05
2.09
2.83
3.30
3.46
3.32
2.91
2.35
1.75
1.27
0.98
0.95
1.15
1.52
1.99
2.46
2.83
3.05
3.06
2.91
2.64
2.35
2.08
1.80
1.44
0.94
0.25
-0.56
-1.39
-2.13
-2.77
-3.38
-4.09
-5.00
-6.08
-7.20
-8.17
-8.75
-8.81
-8.27
-7.16
-5.63
-3.86
-2.05
-0.37
1.13
2.46
3.68
4.82
5.85
6.63
7.04
7.00
6.60
6.06
5.62
5.51
5.81
6.42
7.16
7.80
8.20
8.30
8.12
7.76
7.28
6.71
6.04
5.28
4.46
3.66
2.91
2.19
1.47
0.66
-0.26
-1.25
-2.19
-3.00
-3.66
-4.25
-4.93
-5.80
-6.83
-7.86
-8.59
-8.76
-8.22
-6.99
-5.24
-3.20
-1.10
0.93
2.82
4.52
5.98
7.08
7.70
7.75
7.31
6.57
5.83
5.39
5.38
5.76
6.36
6.93
7.29
7.38
7.22
6.88
6.47
6.04
5.64
5.30
4.98
4.62
4.13
3.46
2.64
1.74
0.88
0.16
-0.38
-0.77
-1.07
-1.38
-1.81
-2.47
-3.48
-4.89
-6.61
-8.45
-10.07
-11.10
-11.27
-10.48
-8.82
-6.58
-4.13
-1.80
0.17
1.71
2.82
3.56
3.97
4.10
3.95
3.54
2.98
2.40
1.95
1.76
1.85
2.16
2.57
2.99
3.34
3.63
3.85
4.00
4.04
3.88
3.48
2.83
1.97
1.01
0.08
-0.73
-1.34
-1.75
-2.01
-2.23
-2.51
-2.97
-3.72
-4.81
-6.22
-7.81
-9.30
-10.36
-10.66
-10.04
-8.51
-6.29
-3.75
-1.25
0.93
2.64
3.87
4.66
5.06
5.15
4.94
4.51
3.96
3.43
3.10
3.10
3.48
4.15
4.92
5.53
5.77
5.60
5.08
4.39
3.74
3.23
2.89
2.65
2.38
1.98
1.43
0.77
0.07
-0.60
-1.23
-1.84
-2.48
-3.15
-3.87
-4.63
-5.47
-6.42
-7.48
-8.60
-9.59
-10.23
-10.31
-9.75
-8.57
-6.89
-4.86
-2.64
-0.36
1.82
3.68
5.04
5.80
6.00
5.76
5.27
4.69
4.12
3.67
3.42
3.45
3.78
4.34
4.92
5.33
5.44
5.28
4.97
4.65
4.40
4.15
3.79
3.18
2.32
1.28
0.22
-0.69
-1.38
-1.85
-2.18
-2.53
-3.04
-3.79
-4.82
-6.07
-7.41
-8.66
-9.64
-10.20
-10.24
-9.73
-8.70
-7.25
-5.52
-3.65
-1.81
-0.08
1.43
2.65
3.52
4.05
4.28
4.30
4.27
4.27
4.36
4.48
4.55
4.49
4.30
4.07
3.92
3.94
4.14
4.44
4.68
4.73
4.55
4.15
3.62
3.02
2.43
1.85
1.28
0.72
0.16
-0.40
-0.98
-1.65
-2.46
-3.44
-4.59
-5.82
-7.04
-8.15
-9.08
-9.80
-10.29
-10.46
-10.22
-9.46
-8.10
-6.24
-4.06
-1.88
0.05
1.58
2.72
3.58
4.27
4.81
5.13
5.15
4.84
4.28
3.68
3.25
3.14
3.36
3.85
4.45
5.02
5.45
5.65
5.58
5.23
4.63
3.86
3.02
2.23
1.58
1.10
0.75
0.42
-0.01
-0.58
-1.27
-2.00
-2.70
-3.38
-4.08
-4.89
-5.86
-6.96
-8.12
-9.23
-10.18
-10.85
-11.08
-10.71
-9.63
-7.88
-5.66
-3.32
-1.18
0.52
1.75
2.59
3.15
3.47
3.58
3.48
3.24
2.99
2.85
2.87
3.02
3.22
3.41
3.61
3.88
4.25
4.66
5.01
5.16
5.09
4.88
4.64
4.44
4.25
3.96
3.49
2.81
1.97
1.08
0.22
-0.57
-1.29
-1.92
-2.48
-2.98
-3.46
-4.00
-4.71
-5.63
-6.72
-7.82
-8.74
-9.23
-9.14
-8.40
-7.05
-5.27
-3.30
-1.40
0.24
1.55
2.53
3.22
3.62
3.70
3.44
2.89
2.19
1.60
1.33
1.51
2.10
2.90
3.65
4.15
4.31
4.18
3.88
3.53
3.18
2.78
2.30
1.75
1.20
0.76
0.50
0.35
0.17
-0.24
-0.94
-1.86
-2.78
-3.50
-3.96
-4.27
-4.69
-5.42
-6.50
-7.77
-8.91
-9.62
-9.71
-9.12
-7.93
-6.24
-4.21
-2.01
0.12
1.96
3.35
4.21
4.59
4.63
4.44
4.13
3.78
3.49
3.35
3.44
3.79
4.32
4.88
5.30
5.48
5.42
5.20
4.92
4.62
4.31
3.94
3.44
2.77
1.94
0.99
-0.01
-1.00
-1.89
-2.64
-3.26
-3.80
-4.33
-4.94
-5.69
-6.62
-7.74
-8.98
-10.20
-11.20
-11.72
-11.56
-10.59
-8.86
-6.60
-4.11
-1.74
0.28
1.82
2.87
3.48
3.73
3.68
3.43
3.10
2.83
2.77
2.98
3.47
4.15
4.88
5.51
5.96
6.19
6.20
6.04
5.77
5.47
5.16
4.87
4.56
4.19
3.71
3.10
2.36
1.49
0.53
-0.48
-1.48
-2.39
-3.20
-3.91
-4.58
-5.30
-6.13
-7.11
-8.19
-9.30
-10.26
-10.87
-10.93
-10.29
-8.92
-6.95
-4.62
-2.25
-0.10
1.66
2.95
3.78
4.21
4.34
4.33
4.31
4.41
4.67
5.02
5.38
5.67
5.88
6.08
6.30
6.56
6.79
6.91
6.85
6.61
6.23
5.78
5.30
4.78
4.23
3.62
2.93
2.16
1.32
0.42
-0.53
-1.45
-2.31
-3.12
-3.88
-4.64
-5.43
-6.29
-7.27
-8.40
-9.64
-10.87
-11.86
-12.32
-12.01
-10.82
-8.85
-6.34
-3.64
-1.04
1.20
2.95
4.14
4.80
5.02
4.97
4.82
4.73
4.80
5.03
5.40
5.80
6.13
6.30
6.33
6.28
6.27
6.39
6.63
6.90
7.05
6.96
6.60
6.00
5.24
4.45
3.69
2.99
2.38
1.84
1.33
0.80
0.17
-0.58
-1.43
-2.32
-3.18
-3.96
-4.72
-5.56
-6.58
-7.83
-9.24
-10.61
-11.67
-12.10
-11.69
-10.41
-8.43
-6.09
-3.69
-1.52
0.29
1.72
2.79
3.51
3.89
3.96
3.80
3.55
3.39
3.43
3.72
4.19
4.73
5.23
5.65
5.96
6.18
6.32
6.37
6.29
6.06
5.66
5.16
4.66
4.26
4.00
3.84
3.68
3.39
2.92
2.26
1.48
0.64
-0.22
-1.09
-1.99
-2.92
-3.84
-4.74
-5.65
-6.62
-7.70
-8.82
-9.80
-10.34
-10.19
-9.23
-7.56
-5.43
-3.18
-1.07
0.74
2.21
3.38
4.27
4.90
5.30
5.50
5.56
5.52
5.40
5.24
5.06
4.93
4.95
5.16
5.57
6.10
6.57
6.83
6.73
6.27
5.51
4.63
3.83
3.23
2.88
2.67
2.47
2.13
1.55
0.77
-0.13
-1.04
-1.89
-2.63
-3.21
-3.62
-3.93
-4.29
-4.91
-5.98
-7.50
-9.23
-10.73
-11.54
-11.33
-10.10
-8.10
-5.73
-3.38
-1.26
0.52
1.97
3.07
3.78
4.09
4.03
3.71
3.29
2.93
2.71
2.62
2.61
2.61
2.63
2.68
2.85
3.15
3.53
3.86
3.99
3.88
3.56
3.17
2.81
2.53
2.23
1.79
1.11
0.20
-0.80
-1.72
-2.42
-2.85
-3.08
-3.27
-3.59
-4.15
-5.04
-6.24
-7.65
-9.10
-10.37
-11.20
-11.40
-10.86
-9.58
-7.72
-5.53
-3.31
-1.30
0.35
1.62
2.54
3.15
3.49
3.61
3.58
3.49
3.44
3.48
3.63
3.84
4.08
4.33
4.60
4.86
5.09
5.21
5.19
5.02
4.74
4.37
3.93
3.43
2.89
2.33
1.80
1.34
0.91
0.45
-0.12
-0.84
-1.65
-2.46
-3.16
-3.72
-4.23
-4.84
-5.73
-6.95
-8.44
-9.94
-11.16
-11.82
-11.76
-10.94
-9.47
-7.51
-5.24
-2.87
-0.62
1.30
2.74
3.65
4.10
4.23
4.25
4.29
4.42
4.61
4.82
5.01
5.17
5.34
5.54
5.77
5.98
6.14
6.20
6.16
6.06
5.90
5.70
5.44
5.08
4.58
3.94
3.19
2.40
1.60
0.85
0.13
-0.57
-1.28
-1.99
-2.69
-3.34
-3.97
-4.61
-5.34
-6.22
-7.27
-8.43
-9.57
-10.46
-10.86
-10.57
-9.48
-7.62
-5.19
-2.52
0.01
2.06
3.45
4.19
4.42
4.36
4.22
4.16
4.24
4.45
4.75
5.08
5.40
5.68
5.94
6.14
6.29
6.33
6.25
6.01
5.64
5.16
4.62
4.07
3.56
3.14
2.83
2.61
2.41
2.11
1.65
1.01
0.25
-0.52
-1.21
-1.80
-2.35
-2.97
-3.71
-4.61
-5.62
-6.71
-7.84
-8.93
-9.84
-10.38
-10.33
-9.55
-8.04
-5.95
-3.60
-1.30
0.65
2.09
2.99
3.44
3.62
3.71
3.88
4.18
4.62
5.09
5.46
5.65
5.64
5.52
5.37
5.29
5.30
5.35
5.40
5.42
5.46
5.54
5.67
5.77
5.71
5.40
4.79
3.98
3.10
2.30
1.66
1.16
0.73
0.27
-0.26
-0.89
-1.56
-2.25
-2.93
-3.67
-4.56
-5.64
-6.86
-8.00
-8.79
-8.99
-8.51
-7.46
-6.05
-4.48
-2.86
-1.22
0.43
1.98
3.28
4.15
4.51
4.43
4.07
3.65
3.31
3.11
3.03
3.02
3.06
3.11
3.18
3.27
3.38
3.52
3.70
3.91
4.14
4.34
4.43
4.31
3.89
3.19
2.27
1.32
0.51
-0.06
-0.37
-0.55
-0.76
-1.14
-1.73
-2.50
-3.35
-4.17
-4.90
-5.55
-6.13
-6.67
-7.13
-7.43
-7.45
-7.10
-6.33
-5.18
-3.78
-2.25
-0.76
0.57
1.66
2.44
2.91
3.11
3.08
2.90
2.63
2.33
2.07
1.93
1.98
2.26
2.72
3.24
3.66
3.89
3.93
3.88
3.87
3.96
4.06
3.99
3.61
2.89
1.99
1.14
0.52
0.16
-0.03
-0.24
-0.59
-1.12
-1.79
-2.51
-3.23
-3.95
-4.69
-5.47
-6.32
-7.21
-8.14
-9.06
-9.82
-10.24
-10.14
-9.38
-7.98
-6.07
-3.90
-1.74
0.19
1.71
2.72
3.23
3.30
3.05
2.62
2.17
1.78
1.56
1.56
1.79
2.28
2.95
3.68
4.30
4.64
4.64
4.34
3.92
3.57
3.41
3.45
3.52
3.46
3.13
2.54
1.82
1.10
0.48
-0.05
-0.61
-1.28
-2.11
-2.98
-3.75
-4.34
-4.72
-5.03
-5.48
-6.22
-7.28
-8.52
-9.63
-10.30
-10.31
-9.61
-8.34
-6.75
-5.07
-3.45
-1.95
-0.61
0.51
1.35
1.89
2.15
2.26
2.39
2.65
3.04
3.46
3.78
3.95
3.99
4.01
4.13
4.36
4.65
4.87
4.95
4.86
4.67
4.48
4.32
4.17
3.94
3.56
2.99
2.30
1.58
0.92
0.39
0.01
-0.27
-0.50
-0.79
-1.21
-1.85
-2.71
-3.75
-4.87
-5.98
-7.02
-7.98
-8.85
-9.62
-10.19
-10.43
-10.17
-9.31
-7.88
-6.03
-4.03
-2.16
-0.62
0.54
1.39
2.05
2.61
3.13
3.56
3.88
4.04
4.08
4.07
4.08
4.18
4.40
4.70
5.01
5.24
5.29
5.12
4.80
4.45
4.19
4.05
3.97
3.86
3.59
3.15
2.58
1.92
1.20
0.43
-0.40
-1.27
-2.11
-2.83
-3.36
-3.72
-3.97
-4.25
-4.71
-5.49
-6.62
-7.99
-9.38
-10.49
-11.06
-10.92
-10.11
-8.74
-7.01
-5.12
-3.23
-1.48
0.03
1.26
2.20
2.88
3.32
3.51
3.49
3.30
3.07
2.98
3.11
3.48
3.98
4.46
4.84
5.11
5.32
5.52
5.68
5.72
5.57
5.20
4.64
4.00
3.37
2.84
2.44
2.12
1.82
1.46
0.95
0.32
-0.34
-0.89
-1.23
-1.40
-1.54
-1.85
-2.45
-3.31
-4.30
-5.25
-6.13
-6.98
-7.87
-8.78
-9.51
-9.76
-9.26
-7.96
-6.05
-3.91
-1.92
-0.37
0.69
1.36
1.83
2.24
2.61
2.88
2.99
2.90
2.71
2.55
2.56
2.78
3.19
3.64
3.98
4.12
4.03
3.80
3.51
3.23
3.01
2.86
2.76
2.70
2.62
2.45
2.11
1.57
0.84
0.03
-0.74
-1.40
-1.94
-2.44
-3.03
-3.79
-4.72
-5.73
-6.68
-7.46
-8.03
-8.42
-8.69
-8.85
-8.82
-8.50
-7.77
-6.59
-5.01
-3.18
-1.26
0.55
2.09
3.24
3.92
4.10
3.88
3.45
3.05
2.90
3.07
3.51
4.07
4.59
4.96
5.14
5.16
5.03
4.80
4.51
4.26
4.13
4.17
4.33
4.51
4.53
4.28
3.72
2.93
2.05
1.22
0.52
-0.03
-0.52
-1.03
-1.65
-2.38
-3.18
-3.96
-4.68
-5.35
-6.08
-6.98
-8.11
-9.44
-10.80
-11.94
-12.61
-12.61
-11.86
-10.38
-8.31
-5.85
-3.27
-0.86
1.11
2.46
3.18
3.42
3.42
3.43
3.53
3.71
3.86
3.91
3.85
3.81
3.89
4.17
4.66
5.26
5.89
6.46
6.85
6.97
6.72
6.11
5.25
4.37
3.69
3.35
3.31
3.39
3.34
2.97
2.20
1.08
-0.25
-1.61
-2.84
-3.80
-4.45
-4.84
-5.13
-5.51
-6.14
-7.06
-8.19
-9.39
-10.45
-11.19
-11.45
-11.10
-10.05
-8.34
-6.16
-3.77
-1.54
0.30
1.68
2.68
3.45
4.08
4.58
4.84
4.80
4.49
4.08
3.76
3.70
3.94
4.44
5.04
5.62
6.08
6.36
6.47
6.41
6.25
6.01
5.73
5.43
5.12
4.78
4.44
4.10
3.76
3.38
2.88
2.18
1.27
0.17
-0.98
-2.07
-2.98
-3.70
-4.26
-4.75
-5.30
-6.02
-6.97
-8.14
-9.41
-10.53
-11.23
-11.26
-10.51
-9.03
-7.05
-4.84
-2.65
-0.64
1.12
2.63
3.85
4.76
5.32
5.54
5.46
5.22
4.93
4.76
4.76
4.96
5.32
5.75
6.19
6.61
6.99
7.33
7.58
7.69
7.58
7.23
6.66
5.97
5.28
4.69
4.21
3.81
3.37
2.80
2.05
1.13
0.10
-0.92
-1.82
-2.51
-3.00
-3.35
-3.71
-4.22
-4.99
-6.04
-7.26
-8.49
-9.51
-10.15
-10.28
-9.81
-8.72
-7.07
-4.96
-2.60
-0.28
1.70
3.13
3.92
4.16
4.01
3.64
3.17
2.67
2.19
1.84
1.73
1.94
2.50
3.29
4.13
4.79
5.12
5.07
4.71
4.23
3.77
3.45
3.26
3.08
2.77
2.22
1.42
0.48
-0.45
-1.20
-1.66
-1.83
-1.77
-1.69
-1.83
-2.41
-3.52
-5.06
-6.78
-8.34
-9.51
-10.17
-10.34
-10.05
-9.29
-8.04
-6.28
-4.13
-1.79
0.44
2.32
3.70
4.53
4.88
4.84
4.55
4.14
3.77
3.54
3.50
3.70
4.11
4.67
5.30
5.86
6.21
6.26
6.01
5.55
5.04
4.62
4.38
4.29
4.26
4.18
4.00
3.66
3.17
2.53
1.76
0.92
0.07
-0.73
-1.43
-2.05
-2.60
-3.17
-3.82
-4.61
-5.55
-6.60
-7.72
-8.82
-9.86
-10.78
-11.51
-11.94
-11.88
-11.14
-9.59
-7.30
-4.52
-1.69
0.75
2.51
3.54
3.97
4.09
4.13
4.20
4.31
4.40
4.40
4.31
4.20
4.14
4.23
4.48
4.86
5.31
5.75
6.11
6.40
6.64
6.83
6.95
6.85
6.41
5.56
4.36
3.05
1.91
1.15
0.79
0.64
0.43
-0.06
-0.90
-1.94
-2.97
-3.83
-4.48
-5.04
-5.65
-6.44
-7.36
-8.34
-9.21
-9.89
-10.26
-10.27
-9.85
-8.93
-7.50
-5.69
-3.66
-1.68
0.09
1.58
2.82
3.87
4.73
5.35
5.68
5.70
5.47
5.13
4.83
4.66
4.63
4.71
4.86
5.08
5.39
5.79
6.25
6.71
7.05
7.19
7.04
6.58
5.83
4.82
3.68
2.53
1.52
0.75
0.21
-0.14
-0.46
-0.86
-1.39
-2.02
-2.67
-3.27
-3.80
-4.36
-5.07
-6.07
-7.37
-8.83
-10.23
-11.30
-11.80
-11.60
-10.67
-9.08
-6.96
-4.52
-2.02
0.27
2.12
3.41
4.19
4.58
4.73
4.73
4.61
4.35
4.01
3.70
3.58
3.76
4.23
4.88
5.50
5.94
6.13
6.10
5.94
5.72
5.52
5.35
5.25
5.21
5.21
5.19
5.06
4.74
4.24
3.60
2.92
2.26
1.66
1.09
0.46
-0.29
-1.21
-2.24
-3.32
-4.38
-5.38
-6.37
-7.40
-8.47
-9.49
-10.29
-10.67
-10.55
-9.91
-8.87
-7.56
-6.08
-4.48
-2.79
-1.10
0.46
1.74
2.60
3.01
3.02
2.74
2.31
1.87
1.56
1.48
1.66
2.08
2.63
3.19
3.66
3.99
4.18
4.27
4.29
4.30
4.32
4.32
4.22
3.94
3.38
2.49
1.35
0.10
-1.05
-1.96
-2.57
-2.93
-3.16
-3.40
-3.80
-4.45
-5.39
-6.60
-8.01
-9.41
-10.59
-11.27
-11.25
-10.42
-8.85
-6.72
-4.34
-2.04
-0.06
1.47
2.56
3.30
3.80
4.12
4.25
4.18
3.96
3.71
3.56
3.62
3.90
4.32
4.77
5.17
5.50
5.79
6.04
6.19
6.15
5.88
5.40
4.82
4.28
3.84
3.47
3.06
2.52
1.85
1.10
0.35
-0.36
-1.08
-1.87
-2.77
-3.74
-4.68
-5.47
-6.08
-6.58
-7.11
-7.81
-8.77
-9.94
-11.18
-12.29
-13.06
-13.29
-12.84
-11.66
-9.83
-7.56
-5.10
-2.72
-0.61
1.14
2.50
3.48
4.04
4.14
3.82
3.24
2.65
2.35
2.52
3.16
4.10
5.09
5.87
6.32
6.39
6.17
5.78
5.37
5.04
4.89
4.91
5.02
5.10
5.00
4.60
3.87
2.84
1.60
0.31
-0.88
-1.85
-2.56
-3.04
-3.42
-3.83
-4.38
-5.15
-6.15
-7.37
-8.78
-10.28
-11.72
-12.87
-13.46
-13.26
-12.17
-10.28
-7.82
-5.17
-2.69
-0.65
0.85
1.85
2.51
3.00
3.48
4.01
4.60
5.19
5.70
6.06
6.24
6.21
6.06
5.89
5.85
6.01
6.39
6.86
7.28
7.54
7.59
7.46
7.20
6.81
6.26
5.52
4.61
3.60
2.59
1.71
0.99
0.39
-0.18
-0.85
-1.69
-2.77
-4.03
-5.31
-6.43
-7.26
-7.79
-8.20
-8.72
-9.51
-10.52
-11.47
-12.01
-11.85
-10.92
-9.30
-7.21
-4.88
-2.46
-0.14
1.93
3.56
4.64
5.20
5.40
5.46
5.54
5.66
5.78
5.83
5.86
6.00
6.37
7.00
7.76
8.46
8.88
8.93
8.67
8.21
7.66
7.09
6.50
5.90
5.36
4.98
4.81
4.78
4.69
4.30
3.49
2.31
0.97
-0.27
-1.20
-1.79
-2.15
-2.46
-2.88
-3.50
-4.40
-5.59
-7.06
-8.73
-10.43
-11.84
-12.65
-12.59
-11.58
-9.74
-7.32
-4.68
-2.16
-0.03
1.55
2.57
3.09
3.23
3.13
2.93
2.75
2.71
2.91
3.38
4.04
4.75
5.33
5.67
5.78
5.78
5.81
5.92
6.05
6.06
5.84
5.34
4.64
3.84
3.06
2.31
1.59
0.89
0.22
-0.35
-0.78
-1.06
-1.24
-1.41
-1.69
-2.18
-2.96
-4.08
-5.50
-7.15
-8.81
-10.23
-11.12
-11.25
-10.57
-9.15
-7.22
-5.09
-3.00
-1.10
0.54
1.95
3.12
4.06
4.76
5.23
5.56
5.81
6.04
6.24
6.35
6.37
6.33
6.34
6.50
6.81
7.16
7.38
7.34
7.00
6.48
5.97
5.58
5.34
5.17
4.98
4.67
4.26
3.81
3.38
2.98
2.53
1.87
0.88
-0.45
-1.96
-3.35
-4.34
-4.80
-4.82
-4.70
-4.84
-5.54
-6.87
-8.68
-10.62
-12.32
-13.50
-13.97
-13.67
-12.62
-10.90
-8.62
-5.96
-3.12
-0.38
1.97
3.69
4.68
4.99
4.84
4.50
4.20
4.05
4.06
4.23
4.53
5.01
5.66
6.42
7.14
7.62
7.78
7.64
7.35
7.04
6.77
6.46
5.96
5.22
4.31
3.44
2.82
2.55
2.48
2.39
2.00
1.21
0.11
-1.06
-2.06
-2.75
-3.19
-3.52
-3.94
-4.56
-5.41
-6.49
-7.73
-9.09
-10.46
-11.63
-12.37
-12.39
-11.57
-9.93
-7.66
-5.09
-2.58
-0.42
1.23
2.33
2.96
3.27
3.42
3.52
3.63
3.73
3.80
3.84
3.91
4.14
4.61
5.31
6.12
6.84
7.27
7.34
7.16
6.90
6.73
6.67
6.59
6.32
5.78
5.03
4.27
3.69
3.36
3.15
2.85
2.27
1.38
0.29
-0.81
-1.74
-2.44
-2.94
-3.34
-3.77
-4.35
-5.20
-6.38
-7.85
-9.46
-10.93
-11.93
-12.20
-11.59
-10.15
-8.12
-5.82
-3.57
-1.60
-0.02
1.21
2.17
2.95
3.58
4.01
4.19
4.15
3.94
3.69
3.53
3.52
3.67
3.90
4.18
4.45
4.71
4.90
4.95
4.80
4.44
3.91
3.35
2.86
2.51
2.26
1.99
1.61
1.06
0.36
-0.40
-1.11
-1.71
-2.23
-2.76
-3.40
-4.22
-5.24
-6.42
-7.70
-8.99
-10.15
-11.03
-11.42
-11.16
-10.18
-8.51
-6.36
-4.00
-1.73
0.22
1.73
2.75
3.35
3.62
3.65
3.57
3.49
3.50
3.67
3.99
4.41
4.83
5.13
5.26
5.23
5.13
5.12
5.28
5.61
5.98
6.18
6.04
5.52
4.70
3.77
2.89
2.14
1.52
0.96
0.39
-0.21
-0.82
-1.42
-2.01
-2.64
-3.32
-4.06
-4.86
-5.68
-6.55
-7.49
-8.55
-9.76
-11.02
-12.17
-12.97
-13.19
-12.67
-11.40
-9.50
-7.18
-4.72
-2.33
-0.20
1.49
2.67
3.29
3.43
3.26
3.01
2.91
3.09
3.54
4.18
4.91
5.60
6.20
6.66
6.93
7.02
6.95
6.79
6.60
6.41
6.15
5.70
4.99
4.07
3.07
2.17
1.51
1.12
0.92
0.76
0.51
0.09
-0.53
-1.32
-2.23
-3.22
-4.23
-5.22
-6.21
-7.23
-8.33
-9.55
-10.77
-11.83
-12.47
-12.48
-11.75
-10.33
-8.40
-6.22
-4.04
-2.03
-0.25
1.32
2.72
3.95
4.94
5.60
5.88
5.84
5.65
5.49
5.49
5.67
5.91
6.08
6.13
6.12
6.20
6.49
6.97
7.49
7.81
7.74
7.24
6.39
5.37
4.34
3.37
2.46
1.59
0.80
0.15
-0.28
-0.49
-0.57
-0.71
-1.08
-1.73
-2.61
-3.57
-4.52
-5.44
-6.41
-7.49
-8.68
-9.84
-10.75
-11.13
-10.78
-9.59
-7.66
-5.22
-2.64
-0.29
1.53
2.72
3.38
3.74
4.02
4.33
4.65
4.86
4.91
4.80
4.62
4.51
4.56
4.79
5.19
5.73
6.38
7.10
7.80
8.33
8.55
8.35
7.75
6.83
5.77
4.76
3.90
3.27
2.82
2.49
2.18
1.82
1.34
0.70
-0.08
-0.97
-1.90
-2.79
-3.57
-4.26
-4.95
-5.76
-6.80
-8.07
-9.43
-10.64
-11.40
-11.46
-10.72
-9.23
-7.22
-4.95
-2.71
-0.68
1.01
2.31
3.21
3.73
3.90
3.77
3.41
2.92
2.39
1.93
1.60
1.41
1.39
1.54
1.92
2.53
3.32
4.17
4.85
5.18
5.04
4.46
3.61
2.73
1.98
1.48
1.16
0.90
0.57
0.11
-0.42
-0.97
-1.48
-2.02
-2.69
-3.60
-4.78
-6.13
-7.48
-8.63
-9.49
-10.01
-10.18
-9.97
-9.31
-8.13
-6.46
-4.46
-2.36
-0.40
1.27
2.58
3.54
4.17
4.48
4.53
4.37
4.15
3.99
4.00
4.19
4.48
4.77
4.97
5.07
5.09
5.07
5.04
5.01
4.95
4.81
4.57
4.21
3.74
3.20
2.67
2.17
1.73
1.33
0.90
0.43
-0.05
-0.48
-0.80
-1.04
-1.30
-1.73
-2.42
-3.35
-4.38
-5.37
-6.23
-7.01
-7.86
-8.87
-10.02
-11.10
-11.77
-11.73
-10.84
-9.19
-7.04
-4.76
-2.68
-0.98
0.29
1.21
1.87
2.36
2.71
2.98
3.20
3.47
3.85
4.33
4.83
5.24
5.46
5.49
5.43
5.39
5.46
5.62
5.72
5.62
5.22
4.60
3.88
3.24
2.77
2.47
2.23
1.94
1.52
0.98
0.35
-0.35
-1.11
-1.94
-2.80
-3.60
-4.21
-4.56
-4.76
-5.02
-5.61
-6.70
-8.26
-10.00
-11.54
-12.49
-12.64
-11.94
-10.53
-8.61
-6.42
-4.18
-2.08
-0.28
1.11
2.02
2.54
2.81
2.99
3.21
3.51
3.84
4.14
4.36
4.53
4.73
4.98
5.25
5.43
5.48
5.41
5.30
5.25
5.30
5.37
5.37
5.22
4.95
4.62
4.31
4.01
3.70
3.30
2.78
2.17
1.54
0.95
0.40
-0.12
-0.63
-1.15
-1.71
-2.35
-3.15
-4.16
-5.39
-6.75
-8.03
-9.04
-9.58
-9.54
-8.94
-7.88
-6.52
-4.99
-3.39
-1.81
-0.34
0.95
1.92
2.51
2.69
2.55
2.23
1.89
1.64
1.54
1.59
1.78
2.09
2.51
3.01
3.50
3.89
4.08
4.03
3.83
3.59
3.41
3.30
3.14
2.80
2.17
1.28
0.25
-0.73
-1.55
-2.19
-2.70
-3.17
-3.64
-4.10
-4.52
-4.94
-5.41
-6.07
-6.98
-8.12
-9.30
-10.21
-10.52
-9.99
-8.62
-6.62
-4.39
-2.34
-0.73
0.41
1.21
1.92
2.64
3.33
3.85
4.04
3.93
3.69
3.56
3.70
4.13
4.68
5.14
5.40
5.48
5.48
5.55
5.70
5.85
5.88
5.65
5.14
4.39
3.47
2.48
1.52
0.68
0.02
-0.42
-0.69
-0.87
-1.09
-1.44
-1.97
-2.66
-3.49
-4.39
-5.34
-6.35
-7.44
-8.63
-9.90
-11.17
-12.25
-12.93
-12.97
-12.28
-10.89
-8.98
-6.81
-4.64
-2.64
-0.90
0.58
1.84
2.88
3.69
4.21
4.43
4.38
4.14
3.86
3.64
3.56
3.59
3.67
3.78
3.91
4.15
4.55
5.09
5.64
6.05
6.16
5.94
5.41
4.62
3.65
2.56
1.48
0.51
-0.21
-0.66
-0.90
-1.11
-1.46
-2.03
-2.82
-3.74
-4.72
-5.76
-6.90
-8.18
-9.55
-10.83
-11.80
-12.27
-12.09
-11.23
-9.76
-7.85
-5.69
-3.47
-1.35
0.56
2.17
3.41
4.22
4.61
4.62
4.40
4.13
3.98
4.03
4.27
4.63
5.08
5.58
6.13
6.70
7.18
7.41
7.28
6.76
5.94
5.01
4.16
3.49
3.04
2.71
2.38
1.96
1.40
0.72
-0.05
-0.83
-1.58
-2.26
-2.89
-3.51
-4.20
-5.03
-6.04
-7.25
-8.56
-9.84
-10.96
-11.75
-12.08
-11.86
-11.02
-9.54
-7.50
-5.07
-2.51
-0.10
1.97
3.59
4.78
5.62
6.14
6.36
6.23
5.79
5.18
4.65
4.46
4.77
5.53
6.49
7.37
7.91
8.03
7.78
7.32
6.80
6.29
5.82
5.38
5.00
4.68
4.43
4.22
3.97
3.59
3.01
2.20
1.19
0.11
-0.92
-1.82
-2.58
-3.26
-4.01
-4.97
-6.22
-7.73
-9.36
-10.88
-12.04
-12.62
-12.49
-11.63
-10.14
-8.19
-5.99
-3.74
-1.59
0.28
1.76
2.78
3.32
3.46
3.32
3.07
2.81
2.62
2.53
2.56
2.72
3.03
3.47
4.03
4.67
5.30
5.80
6.09
6.09
5.80
5.31
4.74
4.21
3.76
3.35
2.89
2.27
1.43
0.37
-0.83
-2.01
-3.06
-3.91
-4.61
-5.28
-6.08
-7.10
-8.31
-9.58
-10.67
-11.41
-11.64
-11.32
-10.42
-8.93
-6.92
-4.52
-1.97
0.44
2.49
4.05
5.12
5.76
6.04
6.03
5.79
5.43
5.14
5.06
5.30
5.78
6.33
6.76
6.92
6.81
6.52
6.20
5.92
5.68
5.46
5.19
4.88
4.52
4.09
3.60
3.04
2.43
1.81
1.20
0.59
-0.08
-0.86
-1.76
-2.69
-3.55
-4.24
-4.75
-5.21
-5.79
-6.66
-7.91
-9.47
-11.14
-12.65
-13.67
-13.94
-13.31
-11.82
-9.63
-7.01
-4.23
-1.54
0.87
2.88
4.41
5.43
5.98
6.17
6.10
5.91
5.70
5.56
5.59
5.84
6.28
6.82
7.31
7.60
7.67
7.61
7.57
7.60
7.66
7.59
7.24
6.60
5.82
5.09
4.59
4.31
4.10
3.73
3.10
2.23
1.29
0.43
-0.29
-0.95
-1.73
-2.71
-3.91
-5.21
-6.50
-7.73
-8.96
-10.22
-11.45
-12.44
-12.89
-12.52
-11.22
-9.13
-6.57
-3.93
-1.53
0.50
2.14
3.46
4.54
5.37
5.95
6.27
6.35
6.29
6.17
6.10
6.11
6.20
6.34
6.53
6.80
7.19
7.69
8.24
8.69
8.93
8.88
8.53
7.94
7.20
6.39
5.61
4.93
4.39
3.99
3.63
3.17
2.51
1.62
0.62
-0.34
-1.14
-1.76
-2.30
-2.91
-3.69
-4.67
-5.82
-7.11
-8.50
-9.90
-11.11
-11.83
-11.78
-10.75
-8.81
-6.23
-3.42
-0.77
1.42
3.04
4.10
4.67
4.86
4.81
4.69
4.66
4.81
5.16
5.62
6.07
6.40
6.61
6.74
6.85
6.97
7.03
6.96
6.74
6.40
6.02
5.68
5.37
4.99
4.43
3.64
2.68
1.70
0.90
0.36
0.06
-0.11
-0.34
-0.74
-1.36
-2.15
-3.05
-3.97
-4.87
-5.73
-6.57
-7.43
-8.35
-9.36
-10.35
-11.15
-11.50
-11.15
-9.95
-7.99
-5.50
-2.84
-0.32
1.84
3.52
4.68
5.26
5.25
4.74
3.96
3.22
2.83
2.96
3.53
4.28
4.92
5.26
5.28
5.11
4.91
4.83
4.87
5.00
5.10
5.10
4.93
4.61
4.13
3.52
2.83
2.04
1.18
0.23
-0.75
-1.71
-2.54
-3.17
-3.55
-3.71
-3.75
-3.82
-4.09
-4.68
-5.65
-6.95
-8.51
-10.15
-11.67
-12.83
-13.40
-13.17
-12.06
-10.11
-7.56
-4.81
-2.26
-0.24
1.14
1.91
2.30
2.52
2.75
3.04
3.35
3.59
3.74
3.82
3.91
4.07
4.34
4.67
5.02
5.33
5.61
5.89
6.21
6.54
6.79
6.79
6.40
5.59
4.50
3.36
2.46
1.92
1.68
1.49
1.06
0.24
-0.95
-2.26
-3.42
-4.19
-4.56
-4.72
-4.94
-5.46
-6.37
-7.65
-9.12
-10.60
-11.90
-12.86
-13.35
-13.23
-12.39
-10.81
-8.62
-6.07
-3.49
-1.19
0.67
2.09
3.17
4.00
4.63
5.02
5.15
5.04
4.81
4.65
4.71
5.08
5.67
6.33
6.87
7.14
7.11
6.89
6.63
6.45
6.37
6.30
6.09
5.63
4.93
4.13
3.40
2.86
2.49
2.20
1.86
1.41
0.82
0.12
-0.70
-1.61
-2.57
-3.50
-4.29
-4.89
-5.34
-5.80
-6.44
-7.31
-8.31
-9.22
-9.78
-9.82
-9.27
-8.19
-6.66
-4.87
-2.96
-1.07
0.63
2.02
3.03
3.67
4.01
4.17
4.22
4.22
4.15
4.01
3.81
3.65
3.67
3.98
4.62
5.47
6.31
6.89
7.05
6.77
6.17
5.40
4.64
4.03
3.66
3.54
3.59
3.68
3.66
3.42
2.92
2.19
1.31
0.37
-0.58
-1.52
-2.42
-3.23
-3.90
-4.45
-4.97
-5.62
-6.53
-7.70
-8.99
-10.09
-10.65
-10.46
-9.44
-7.76
-5.69
-3.50
-1.43
0.39
1.89
3.06
3.86
4.26
4.28
3.99
3.51
2.99
2.55
2.24
2.07
2.01
2.02
2.08
2.24
2.53
2.97
3.50
3.97
4.19
4.03
3.49
2.69
1.85
1.16
0.69
0.36
-0.02
-0.62
-1.51
-2.56
-3.58
-4.41
-4.98
-5.37
-5.77
-6.34
-7.14
-8.10
-9.07
-9.85
-10.32
-10.40
-10.05
-9.22
-7.90
-6.10
-3.94
-1.64
0.52
2.22
3.24
3.53
3.25
2.70
2.23
2.12
2.43
3.05
3.77
4.38
4.77
4.95
4.98
4.95
4.90
4.86
4.82
4.79
4.78
4.77
4.70
4.50
4.13
3.58
2.90
2.13
1.35
0.60
-0.09
-0.71
-1.28
-1.80
-2.29
-2.75
-3.17
-3.58
-4.08
-4.79
-5.78
-7.07
-8.55
-10.05
-11.36
-12.31
-12.71
-12.47
-11.55
-9.99
-8.02
-5.89
-3.86
-2.10
-0.62
0.67
1.84
2.88
3.67
4.09
4.06
3.67
3.09
2.54
2.20
2.17
2.48
3.05
3.79
4.55
5.19
5.61
5.77
5.68
5.42
5.06
4.67
4.29
3.92
3.52
3.07
2.57
2.01
1.42
0.81
0.17
-0.54
-1.33
-2.22
-3.14
-4.02
-4.82
-5.57
-6.33
-7.18
-8.09
-8.95
-9.60
-9.88
-9.69
-9.01
-7.85
-6.27
-4.34
-2.19
-0.01
1.98
3.57
4.67
5.27
5.47
5.40
5.19
4.96
4.81
4.80
4.94
5.22
5.60
6.05
6.55
7.05
7.46
7.68
7.59
7.15
6.44
5.59
4.79
4.21
3.86
3.68
3.53
3.29
2.90
2.39
1.85
1.32
0.77
0.12
-0.73
-1.74
-2.80
-3.73
-4.41
-4.84
-5.16
-5.60
-6.32
-7.30
-8.35
-9.13
-9.38
-8.96
-7.91
-6.42
-4.74
-3.05
-1.46
0.02
1.39
2.63
3.68
4.43
4.80
4.77
4.41
3.88
3.36
2.99
2.86
2.95
3.21
3.55
3.90
4.20
4.40
4.43
4.24
3.85
3.30
2.71
2.19
1.76
1.39
0.95
0.36
-0.43
-1.33
-2.23
-2.96
-3.45
-3.74
-3.93
-4.18
-4.61
-5.31
-6.31
-7.57
-8.96
-10.24
-11.07
-11.11
-10.14
-8.17
-5.51
-2.63
-0.02
1.99
3.31
4.05
4.40
4.50
4.46
4.30
4.08
3.84
3.66
3.56
3.56
3.62
3.76
3.98
4.32
4.77
5.25
5.63
5.78
5.60
5.07
4.25
3.23
2.16
1.20
0.47
0.03
-0.16
-0.24
-0.40
-0.75
-1.34
-2.08
-2.83
-3.51
-4.06
-4.51
-4.93
-5.38
-5.92
-6.61
-7.49
-8.58
-9.80
-10.97
-11.82
-12.07
-11.53
-10.16
-8.14
-5.76
-3.37
-1.27
0.37
1.54
2.31
2.82
3.16
3.41
3.58
3.67
3.71
3.75
3.89
4.21
4.71
5.33
5.98
6.53
6.91
7.11
7.15
7.08
6.91
6.63
6.21
5.63
4.94
4.19
3.44
2.70
1.92
1.03
0.02
-1.05
-2.07
-2.93
-3.59
-4.09
-4.56
-5.08
-5.71
-6.45
-7.29
-8.22
-9.26
-10.37
-11.40
-12.12
-12.26
-11.63
-10.22
-8.19
-5.87
-3.57
-1.53
0.19
1.59
2.73
3.63
4.28
4.63
4.69
4.53
4.31
4.16
4.18
4.37
4.64
4.91
5.10
5.24
5.36
5.51
5.69
5.89
6.01
6.00
5.83
5.49
5.00
4.39
3.71
2.99
2.27
1.58
0.94
0.34
-0.26
-0.90
-1.61
-2.38
-3.18
-3.96
-4.70
-5.41
-6.19
-7.09
-8.13
-9.23
-10.21
-10.84
-10.91
-10.33
-9.11
-7.38
-5.31
-3.08
-0.88
1.13
2.79
3.97
4.65
4.89
4.85
4.67
4.49
4.36
4.26
4.20
4.21
4.36
4.73
5.37
6.17
6.97
7.53
7.70
7.43
6.86
6.21
5.68
5.39
5.28
5.19
4.96
4.51
3.86
3.13
2.44
1.83
1.28
0.71
0.09
-0.59
-1.29
-1.97
-2.64
-3.34
-4.11
-4.99
-6.03
-7.19
-8.38
-9.41
-10.05
-10.11
-9.48
-8.17
-6.38
-4.36
-2.39
-0.66
0.71
1.73
2.46
2.97
3.31
3.50
3.50
3.32
2.98
2.59
2.29
2.22
2.47
2.98
3.63
4.21
4.58
4.67
4.49
4.14
3.69
3.19
2.64
2.06
1.47
0.90
0.41
0.00
-0.34
-0.69
-1.09
-1.56
-2.07
-2.59
-3.14
-3.80
-4.66
-5.80
-7.14
-8.49
-9.58
-10.12
-9.93
-8.99
-7.42
-5.43
-3.24
-1.08
0.89
2.53
3.76
4.55
4.91
4.91
4.66
4.29
3.93
3.68
3.62
3.73
3.96
4.23
4.47
4.69
4.91
5.16
5.43
5.68
5.80
5.73
5.39
4.80
3.95
2.92
1.83
0.87
0.20
-0.09
-0.07
0.05
-0.01
-0.48
-1.38
-2.58
-3.86
-5.01
-5.95
-6.75
-7.53
-8.40
-9.43
-10.55
-11.64
-12.54
-13.03
-12.91
-12.03
-10.33
-7.95
-5.16
-2.31
0.25
2.26
3.63
4.39
4.65
4.55
4.21
3.74
3.28
2.98
2.97
3.32
3.93
4.59
5.10
5.31
5.26
5.12
5.10
5.29
5.66
6.02
6.19
6.06
5.66
5.07
4.41
3.71
2.94
2.03
0.92
-0.33
-1.60
-2.75
-3.63
-4.22
-4.64
-5.10
-5.79
-6.79
-8.05
-9.35
-10.46
-11.20
-11.47
-11.23
-10.45
-9.15
-7.40
-5.34
-3.18
-1.16
0.55
1.88
2.86
3.54
4.00
4.28
4.43
4.51
4.58
4.68
4.83
5.03
5.25
5.48
5.71
5.95
6.19
6.42
6.58
6.63
6.46
6.04
5.40
4.62
3.87
3.25
2.82
2.51
2.19
1.72
1.01
0.11
-0.87
-1.76
-2.47
-2.98
-3.40
-3.88
-4.56
-5.48
-6.63
-7.91
-9.15
-10.16
-10.74
-10.74
-10.04
-8.67
-6.73
-4.46
-2.09
0.17
2.17
3.81
5.03
5.79
6.15
6.15
5.91
5.56
5.22
4.95
4.83
4.89
5.13
5.53
6.00
6.40
6.62
6.62
6.42
6.14
5.89
5.73
5.65
5.61
5.52
5.31
4.91
4.27
3.37
2.28
1.13
0.10
-0.66
-1.11
-1.31
-1.44
-1.65
-2.08
-2.74
-3.64
-4.77
-6.10
-7.57
-9.01
-10.15
-10.65
-10.28
-8.99
-6.95
-4.53
-2.13
-0.07
1.49
2.58
3.31
3.82
4.17
4.39
4.48
4.45
4.34
4.20
4.05
3.93
3.84
3.86
4.05
4.46
5.04
5.63
6.01
5.98
5.47
4.57
3.48
2.44
1.64
1.14
0.91
0.84
0.80
0.65
0.32
-0.25
-1.03
-1.92
-2.79
-3.55
-4.14
-4.63
-5.15
-5.83
-6.77
-7.89
-9.02
-9.91
-10.30
-10.03
-9.04
-7.43
-5.36
-3.07
-0.84
1.09
2.53
3.41
3.79
3.85
3.78
3.74
3.81
3.97
4.12
4.19
4.15
4.04
3.96
4.02
4.28
4.75
5.35
5.95
6.39
6.51
6.22
5.49
4.40
3.07
1.72
0.54
-0.30
-0.75
-0.89
-0.92
-1.09
-1.57
-2.38
-3.40
-4.45
-5.34
-6.01
-6.51
-6.99
-7.57
-8.34
-9.26
-10.22
-11.03
-11.48
-11.38
-10.57
-9.05
-6.94
-4.51
-2.08
0.08
1.78
2.98
3.72
4.12
4.29
4.32
4.26
4.18
4.11
4.10
4.16
4.31
4.53
4.80
5.06
5.31
5.51
5.66
5.72
5.68
5.52
5.25
4.92
4.55
4.13
3.63
3.00
2.24
1.38
0.50
-0.34
-1.12
-1.83
-2.46
-3.01
-3.48
-3.89
-4.34
-4.95
-5.81
-6.94
-8.22
-9.45
-10.40
-10.90
-10.87
-10.30
-9.23
-7.73
-5.85
-3.70
-1.50
0.53
2.14
3.21
3.80
4.09
4.30
4.56
4.85
5.06
5.10
4.98
4.81
4.79
5.02
5.49
6.07
6.57
6.88
6.99
6.96
6.84
6.64
6.30
5.74
4.94
3.99
3.05
2.24
1.61
1.07
0.50
-0.19
-0.98
-1.77
-2.46
-2.98
-3.40
-3.86
-4.49
-5.38
-6.54
-7.88
-9.24
-10.41
-11.13
-11.18
-10.45
-8.95
-6.87
-4.46
-2.04
0.18
2.02
3.42
4.35
4.85
4.98
4.86
4.58
4.26
3.97
3.77
3.68
3.74
3.95
4.25
4.59
4.87
5.05
5.13
5.15
5.14
5.10
4.93
4.57
3.97
3.20
2.41
1.76
1.33
1.09
0.89
0.54
-0.06
-0.88
-1.82
-2.69
-3.33
-3.71
-3.91
-4.11
-4.51
-5.27
-6.40
-7.78
-9.16
-10.21
-10.64
-10.28
-9.11
-7.32
-5.19
-3.07
-1.20
0.23
1.19
1.70
1.90
1.94
1.96
2.04
2.17
2.28
2.30
2.22
2.12
2.16
2.42
2.91
3.47
3.89
4.02
3.83
3.41
2.91
2.47
2.13
1.86
1.59
1.28
0.88
0.41
-0.11
-0.66
-1.21
-1.78
-2.40
-3.12
-3.98
-4.99
-6.11
-7.26
-8.32
-9.20
-9.83
-10.12
-10.02
-9.42
-8.27
-6.56
-4.43
-2.09
0.16
2.04
3.36
4.06
4.25
4.11
3.90
3.78
3.80
3.92
4.03
4.07
4.04
4.00
4.03
4.18
4.42
4.67
4.88
5.01
5.04
4.96
4.74
4.36
3.80
3.13
2.43
1.79
1.24
0.80
0.40
-0.02
-0.58
-1.33
-2.32
-3.50
-4.75
-5.96
-7.04
-7.98
-8.86
-9.77
-10.71
-11.60
-12.26
-12.49
-12.12
-11.11
-9.52
-7.52
-5.33
-3.18
-1.20
0.52
1.95
3.09
3.94
4.48
4.72
4.67
4.43
4.09
3.73
3.43
3.21
3.12
3.22
3.58
4.18
4.92
5.62
6.10
6.22
5.95
5.33
4.51
3.60
2.76
2.06
1.55
1.18
0.85
0.45
-0.11
-0.82
-1.65
-2.53
-3.42
-4.32
-5.24
-6.16
-7.03
-7.81
-8.50
-9.16
-9.80
-10.37
-10.69
-10.50
-9.61
-7.99
-5.81
-3.39
-1.06
0.98
2.61
3.87
4.79
5.39
5.64
5.55
5.19
4.73
4.35
4.22
4.40
4.81
5.32
5.78
6.12
6.33
6.48
6.59
6.64
6.58
6.35
5.94
5.41
4.82
4.19
3.55
2.87
2.10
1.25
0.34
-0.58
-1.44
-2.21
-2.86
-3.41
-3.89
-4.40
-5.03
-5.90
-7.01
-8.31
-9.62
-10.65
-11.15
-10.90
-9.86
-8.14
-5.94
-3.55
-1.18
0.96
2.80
4.27
5.35
6.06
6.40
6.43
6.24
5.96
5.71
5.56
5.53
5.60
5.73
5.89
6.05
6.18
6.27
6.34
6.38
6.38
6.35
6.23
5.97
5.49
4.79
3.93
3.05
2.30
1.76
1.39
1.02
0.50
-0.27
-1.25
-2.30
-3.29
-4.17
-5.03
-6.02
-7.28
-8.80
-10.38
-11.63
-12.19
-11.81
-10.47
-8.37
-5.85
-3.28
-0.94
1.01
2.49
3.46
3.92
3.89
3.49
2.90
2.35
2.03
1.98
2.14
2.38
2.61
2.82
3.06
3.39
3.81
4.25
4.58
4.68
4.50
4.08
3.53
2.94
2.38
1.82
1.23
0.56
-0.18
-0.97
-1.76
-2.51
-3.22
-3.93
-4.70
-5.57
-6.49
-7.39
-8.18
-8.76
-9.08
-9.09
-8.73
-7.94
-6.70
-5.06
-3.12
-1.10
0.78
2.32
3.42
4.06
4.33
4.37
4.33
4.33
4.44
4.64
4.90
5.16
5.39
5.59
5.79
6.01
6.26
6.48
6.61
6.58
6.33
5.86
5.17
4.34
3.43
2.54
1.78
1.21
0.85
0.62
0.35
-0.16
-1.00
-2.13
-3.37
-4.54
-5.52
-6.33
-7.10
-8.02
-9.17
-10.47
-11.69
-12.56
-12.84
-12.41
-11.28
-9.60
-7.56
-5.34
-3.12
-1.03
0.85
2.43
3.68
4.57
5.09
5.30
5.26
5.05
4.77
4.50
4.36
4.41
4.69
5.12
5.60
6.00
6.27
6.43
6.54
6.62
6.62
6.45
6.01
5.28
4.34
3.33
2.39
1.61
1.01
0.51
0.06
-0.44
-1.01
-1.68
-2.44
-3.32
-4.35
-5.57
-6.96
-8.43
-9.83
-10.95
-11.59
-11.63
-11.03
-9.89
-8.31
-6.48
-4.53
-2.62
-0.85
0.73
2.11
3.35
4.47
5.43
6.14
6.50
6.49
6.22
5.88
5.63
5.61
5.78
6.05
6.32
6.55
6.76
7.00
7.23
7.37
7.32
7.02
6.55
6.01
5.51
5.06
4.62
4.07
3.33
2.35
1.18
-0.04
-1.17
-2.07
-2.66
-2.96
-3.14
-3.40
-3.96
-4.93
-6.28
-7.84
-9.39
-10.71
-11.58
-11.81
-11.28
-9.94
-7.89
-5.34
-2.64
-0.11
2.03
3.69
4.87
5.64
6.07
6.23
6.16
5.95
5.73
5.61
5.67
5.94
6.36
6.87
7.35
7.70
7.85
7.77
7.51
7.17
6.83
6.56
6.36
6.14
5.81
5.32
4.67
3.97
3.33
2.83
2.48
2.20
1.86
1.33
0.53
-0.57
-1.89
-3.33
-4.75
-6.05
-7.22
-8.31
-9.38
-10.44
-11.43
-12.15
-12.38
-11.94
-10.78
-9.01
-6.87
-4.63
-2.51
-0.63
0.92
2.10
2.87
3.23
3.28
3.15
3.04
3.06
3.21
3.45
3.72
4.02
4.40
4.92
5.59
6.28
6.86
7.22
7.33
7.24
7.01
6.65
6.12
5.37
4.42
3.39
2.40
1.56
0.87
0.26
-0.40
-1.20
-2.12
-3.09
-3.99
-4.71
-5.27
-5.78
-6.38
-7.24
-8.42
-9.80
-11.16
-12.20
-12.68
-12.45
-11.48
-9.87
-7.74
-5.28
-2.72
-0.33
1.60
2.94
3.70
4.03
4.17
4.27
4.39
4.49
4.51
4.47
4.43
4.49
4.69
5.03
5.45
5.89
6.29
6.62
6.84
6.87
6.66
6.19
5.49
4.61
3.66
2.72
1.86
1.15
0.62
0.22
-0.15
-0.60
-1.22
-2.03
-2.97
-3.92
-4.81
-5.58
-6.29
-7.00
-7.81
-8.79
-9.90
-11.01
-11.89
-12.30
-12.04
-11.04
-9.40
-7.37
-5.23
-3.25
-1.54
-0.10
1.11
2.19
3.15
3.96
4.55
4.86
4.90
4.76
4.60
4.59
4.83
5.32
5.91
6.45
6.81
6.98
6.99
6.93
6.80
6.57
6.15
5.53
4.78
4.01
3.31
2.73
2.22
1.72
1.20
0.64
0.09
-0.47
-1.06
-1.73
-2.49
-3.32
-4.16
-4.94
-5.71
-6.54
-7.56
-8.82
-10.27
-11.72
-12.87
-13.46
-13.27
-12.24
-10.47
-8.13
-5.49
-2.81
-0.33
1.78
3.42
4.56
5.24
5.55
5.62
5.56
5.47
5.43
5.46
5.57
5.70
5.84
5.97
6.12
6.34
6.67
7.09
7.53
7.86
7.98
7.85
7.51
7.04
6.52
5.97
5.37
4.68
3.92
3.10
2.30
1.52
0.76
-0.04
-0.87
-1.70
-2.49
-3.22
-3.92
-4.69
-5.65
-6.86
-8.27
-9.79
-11.19
-12.26
-12.77
-12.53
-11.44
-9.57
-7.14
-4.50
-2.01
0.02
1.47
2.36
2.81
3.01
3.10
3.19
3.29
3.40
3.51
3.61
3.73
3.86
4.01
4.14
4.22
4.24
4.23
4.22
4.25
4.30
4.34
4.29
4.09
3.73
3.22
2.60
1.94
1.30
0.71
0.15
-0.39
-0.95
-1.53
-2.09
-2.61
-3.06
-3.50
-4.03
-4.75
-5.73
-6.99
-8.49
-10.10
-11.63
-12.78
-13.26
-12.80
-11.36
-9.10
-6.40
-3.71
-1.38
0.45
1.82
2.90
3.81
4.53
4.95
4.95
4.58
4.01
3.52
3.33
3.50
3.90
4.30
4.53
4.54
4.47
4.45
4.59
4.84
5.05
5.08
4.84
4.32
3.62
2.83
2.02
1.23
0.47
-0.26
-1.02
-1.85
-2.76
-3.74
-4.66
-5.38
-5.79
-5.93
-5.98
-6.23
-6.90
-8.09
-9.66
-11.31
-12.68
-13.47
-13.50
-12.76
-11.31
-9.35
-7.08
-4.71
-2.43
-0.36
1.40
2.79
3.77
4.35
4.56
4.48
4.28
4.10
4.05
4.15
4.36
4.59
4.76
4.86
4.91
4.95
5.04
5.19
5.40
5.61
5.73
5.67
5.36
4.77
3.98
3.12
2.34
1.74
1.35
1.07
0.78
0.37
-0.21
-0.99
-1.95
-3.07
-4.30
-5.61
-6.96
-8.28
-9.53
-10.66
-11.63
-12.36
-12.75
-12.69
-12.09
-10.89
-9.12
-6.85
-4.24
-1.55
0.97
3.06
4.58
5.53
6.03
6.24
6.30
6.29
6.22
6.11
6.04
6.04
6.16
6.41
6.72
7.04
7.33
7.54
7.66
7.63
7.44
7.08
6.60
6.05
5.50
4.95
4.39
3.80
3.20
2.63
2.09
1.58
1.04
0.43
-0.25
-1.00
-1.80
-2.63
-3.53
-4.55
-5.71
-7.02
-8.45
-9.90
-11.22
-12.22
-12.68
-12.41
-11.31
-9.41
-6.92
-4.17
-1.48
0.91
2.90
4.47
5.68
6.53
7.01
7.09
6.79
6.24
5.63
5.17
5.02
5.24
5.76
6.40
6.98
7.30
7.28
6.92
6.32
5.64
5.02
4.52
4.14
3.81
3.49
3.15
2.75
2.29
1.69
0.92
-0.04
-1.11
-2.18
-3.15
-3.96
-4.64
-5.27
-5.98
-6.83
-7.87
-9.04
-10.23
-11.29
-12.00
-12.17
-11.65
-10.41
-8.54
-6.24
-3.77
-1.38
0.72
2.42
3.67
4.49
4.91
5.00
4.83
4.53
4.19
3.91
3.73
3.69
3.79
4.02
4.38
4.81
5.24
5.57
5.76
5.79
5.71
5.57
5.36
5.03
4.51
3.78
2.92
2.09
1.44
1.02
0.77
0.52
0.06
-0.68
-1.70
-2.88
-4.07
-5.19
-6.26
-7.38
-8.68
-10.20
-11.84
-13.30
-14.20
-14.17
-13.05
-10.96
-8.27
-5.44
-2.86
-0.72
0.99
2.34
3.40
4.17
4.57
4.62
4.39
4.07
3.83
3.76
3.85
4.04
4.25
4.46
4.69
4.98
5.36
5.81
6.29
6.74
7.04
7.08
6.78
6.12
5.21
4.21
3.28
2.51
1.85
1.18
0.39
-0.55
-1.54
-2.44
-3.19
-3.80
-4.42
-5.21
-6.29
-7.64
-9.13
-10.59
-11.81
-12.60
-12.77
-12.20
-10.83
-8.72
-6.05
-3.12
-0.27
2.19
4.06
5.29
5.91
6.03
5.76
5.26
4.71
4.29
4.19
4.47
5.09
5.84
6.51
6.92
7.05
7.02
7.01
7.12
7.32
7.47
7.39
7.03
6.43
5.69
4.94
4.23
3.57
2.95
2.34
1.73
1.10
0.41
-0.38
-1.24
-2.15
-3.07
-3.99
-4.97
-6.08
-7.37
-8.78
-10.17
-11.31
-11.99
-12.06
-11.45
-10.22
-8.51
-6.52
-4.43
-2.40
-0.52
1.16
2.60
3.75
4.58
5.11
5.36
5.43
5.43
5.44
5.55
5.78
6.13
6.54
6.96
7.30
7.52
7.61
7.62
7.61
7.57
7.49
7.29
6.89
6.28
5.49
4.63
3.80
3.09
2.51
2.05
1.62
1.13
0.51
-0.25
-1.09
-1.93
-2.73
-3.49
-4.28
-5.17
-6.21
-7.42
-8.70
-9.89
-10.79
-11.16
-10.85
-9.81
-8.13
-6.02
-3.77
-1.60
0.31
1.91
3.19
4.19
4.90
5.35
5.54
5.50
5.26
4.88
4.42
3.98
3.66
3.52
3.59
3.83
4.14
4.43
4.65
4.79
4.85
4.81
4.64
4.27
3.68
2.91
2.07
1.26
0.59
0.10
-0.25
-0.50
-0.75
-1.08
-1.57
-2.24
-3.12
-4.18
-5.36
-6.62
-7.91
-9.20
-10.44
-11.52
-12.28
-12.48
-11.91
-10.44
-8.17
-5.38
-2.49
0.10
2.12
3.50
4.32
4.69
4.74
4.53
4.12
3.61
3.10
2.76
2.65
2.78
3.07
3.43
3.77
4.09
4.40
4.70
4.99
5.22
5.32
5.25
4.99
4.56
3.96
3.21
2.36
1.42
0.46
-0.49
-1.35
-2.08
-2.69
-3.16
-3.55
-3.90
-4.30
-4.83
-5.55
-6.51
-7.70
-9.05
-10.44
-11.70
-12.65
-13.08
-12.84
-11.85
-10.14
-7.87
-5.29
-2.68
-0.30
1.65
3.06
3.91
4.27
4.31
4.19
4.06
3.99
4.01
4.11
4.28
4.57
4.99
5.50
6.04
6.48
6.77
6.90
6.92
6.89
6.79
6.59
6.19
5.58
4.80
3.98
3.23
2.59
2.06
1.58
1.04
0.38
-0.42
-1.36
-2.35
-3.30
-4.12
-4.79
-5.39
-6.05
-6.93
-8.09
-9.44
-10.71
-11.57
-11.71
-10.97
-9.40
-7.19
-4.68
-2.21
-0.03
1.68
2.92
3.76
4.35
4.79
5.16
5.45
5.62
5.62
5.45
5.13
4.72
4.33
4.05
3.98
4.19
4.70
5.42
6.18
6.79
7.07
6.92
6.36
5.49
4.45
3.42
2.55
1.97
1.67
1.57
1.51
1.30
0.82
0.06
-0.87
-1.88
-2.87
-3.84
-4.84
-5.90
-7.02
-8.17
-9.33
-10.49
-11.63
-12.65
-13.38
-13.55
-12.96
-11.55
-9.48
-7.06
-4.66
-2.55
-0.83
0.51
1.55
2.34
2.89
3.13
3.06
2.73
2.27
1.92
1.86
2.21
2.91
3.78
4.53
4.95
4.96
4.67
4.27
3.96
3.86
3.92
4.02
3.99
3.73
3.26
2.64
1.97
1.30
0.64
-0.01
-0.69
-1.35
-1.99
-2.55
-3.05
-3.49
-3.88
-4.24
-4.61
-5.07
-5.75
-6.75
-8.03
-9.40
-10.48
-10.88
-10.34
-8.83
-6.59
-4.00
-1.41
0.92
2.87
4.42
5.61
6.44
6.91
7.01
6.78
6.31
5.77
5.34
5.16
5.25
5.52
5.81
5.99
6.04
6.03
6.08
6.25
6.49
6.65
6.59
6.21
5.56
4.72
3.79
2.86
1.97
1.18
0.53
0.02
-0.35
-0.72
-1.23
-2.00
-3.10
-4.47
-5.96
-7.37
-8.53
-9.38
-9.98
-10.53
-11.17
-11.96
-12.73
-13.17
-12.96
-11.95
-10.21
-7.99
-5.61
-3.31
-1.19
0.70
2.32
3.62
4.51
4.95
4.96
4.63
4.07
3.45
2.92
2.65
2.76
3.22
3.92
4.65
5.20
5.50
5.57
5.49
5.33
5.12
4.83
4.45
4.02
3.58
3.20
2.85
2.43
1.84
0.97
-0.20
-1.57
-2.96
-4.19
-5.07
-5.57
-5.79
-5.95
-6.31
-7.05
-8.21
-9.69
-11.24
-12.55
-13.34
-13.35
-12.47
-10.71
-8.29
-5.52
-2.76
-0.31
1.64
3.04
3.92
4.38
4.54
4.54
4.50
4.53
4.68
4.92
5.22
5.53
5.86
6.20
6.55
6.88
7.17
7.37
7.45
7.41
7.24
6.95
6.54
5.98
5.30
4.48
3.56
2.58
1.61
0.69
-0.13
-0.86
-1.50
-2.10
-2.66
-3.18
-3.65
-4.13
-4.71
-5.50
-6.62
-8.07
-9.71
-11.29
-12.51
-13.04
-12.71
-11.50
-9.59
-7.29
-4.98
-2.90
-1.16
0.30
1.62
2.88
4.08
5.07
5.69
5.87
5.66
5.23
4.78
4.47
4.40
4.55
4.92
5.45
6.09
6.81
7.53
8.20
8.71
8.92
8.71
8.05
7.01
5.79
4.65
3.82
3.38
3.28
3.30
3.17
2.69
1.77
0.45
-1.10
-2.65
-3.96
-4.87
-5.36
-5.57
-5.78
-6.29
-7.26
-8.66
-10.23
-11.56
-12.26
-12.03
-10.84
-8.84
-6.36
-3.75
-1.27
0.91
2.71
4.10
5.05
5.55
5.63
5.39
4.98
4.57
4.30
4.23
4.37
4.67
5.06
5.45
5.76
5.93
5.91
5.74
5.47
5.18
4.89
4.57
4.13
3.51
2.69
1.78
0.91
0.21
-0.29
-0.64
-1.00
-1.48
-2.14
-2.95
-3.86
-4.80
-5.76
-6.75
-7.76
-8.78
-9.75
-10.58
-11.15
-11.26
-10.72
-9.38
-7.25
-4.54
-1.63
1.05
3.14
4.51
5.23
5.49
5.51
5.40
5.21
4.95
4.64
4.38
4.28
4.44
4.84
5.36
5.82
6.05
6.00
5.75
5.45
5.23
5.13
5.02
4.76
4.22
3.43
2.55
1.78
1.24
0.90
0.62
0.24
-0.36
-1.17
-2.11
-3.09
-4.05
-4.98
-5.90
-6.83
-7.77
-8.77
-9.87
-11.12
-12.48
-13.82
-14.86
-15.30
-14.88
-13.51
-11.34
-8.66
-5.85
-3.21
-0.93
0.96
2.46
3.63
4.48
5.04
5.33
5.44
5.48
5.53
5.66
5.86
6.07
6.27
6.45
6.67
6.97
7.38
7.84
8.24
8.45
8.39
8.02
7.37
6.52
5.57
4.64
3.78
3.06
2.44
1.82
1.10
0.17
-0.98
-2.24
-3.42
-4.36
-5.01
-5.44
-5.85
-6.43
-7.31
-8.54
-10.04
-11.63
-13.07
-14.08
-14.39
-13.79
-12.22
-9.84
-6.98
-4.05
-1.45
0.61
2.08
3.09
3.81
4.37
4.83
5.21
5.52
5.80
6.09
6.42
6.77
7.11
7.43
7.71
7.98
8.25
8.50
8.67
8.71
8.55
8.19
7.66
7.00
6.27
5.48
4.67
3.85
3.03
2.23
1.46
0.71
-0.07
-0.92
-1.88
-2.93
-3.97
-4.87
-5.54
-6.02
-6.44
-7.05
-8.04
-9.47
-11.19
-12.87
-14.08
-14.44
-13.75
-12.03
-9.53
-6.65
-3.79
-1.25
0.85
2.44
3.60
4.36
4.80
4.97
4.96
4.88
4.85
4.96
5.28
5.80
6.44
7.11
7.65
7.97
8.06
7.95
7.73
7.47
7.22
6.98
6.72
6.43
6.12
5.79
5.45
5.08
4.69
4.27
3.81
3.26
2.60
1.78
0.80
-0.28
-1.36
-2.32
-3.09
-3.66
-4.10
-4.54
-5.12
-5.97
-7.17
-8.70
-10.38
-11.93
-12.99
-13.21
-12.42
-10.63
-8.08
-5.15
-2.24
0.34
2.43
3.98
5.02
5.59
5.73
5.50
5.08
4.65
4.43
4.53
4.92
5.44
5.94
6.30
6.55
6.78
7.10
7.50
7.90
8.14
8.14
7.87
7.42
6.90
6.34
5.74
5.05
4.27
3.42
2.61
1.94
1.43
1.04
0.65
0.16
-0.48
-1.25
-2.11
-3.01
-3.93
-4.86
-5.82
-6.82
-7.90
-9.08
-10.34
-11.58
-12.58
-13.05
-12.73
-11.50
-9.45
-6.85
-4.07
-1.44
0.80
2.57
3.82
4.57
4.81
4.56
3.90
2.98
2.09
1.49
1.41
1.90
2.86
4.04
5.14
5.96
6.40
6.53
6.47
6.37
6.30
6.21
6.03
5.64
5.01
4.24
3.45
2.80
2.34
1.97
1.51
0.79
-0.22
-1.41
-2.55
-3.46
-4.09
-4.55
-5.02
-5.67
-6.55
-7.62
-8.83
-10.10
-11.39
-12.60
-13.54
-13.93
-13.51
-12.15
-9.95
-7.21
-4.36
-1.79
0.24
1.67
2.56
3.09
3.44
3.73
3.98
4.14
4.16
4.06
3.93
3.90
4.09
4.49
5.01
5.53
5.95
6.26
6.51
6.73
6.87
6.84
6.53
5.92
5.12
4.29
3.55
2.96
2.48
2.04
1.57
1.02
0.34
-0.52
-1.53
-2.64
-3.71
-4.59
-5.16
-5.44
-5.57
-5.78
-6.30
-7.25
-8.64
-10.33
-12.10
-13.64
-14.67
-14.90
-14.14
-12.35
-9.68
-6.47
-3.18
-0.26
1.97
3.38
4.11
4.38
4.50
4.66
4.94
5.30
5.67
6.02
6.33
6.61
6.88
7.14
7.37
7.56
7.69
7.73
7.67
7.50
7.22
6.84
6.37
5.84
5.25
4.62
3.99
3.40
2.89
2.44
1.98
1.42
0.69
-0.18
-1.13
-2.05
-2.90
-3.69
-4.45
-5.18
-5.89
-6.57
-7.27
-8.07
-9.08
-10.26
-11.42
-12.22
-12.32
-11.51
-9.82
-7.49
-4.83
-2.15
0.37
2.64
4.61
6.25
7.53
8.44
9.03
9.39
9.62
9.82
10.07
10.41
10.87
11.48
12.24
13.13
14.11
15.12
16.09
16.94
17.58
18.00
18.18
18.20
18.15
18.08
18.02
17.89
17.60
17.04
16.15
14.93
13.45
11.78
10.02
8.23
6.49
4.89
3.49
2.34
1.35
0.38
-0.83
-2.46
-4.62
-7.25
-10.11
-12.86
-15.10
-16.49
-16.84
-16.11
-14.49
-12.27
-9.78
-7.33
-5.15
-3.38
-2.11
-1.38
-1.16
-1.35
-1.77
-2.25
-2.66
-2.90
-2.97
-2.83
-2.48
-1.92
-1.21
-0.48
0.10
0.44
0.54
0.51
0.46
0.43
0.35
0.07
-0.49
-1.31
-2.23
-3.06
-3.66
-3.96
-4.04
-4.04
-4.14
-4.48
-5.15
-6.09
-7.12
-8.03
-8.64
-8.97
-9.21
-9.72
-10.81
-12.62
-14.99
-17.48
-19.53
-20.60
-20.42
-19.04
-16.79
-14.09
-11.33
-8.71
-6.24
-3.90
-1.68
0.31
1.93
3.05
3.65
3.77
3.54
3.05
2.47
1.94
1.67
1.77
2.24
2.92
3.56
3.94
4.04
4.00
4.10
4.52
5.29
6.26
7.20
8.00
8.69
9.40
10.25
11.32
12.62
14.19
16.18
18.77
22.13
26.20
30.65
34.95
38.53
41.00
42.27
42.50
41.97
40.92
39.52
37.93
36.31
34.93
34.07
33.95
34.61
35.88
37.40
38.73
39.52
39.57
38.96
37.89
36.64
35.41
34.23
33.06
31.86
30.65
29.48
28.33
27.01
25.24
22.91
20.24
17.86
16.48
16.40
17.18
17.61
16.17
11.68
3.89
-6.52
-18.25
-29.99
-40.81
-50.20
-57.93
-63.85
-67.86
-70.09
-71.11
-71.94
-73.83
-77.92
-84.95
-95.03
-107.69
-121.98
-136.58
-149.94
-160.51
-167.02
-168.77
-165.78
-158.79
-148.99
-137.70
-125.97
-114.42
-103.09
-91.56
-79.14
-65.05
-48.76
-30.12
-9.50
12.22
33.84
54.10
71.91
86.61
98.05
106.59
112.86
117.55
121.12
123.72
125.18
125.30
123.98
121.33
117.51
112.68
106.87
100.06
92.29
83.78
74.87
65.94
57.24
48.87
40.83
33.18
26.05
19.64
14.07
9.26
4.93
0.72
-3.62
-8.07
-12.33
-15.97
-18.61
-20.14
-20.67
-20.48
-19.85
-18.87
-17.47
-15.51
-12.98
-10.03
-7.00
-4.27
-2.11
-0.68
0.04
0.13
-0.26
-0.94
-1.71
-2.39
-2.90
-3.28
-3.70
-4.34
-5.39
-6.88
-8.78
-10.92
-13.18
-15.46
-17.71
-19.96
-22.25
-24.64
-27.17
-29.88
-32.78
-35.85
-38.97
-42.00
-44.71
-46.93
-48.55
-49.66
-50.51
-51.43
-52.75
-54.52
-56.53
-58.24
-59.00
-58.22
-55.62
-51.37
-45.94
-40.02
-34.11
-28.40
-22.69
-16.61
-9.97
-3.05
3.29
7.91
9.81
8.60
4.51
-1.69
-9.03
-16.51
-23.05
-27.46
-28.50
-25.44
-18.47
-8.92
1.24
10.36
17.93
24.76
32.14
40.68
49.49
56.46
59.33
57.13
50.83
43.04
36.79
34.20
35.78
40.61
47.21
54.46
61.95
69.84
78.29
86.89
94.57
99.82
101.37
98.63
91.94
82.43
71.56
60.61
50.37
41.24
33.37
26.89
21.94
18.56
16.53
15.34
14.32
12.84
10.57
7.49
3.86
0.08
-3.47
-6.53
-8.98
-10.83
-12.15
-13.11
-13.90
-14.74
-15.82
-17.24
-19.03
-21.21
-23.77
-26.74
-30.05
-33.46
-36.52
-38.62
-39.18
-37.91
-34.93
-30.79
-26.23
-21.96
-18.40
-15.67
-13.73
-12.57
-12.24
-12.86
-14.42
-16.66
-19.12
-21.27
-22.72
-23.35
-23.27
-22.71
-21.86
-20.87
-19.86
-19.06
-18.69
-18.91
-19.52
-20.06
-19.94
-18.83
-16.87
-14.75
-13.30
-13.08
-14.02
-15.52
-16.75
-17.22
-17.00
-16.71
-17.08
-18.51
-20.78
-23.19
-24.83
-25.09
-23.84
-21.43
-18.45
-15.52
-13.08
-11.47
-10.92
-11.59
-13.43
-16.03
-18.61
-20.24
-20.20
-18.37
-15.29
-11.87
-8.88
-6.63
-4.87
-3.12
-1.13
0.89
2.29
2.38
0.80
-2.16
-5.70
-8.80
-10.60
-10.52
-8.43
-4.64
-0.08
3.84
5.54
3.94
-0.82
-7.14
-12.31
-13.68
-9.82
-1.30
9.60
19.90
27.21
30.67
30.95
29.58
28.05
27.15
26.93
26.93
26.68
25.88
24.47
22.54
20.18
17.43
14.28
10.77
7.05
3.51
0.72
-0.71
-0.37
1.68
4.79
7.92
9.89
9.88
7.61
3.49
-1.67
-6.90
-11.50
-15.17
-18.12
-20.88
-24.04
-27.97
-32.52
-37.10
-40.85
-43.07
-43.55
-42.65
-41.15
-39.82
-39.12
-39.07
-39.38
-39.71
-39.86
-39.73
-39.18
-37.94
-35.73
-32.41
-28.23
-23.76
-19.66
-16.37
-13.90
-11.86
-9.76
-7.23
-4.26
-1.07
2.04
4.87
7.38
9.56
11.41
12.88
13.95
14.68
15.21
15.74
16.39
17.17
18.03
18.89
19.71
20.41
20.90
21.03
20.64
19.67
18.23
16.56
14.90
13.41
12.06
10.72
9.30
7.87
6.63
5.81
5.47
5.46
5.46
5.12
4.30
3.09
1.76
0.58
-0.29
-0.88
-1.30
-1.63
-1.84
-1.76
-1.22
-0.14
1.43
3.33
5.35
7.29
9.02
10.45
11.52
12.23
12.59
12.62
12.40
12.01
11.58
11.23
11.04
11.04
11.15
11.29
11.34
11.29
11.17
11.07
11.04
11.06
11.07
10.95
10.62
10.07
9.30
8.35
7.26
6.10
4.97
3.96
3.13
2.40
1.61
0.55
-0.91
-2.76
-4.80
-6.77
-8.44
-9.68
-10.47
-10.87
-10.90
-10.52
-9.69
-8.40
-6.71
-4.78
-2.78
-0.88
0.80
2.21
3.30
4.04
4.43
4.51
4.40
4.26
4.26
4.46
4.83
5.25
5.57
5.72
5.73
5.72
5.81
6.07
6.47
6.87
7.10
6.98
6.44
5.50
4.25
2.85
1.47
0.24
-0.76
-1.55
-2.17
-2.69
-3.14
-3.48
-3.69
-3.73
-3.67
-3.61
-3.71
-4.11
-4.86
-5.92
-7.14
-8.33
-9.29
-9.86
-9.89
-9.29
-8.04
-6.23
-4.07
-1.81
0.29
2.07
3.50
4.56
5.31
5.75
5.87
5.69
5.27
4.78
4.39
4.29
4.55
5.16
5.94
6.70
7.21
7.35
7.07
6.46
5.68
4.88
4.27
3.94
3.95
4.27
4.75
5.25
5.59
5.69
5.57
5.29
4.88
4.32
3.49
2.24
0.52
-1.62
-4.02
-6.45
-8.74
-10.75
-12.47
-13.89
-15.00
-15.78
-16.14
-16.00
-15.32
-14.09
-12.37
-10.30
-8.03
-5.73
-3.55
-1.53
0.39
2.34
4.46
6.83
9.38
11.91
14.11
15.78
16.86
17.49
17.92
18.38
18.94
19.52
19.95
20.09
19.93
19.57
19.19
18.90
18.75
18.66
18.50
18.15
17.50
16.50
15.14
13.47
11.61
9.65
7.67
5.68
3.70
1.73
-0.19
-1.95
-3.37
-4.32
-4.74
-4.79
-4.76
-5.05
-5.99
-7.66
-9.78
-11.76
-12.85
-12.41
-10.16
-6.34
-1.60
3.08
6.76
8.72
8.71
6.89
3.79
0.08
-3.65
-6.96
-9.60
-11.45
-12.49
-12.78
-12.51
-11.98
-11.58
-11.67
-12.45
-13.88
-15.75
-17.72
-19.49
-20.77
-21.41
-21.31
-20.58
-19.48
-18.43
-17.85
-17.97
-18.70
-19.63
-20.18
-19.84
-18.30
-15.51
-11.52
-6.46
-0.50
6.08
12.80
19.05
24.33
28.50
31.85
35.01
38.50
42.41
46.25
49.11
50.10
48.76
45.21
40.05
34.12
28.13
22.65
18.02
14.44
11.99
10.58
9.88
9.45
8.85
7.74
6.09
3.98
1.63
-0.75
-2.96
-4.81
-6.12
-6.76
-6.77
-6.32
-5.74
-5.27
-5.06
-5.05
-5.11
-5.13
-5.10
-5.11
-5.23
-5.48
-5.73
-5.88
-5.87
-5.83
-5.96
-6.46
-7.39
-8.64
-10.02
-11.33
-12.47
-13.47
-14.35
-15.06
-15.46
-15.34
-14.58
-13.23
-11.48
-9.59
-7.79
-6.24
-4.92
-3.78
-2.72
-1.66
-0.60
0.40
1.21
1.67
1.72
1.36
0.74
0.13
-0.26
-0.28
0.07
0.67
1.37
1.98
2.41
2.58
2.46
2.04
1.35
0.42
-0.67
-1.76
-2.71
-3.40
-3.83
-4.12
-4.46
-5.03
-5.89
-6.93
-7.94
-8.71
-9.11
-9.17
-9.04
-8.92
-8.99
-9.34
-9.98
-10.80
-11.58
-11.99
-11.75
-10.71
-8.92
-6.65
-4.29
-2.20
-0.57
0.55
1.27
1.79
2.26
2.79
3.39
4.01
4.53
4.83
4.88
4.67
4.28
3.82
3.38
3.05
2.88
