1520268071.00
64.000000
-0.00
-0.00
-0.00
-0.00
-0.00
-0.00
-0.00
-0.00
-0.00
-0.00
0.00
0.01
0.01
-0.00
-0.03
-0.05
-0.05
0.00
0.13
0.36
0.66
1.01
1.37
1.72
2.06
2.40
2.79
3.24
3.80
4.42
5.06
5.66
6.20
6.68
7.15
7.68
8.31
9.14
10.09
11.04
11.88
12.56
13.14
13.76
14.65
15.96
17.91
20.32
22.90
25.38
27.58
29.57
31.68
34.32
37.81
42.54
48.15
54.10
59.83
64.97
69.58
74.14
79.34
85.71
93.76
103.00
112.62
121.73
129.77
136.75
143.30
150.75
157.77
166.64
177.95
191.79
206.97
220.57
228.25
225.36
208.53
176.87
132.76
80.05
23.07
-34.94
-92.44
-149.16
-205.23
-260.37
-313.74
-363.87
-409.83
-450.91
-486.50
-515.74
-537.23
-549.22
-549.96
-538.37
-514.21
-478.67
-433.88
-382.45
-327.02
-269.84
-212.63
-156.66
-102.95
-52.37
-5.90
35.58
71.43
101.35
125.50
144.38
158.69
169.15
176.37
180.75
182.57
182.07
179.51
175.23
169.65
163.18
156.15
148.81
141.30
133.69
126.02
118.33
110.69
103.16
95.80
88.68
81.83
75.25
68.95
62.95
57.25
51.86
46.78
42.03
37.59
33.45
29.61
26.07
22.81
19.83
17.11
14.67
12.48
10.54
8.83
7.35
6.07
4.97
4.05
3.27
2.62
2.09
1.65
1.30
1.01
0.79
0.61
0.47
0.37
0.28
0.22
0.18
0.15
0.13
0.12
0.12
0.13
0.15
0.17
0.20
0.23
0.27
0.31
0.35
0.40
0.44
0.49
0.54
0.59
0.63
0.69
0.76
0.84
0.94
1.02
1.08
1.09
1.07
1.04
1.04
1.10
1.23
1.44
1.68
1.91
2.10
2.26
2.41
2.61
2.90
3.31
3.80
4.32
4.80
5.16
5.44
5.68
6.02
6.57
7.36
8.32
9.29
10.08
10.53
10.69
10.73
10.96
11.62
12.84
14.42
15.97
16.98
17.08
16.19
14.54
12.62
10.80
9.25
7.64
5.33
1.62
-3.93
-11.11
-19.15
-26.90
-33.43
-38.19
-41.30
-43.41
-45.31
-47.67
-50.94
-55.38
-60.79
-66.24
-69.81
-68.96
-61.40
-46.33
-25.35
-2.22
18.40
32.83
39.66
40.10
36.85
32.64
29.01
26.15
23.51
20.73
18.01
16.08
15.48
16.16
17.44
18.40
18.25
16.85
14.69
12.57
11.24
10.99
11.52
12.09
11.79
9.95
6.56
2.25
-1.81
-4.45
-4.87
-3.04
0.38
4.36
7.93
10.64
12.61
14.31
16.12
18.10
20.03
21.57
22.54
22.95
22.63
21.47
19.22
15.48
10.02
2.91
-5.36
-14.07
-22.70
-31.14
-39.73
-49.06
-59.56
-71.18
-83.28
-94.74
-104.20
-110.27
-111.76
-107.78
-98.02
-83.01
-64.14
-43.55
-23.67
-6.61
6.40
15.25
20.81
24.41
27.28
30.13
33.10
35.91
38.20
39.74
40.58
40.92
40.96
40.85
40.66
40.56
40.78
41.71
43.61
46.52
50.11
53.71
56.61
58.29
58.59
57.77
56.29
54.59
52.89
51.18
49.30
47.12
44.65
42.02
39.32
36.52
33.41
29.72
25.27
20.17
14.74
9.40
4.44
-0.15
-4.55
-9.05
-13.85
-18.91
-24.08
-29.16
-33.99
-38.53
-42.84
-47.07
-51.43
-56.24
-61.86
-68.61
-76.50
-85.19
-93.86
-101.42
-106.75
-108.99
-107.79
-103.32
-96.18
-87.13
-76.81
-65.72
-54.19
-42.55
-31.25
-20.82
-11.84
-4.76
0.22
3.28
4.87
5.72
6.58
8.05
10.40
13.66
17.69
22.35
27.59
33.41
39.68
45.96
51.58
55.91
58.66
60.08
60.87
61.85
63.52
65.89
68.54
70.89
72.46
72.94
72.16
69.95
66.16
60.70
53.67
45.28
35.81
25.43
14.16
1.85
-11.50
-25.69
-40.23
-54.47
-67.66
-79.11
-88.29
-94.87
-98.85
-100.51
-100.43
-99.15
-97.05
-94.19
-90.46
-85.76
-80.11
-73.58
-66.05
-57.17
-46.40
-33.58
-19.32
-5.13
6.94
15.16
18.99
19.30
18.02
17.22
18.14
20.75
23.90
26.05
26.08
23.78
19.94
16.02
13.58
13.79
17.14
23.16
30.48
36.94
40.07
37.79
29.18
15.26
-0.79
-14.09
-19.51
-13.66
3.59
28.54
54.77
75.43
85.72
84.57
74.82
61.86
51.38
47.29
50.54
59.37
70.39
80.22
86.46
88.06
85.01
77.73
66.56
51.72
33.44
12.18
-11.07
-34.86
-57.36
-76.61
-90.86
-98.98
-100.76
-97.11
-89.71
-80.40
-70.58
-60.87
-51.41
-42.44
-34.67
-29.21
-26.86
-27.42
-29.49
-30.92
-29.85
-25.48
-18.45
-10.42
-3.34
1.33
3.07
2.20
-0.47
-4.04
-7.81
-11.36
-14.48
-17.18
-19.48
-21.27
-22.25
-21.82
-19.35
-14.45
-7.35
1.05
9.27
15.75
19.37
19.88
18.09
15.60
14.35
16.21
22.59
34.27
51.08
71.71
93.56
113.18
127.22
133.57
132.15
124.83
114.47
103.54
93.14
82.82
71.32
57.72
42.13
25.82
10.62
-1.82
-10.49
-15.16
-16.24
-14.50
-10.95
-6.66
-2.55
0.55
2.04
1.49
-1.16
-5.48
-10.48
-14.78
-17.10
-16.73
-13.87
-9.47
-4.94
-1.54
0.08
0.04
-0.97
-2.06
-2.56
-2.37
-1.88
-1.67
-2.18
-3.40
-4.92
-6.17
-6.76
-6.71
-6.43
-6.52
-7.39
-9.19
-11.71
-14.53
-17.21
-19.45
-21.18
-22.68
-24.41
-26.85
-30.12
-33.95
-37.66
-40.50
-41.88
-41.58
-39.57
-35.79
-30.07
-22.19
-12.25
-0.86
10.90
21.76
30.80
37.74
42.94
47.06
50.56
53.50
55.60
56.58
56.50
55.89
55.52
55.93
57.10
58.45
59.17
58.69
56.98
54.50
51.80
49.13
46.26
42.72
38.18
32.78
27.09
21.76
17.13
13.04
8.98
4.47
-0.53
-5.62
-10.11
-13.45
-15.57
-16.85
-18.00
-19.68
-22.35
-26.21
-31.30
-37.55
-44.77
-52.48
-59.85
-65.73
-68.86
-68.28
-63.71
-55.67
-45.31
-34.12
-23.42
-14.09
-6.49
-0.53
4.10
7.69
10.44
12.50
13.94
14.89
15.50
15.89
16.10
16.13
15.88
15.27
14.20
12.63
10.68
8.56
6.54
4.88
3.64
2.66
1.60
0.13
-1.94
-4.51
-7.30
-9.99
-12.33
-14.30
-16.02
-17.72
-19.62
-21.91
-24.69
-27.91
-31.38
-34.76
-37.69
-39.95
-41.54
-42.72
-43.94
-45.69
-48.31
-51.95
-56.45
-61.32
-65.79
-68.92
-69.80
-67.77
-62.67
-54.91
-45.34
-35.05
-25.07
-16.15
-8.64
-2.52
2.47
6.67
10.42
13.94
17.31
20.53
23.50
26.08
28.14
29.58
30.38
30.64
30.53
30.29
30.15
30.28
30.72
31.42
32.24
32.97
33.39
33.27
32.45
30.87
28.64
26.05
23.45
21.20
19.45
18.09
16.74
14.98
12.49
9.23
5.49
1.74
-1.60
-4.33
-6.52
-8.44
-10.40
-12.65
-15.40
-18.83
-23.14
-28.48
-34.70
-41.22
-47.06
-51.05
-52.24
-50.29
-45.62
-39.27
-32.57
-26.70
-22.32
-19.47
-17.56
-15.70
-12.99
-8.86
-3.30
3.27
10.24
17.12
23.87
30.88
38.82
48.21
59.19
71.26
83.46
94.71
104.13
111.22
115.89
118.14
117.99
115.51
111.10
105.63
100.05
94.57
87.84
77.12
59.57
34.04
2.46
-30.43
-59.06
-79.61
-91.66
-97.90
-102.09
-106.57
-111.04
-113.06
-110.02
-100.96
-87.10
-70.99
-54.98
-39.59
-24.04
-7.01
12.22
33.16
54.39
74.40
92.35
108.14
122.41
135.44
146.78
155.38
160.15
160.62
157.48
152.47
147.45
144.70
144.98
147.59
150.55
151.20
146.95
135.96
117.76
92.62
64.83
39.07
20.60
13.72
20.06
37.23
59.02
76.98
81.23
69.45
41.60
1.74
-44.21
-90.90
-135.60
-178.46
-221.49
-270.18
-322.42
-379.13
-440.62
-506.45
-574.55
-640.49
-697.41
-737.33
-757.91
-751.53
-720.33
-670.22
-608.45
-540.79
-470.08
-396.79
-294.96
-202.30
-117.73
-47.01
5.86
41.47
65.84
88.28
117.37
156.98
200.39
245.50
284.74
314.14
334.87
351.58
368.93
388.39
407.45
418.12
420.20
412.66
398.02
380.95
365.85
354.90
347.69
341.96
333.01
321.28
305.96
286.88
263.89
236.47
204.07
166.93
126.60
84.93
46.41
13.70
-12.02
-31.23
-45.64
-57.27
-67.80
-78.08
-88.49
-97.93
-105.26
-109.22
-108.76
-103.41
-93.48
-80.11
-65.00
-50.01
-36.60
-25.49
-16.59
-9.31
-2.98
2.63
7.13
9.65
9.33
5.72
-1.17
-11.16
-24.19
-40.32
-59.39
-80.32
-100.86
-118.10
-129.35
-133.34
-130.72
-123.73
-115.16
-107.20
-100.88
-96.16
-92.55
-89.72
-87.70
-86.78
-87.10
-88.47
-90.39
-92.23
-93.45
-93.86
-93.59
-93.04
-92.73
-93.11
-94.43
-96.71
-99.65
-102.46
-103.64
-101.00
-91.92
-74.14
-46.76
-11.04
29.54
70.04
105.44
132.16
148.83
156.36
157.01
153.40
147.47
140.21
131.72
121.75
110.21
97.48
84.62
73.02
64.08
58.71
57.08
58.61
62.22
66.75
71.25
75.12
77.92
79.25
78.75
76.26
71.98
66.36
59.92
52.80
44.84
35.72
25.46
14.68
4.58
-3.53
-8.74
-10.83
-10.32
-8.05
-4.82
-1.26
2.13
4.80
6.21
6.00
4.24
1.52
-1.26
-3.27
-4.08
-3.88
-3.37
-3.37
-4.58
-7.26
-11.19
-15.77
-20.21
-23.79
-26.11
-27.32
-28.07
-29.31
-31.93
-36.37
-42.36
-48.96
-54.77
-58.41
-58.86
-55.75
-49.39
-40.65
-30.65
-20.47
-10.94
-2.50
4.67
10.60
15.29
18.79
21.13
22.48
23.16
23.55
23.95
24.50
25.12
25.53
25.52
24.99
24.07
23.10
22.44
22.28
22.61
23.12
23.41
23.07
21.92
19.96
17.33
14.24
10.90
7.48
4.25
1.43
-0.82
-2.60
-4.26
-6.33
-9.20
-12.92
-17.10
-21.17
-24.57
-27.09
-28.92
-30.51
-32.40
-35.03
-38.68
-43.40
-48.87
-54.43
-58.98
-61.31
-60.37
-55.68
-47.54
-36.93
-25.24
-13.81
-3.63
4.83
11.52
16.67
20.58
23.54
25.76
27.41
28.65
29.63
30.49
31.26
31.91
32.32
32.41
32.20
31.87
31.70
31.89
32.50
33.30
33.89
33.88
33.00
31.26
28.87
26.23
23.71
21.55
19.79
18.31
16.81
15.01
12.67
9.71
6.23
2.48
-1.24
-4.70
-7.86
-10.86
-13.90
-17.16
-20.66
-24.23
-27.63
-30.67
-33.39
-36.09
-39.26
-43.40
-48.69
-54.85
-60.98
-65.82
-68.04
-66.63
-61.32
-52.50
-41.13
-28.46
-15.68
-3.74
6.67
15.10
21.40
25.61
28.06
29.24
29.73
30.04
30.43
30.93
31.40
31.65
31.56
31.21
30.79
30.55
30.65
31.09
31.71
32.32
32.70
32.76
32.46
31.77
30.62
28.92
26.65
23.93
21.00
18.21
15.77
13.75
11.98
10.14
7.94
5.31
2.37
-0.55
-3.15
-5.32
-7.19
-9.06
-11.28
-14.06
-17.40
-21.08
-24.75
-28.15
-31.13
-33.78
-36.40
-39.36
-43.04
-47.53
-52.53
-57.24
-60.47
-61.02
-58.07
-51.44
-41.72
-30.07
-17.80
-6.12
4.13
12.53
18.96
23.54
26.53
28.30
29.25
29.79
30.20
30.66
31.23
31.84
32.44
32.93
33.29
33.54
33.75
34.03
34.50
35.17
35.96
36.68
37.10
36.99
36.23
34.81
32.84
30.56
28.19
25.87
23.62
21.30
18.69
15.67
12.31
8.84
5.61
2.88
0.64
-1.41
-3.73
-6.77
-10.63
-15.04
-19.44
-23.17
-25.83
-27.44
-28.41
-29.43
-31.20
-34.19
-38.56
-44.00
-49.83
-55.04
-58.49
-59.10
-56.18
-49.64
-40.06
-28.59
-16.62
-5.40
4.21
11.83
17.47
21.41
23.99
25.58
26.49
26.99
27.34
27.65
28.03
28.51
29.05
29.62
30.15
30.60
30.95
31.22
31.50
31.84
32.15
32.19
31.63
30.20
27.86
24.89
21.82
19.15
17.20
15.93
15.02
14.06
12.70
10.82
8.54
6.13
3.86
1.94
0.36
-1.06
-2.66
-4.75
-7.58
-11.11
-15.14
-19.27
-23.11
-26.39
-29.10
-31.48
-33.98
-37.11
-41.25
-46.49
-52.48
-58.46
-63.30
-65.78
-64.94
-60.30
-52.09
-41.21
-29.04
-16.98
-6.23
2.58
9.34
14.38
18.16
21.11
23.44
25.15
26.20
26.59
26.47
26.14
25.92
26.06
26.67
27.69
28.98
30.33
31.54
32.44
32.90
32.81
32.14
31.01
29.60
28.14
26.76
25.42
23.99
22.31
20.32
18.10
15.87
13.77
11.86
10.08
8.29
6.44
4.51
2.52
0.43
-1.85
-4.41
-7.24
-10.22
-13.22
-16.16
-19.09
-22.13
-25.36
-28.72
-32.02
-35.01
-37.63
-40.02
-42.58
-45.73
-49.66
-54.04
-58.02
-60.35
-59.83
-55.69
-47.93
-37.36
-25.30
-13.21
-2.28
6.79
13.78
18.80
22.15
24.19
25.35
26.05
26.63
27.34
28.24
29.30
30.41
31.52
32.63
33.75
34.88
35.95
36.81
37.33
37.41
36.97
36.04
34.67
32.92
30.89
28.67
26.37
24.09
21.90
19.86
17.95
16.15
14.39
12.62
10.78
8.83
6.74
4.55
2.28
-0.03
-2.35
-4.63
-6.86
-9.06
-11.28
-13.62
-16.19
-19.05
-22.13
-25.26
-28.20
-30.76
-32.98
-35.10
-37.52
-40.67
-44.80
-49.80
-55.16
-60.04
-63.41
-64.31
-62.10
-56.64
-48.26
-37.75
-26.09
-14.32
-3.33
6.17
13.76
19.20
22.59
24.23
24.59
24.19
23.44
22.58
21.65
20.62
19.51
18.42
17.57
17.15
17.24
17.72
18.35
18.84
18.94
18.58
17.76
16.52
14.84
12.77
10.39
7.94
5.76
4.14
3.18
2.69
2.17
1.12
-0.84
-3.74
-7.28
-10.98
-14.36
-17.17
-19.40
-21.19
-22.61
-23.54
-23.59
-22.28
-19.26
-14.61
-8.83
-2.72
2.91
7.50
10.67
12.17
11.71
9.11
4.51
-1.31
-6.97
-10.82
-11.54
-8.74
-3.08
3.89
10.47
15.32
17.81
18.02
16.39
13.49
9.74
5.53
1.23
-2.79
-6.06
-8.23
-9.11
-8.76
-7.41
-5.38
-3.00
-0.53
1.85
4.08
6.26
8.61
11.38
14.69
18.37
21.95
24.86
26.67
27.27
26.93
26.02
24.79
23.26
21.25
18.66
15.64
12.54
9.82
7.81
6.60
6.07
6.06
6.35
6.72
6.92
6.66
5.75
4.20
2.26
0.30
-1.32
-2.42
-3.13
-3.85
-5.18
-7.75
-11.99
-17.92
-24.89
-31.63
-36.52
-38.09
-35.53
-28.96
-19.35
-8.13
3.22
13.60
22.31
29.00
33.46
35.62
35.52
33.46
29.90
25.40
20.49
15.49
10.65
6.13
2.10
-1.28
-3.93
-5.94
-7.46
-8.68
-9.68
-10.42
-10.77
-10.69
-10.25
-9.70
-9.29
-9.22
-9.50
-9.99
-10.47
-10.70
-10.50
-9.83
-8.79
-7.68
-6.95
-7.03
-8.21
-10.51
-13.62
-17.05
-20.33
-23.12
-25.34
-27.13
-28.76
-30.59
-32.97
-36.07
-39.73
-43.34
-45.92
-46.37
-43.93
-38.51
-30.77
-21.90
-13.11
-5.21
1.55
7.33
12.41
16.86
20.53
23.11
24.38
24.35
23.35
21.86
20.40
19.38
19.04
19.42
20.44
21.93
23.71
25.56
27.31
28.85
30.04
30.77
30.99
30.68
29.90
28.71
27.11
24.93
21.78
17.23
10.97
3.04
-6.05
-15.48
-24.37
-32.03
-38.14
-42.75
-46.19
-48.93
-51.47
-54.31
-57.80
-61.96
-66.32
-69.91
-71.49
-70.02
-65.11
-57.23
-47.59
-37.68
-28.84
-21.84
-16.87
-13.55
-11.09
-8.29
-3.68
4.18
16.21
32.38
51.43
71.14
88.94
102.79
111.80
116.30
117.55
117.02
115.75
114.05
111.37
106.65
98.73
86.82
70.84
51.59
30.60
9.80
-8.90
-24.08
-35.10
-42.17
-46.23
-48.66
-50.91
-54.27
-59.64
-67.41
-77.47
-89.17
-101.36
-112.53
-121.06
-125.70
-126.02
-122.66
-117.08
-110.83
-104.62
-97.79
-88.47
-74.45
-54.32
-28.34
1.52
32.29
61.15
86.22
106.92
123.54
136.70
146.90
154.53
159.94
163.57
165.77
166.51
165.17
160.63
151.73
137.91
119.55
98.06
75.37
53.37
33.34
15.76
0.44
-13.13
-25.43
-36.70
-46.95
-56.01
-63.78
-70.17
-75.20
-78.95
-81.58
-83.33
-84.62
-85.95
-87.71
-90.00
-92.42
-94.09
-93.86
-90.74
-84.26
-74.72
-63.08
-50.64
-38.67
-28.04
-19.14
-11.93
-6.19
-1.65
1.89
4.61
6.68
8.25
9.42
10.19
10.55
10.51
10.20
9.89
9.93
10.57
11.93
13.90
16.22
18.53
20.43
21.62
21.91
21.32
20.13
18.85
18.01
18.00
18.80
20.05
21.09
21.34
20.54
18.84
16.73
14.78
13.41
12.70
12.39
12.02
11.07
9.11
5.88
1.43
-3.81
-8.96
-12.81
-14.16
-12.38
-7.92
-2.40
1.84
2.63
-1.14
-8.97
-19.03
-28.90
-36.55
-40.94
-42.06
-40.63
-37.57
-33.64
-29.41
-25.28
-21.56
-18.46
-16.00
-13.97
-11.97
-9.61
-6.60
-2.94
1.15
5.26
8.97
11.96
14.14
15.66
16.84
18.00
19.32
20.75
22.00
22.73
22.57
21.40
19.36
16.92
14.77
13.54
13.61
14.85
16.68
18.25
18.81
17.97
15.75
12.49
8.59
4.28
-0.48
-5.81
-11.84
-18.41
-25.04
-30.96
-35.29
-37.21
-36.21
-32.37
-26.37
-19.42
-12.94
-8.06
-5.25
-4.22
-4.06
-3.75
-2.57
-0.34
2.65
5.90
9.06
12.02
14.87
17.64
20.16
22.06
23.03
22.99
22.25
21.35
20.79
20.81
21.22
21.54
21.31
20.25
18.39
16.00
13.44
10.98
8.81
7.00
5.53
4.28
3.06
1.63
-0.25
-2.61
-5.28
-7.96
-10.27
-12.04
-13.29
-14.30
-15.42
-16.91
-18.90
-21.33
-24.03
-26.75
-29.27
-31.39
-33.02
-34.28
-35.47
-37.09
-39.51
-42.86
-46.74
-50.30
-52.44
-52.22
-49.17
-43.51
-36.04
-27.85
-20.00
-13.20
-7.78
-3.64
-0.38
2.49
5.38
8.44
11.44
13.89
15.30
15.48
14.76
13.88
13.64
14.57
16.74
19.83
23.35
26.89
30.15
32.88
34.73
35.34
34.45
32.19
29.11
26.01
23.63
22.31
21.85
21.67
21.11
19.80
17.71
15.22
12.84
11.04
10.07
10.03
10.94
12.94
16.25
21.12
27.57
35.20
43.19
50.53
56.35
60.23
62.29
63.07
63.15
62.77
61.65
58.95
53.59
44.52
31.19
13.72
-6.93
-29.23
-51.33
-71.53
-88.56
-101.78
-111.16
-117.01
-119.71
-119.59
-116.80
-111.41
-103.55
-93.50
-81.78
-69.23
-57.08
-46.80
-39.82
-37.05
-38.39
-42.61
-47.66
-51.29
-51.91
-49.07
-43.54
-36.79
-30.24
-24.67
-20.00
-15.55
-10.58
-4.73
1.78
8.32
14.18
18.88
22.32
24.64
26.03
26.58
26.25
25.07
23.25
21.22
19.49
18.44
18.12
18.20
18.10
17.15
14.88
11.18
6.37
1.08
-3.90
-7.86
-10.45
-11.76
-12.29
-12.79
-14.11
-16.95
-21.68
-28.16
-35.66
-42.89
-48.25
-50.32
-48.26
-42.13
-32.88
-21.99
-11.03
-1.19
6.85
13.01
17.53
20.83
23.31
25.26
26.81
28.00
28.82
29.27
29.48
29.62
29.83
30.17
30.56
30.87
30.99
30.96
30.95
31.16
31.69
32.46
33.22
33.64
33.47
32.64
31.26
29.56
27.76
26.05
24.41
22.80
21.08
19.10
16.81
14.24
11.51
8.78
6.17
3.72
1.30
-1.30
-4.29
-7.74
-11.52
-15.29
-18.72
-21.60
-23.91
-25.85
-27.71
-29.79
-32.31
-35.47
-39.34
-43.84
-48.54
-52.66
-55.10
-54.84
-51.26
-44.50
-35.41
-25.30
-15.48
-6.93
-0.03
5.30
9.53
13.13
16.45
19.65
22.65
25.27
27.35
28.81
29.69
30.13
30.33
30.46
30.69
31.20
32.14
33.57
35.42
37.41
39.12
40.12
40.11
39.03
37.09
34.64
32.12
29.84
27.95
26.43
25.09
23.74
22.24
20.59
18.88
17.19
15.54
13.81
11.80
9.37
6.49
3.36
0.29
-2.49
-4.86
-6.98
-9.11
-11.54
-14.44
-17.75
-21.29
-24.81
-28.11
-31.14
-34.01
-36.99
-40.40
-44.49
-49.25
-54.31
-58.86
-61.76
-61.87
-58.41
-51.33
-41.38
-29.91
-18.47
-8.36
-0.26
5.77
10.14
13.41
16.06
18.39
20.56
22.64
24.68
26.69
28.58
30.21
31.46
32.34
33.10
34.16
35.94
38.69
42.25
46.04
49.24
51.07
51.01
49.01
45.43
40.90
36.12
31.66
27.86
24.84
22.48
20.55
18.72
16.65
14.10
11.01
7.48
3.78
0.27
-2.77
-5.20
-7.05
-8.44
-9.49
-10.33
-11.00
-11.64
-12.46
-13.68
-15.46
-17.82
-20.53
-23.32
-25.87
-28.03
-29.85
-31.53
-33.40
-35.80
-39.01
-43.12
-47.92
-52.73
-56.55
-58.13
-56.45
-51.08
-42.34
-31.35
-19.57
-8.44
1.08
8.62
14.30
18.55
21.74
24.21
26.18
27.87
29.43
30.97
32.47
33.82
34.94
35.82
36.55
37.30
38.18
39.17
40.19
41.08
41.74
42.01
41.74
40.71
38.72
35.75
32.06
28.19
24.71
22.07
20.31
19.11
18.00
16.58
14.76
12.73
10.82
9.17
7.66
5.91
3.49
0.23
-3.69
-7.72
-11.28
-13.95
-15.73
-16.93
-18.04
-19.40
-21.16
-23.22
-25.34
-27.36
-29.14
-30.68
-32.05
-33.36
-34.87
-36.85
-39.59
-43.20
-47.47
-51.75
-55.09
-56.44
-54.94
-50.27
-42.70
-33.11
-22.67
-12.61
-3.83
3.20
8.43
12.13
14.66
16.38
17.62
18.63
19.62
20.74
22.03
23.45
24.90
26.24
27.37
28.27
28.97
29.54
30.05
30.57
31.06
31.43
31.49
31.03
29.90
28.04
25.60
22.85
20.18
17.94
16.36
15.39
14.75
14.04
12.90
11.17
8.97
6.58
4.30
2.31
0.62
-0.88
-2.32
-3.85
-5.56
-7.51
-9.77
-12.30
-15.06
-17.90
-20.69
-23.34
-25.87
-28.35
-30.95
-33.85
-37.28
-41.35
-45.97
-50.70
-54.70
-56.90
-56.34
-52.48
-45.54
-36.37
-26.28
-16.54
-8.10
-1.36
3.77
7.67
10.75
13.30
15.44
17.20
18.60
19.70
20.58
21.32
21.94
22.43
22.79
23.13
23.57
24.26
25.24
26.46
27.77
28.96
29.80
30.09
29.64
28.40
26.45
24.10
21.74
19.77
18.41
17.61
17.11
16.59
15.78
14.56
13.01
11.26
9.46
7.68
5.89
4.03
2.01
-0.24
-2.72
-5.36
-8.05
-10.67
-13.16
-15.57
-18.01
-20.66
-23.57
-26.69
-29.76
-32.45
-34.49
-35.91
-37.08
-38.66
-41.33
-45.45
-50.71
-56.13
-60.31
-61.87
-59.95
-54.47
-46.12
-36.07
-25.56
-15.58
-6.78
0.55
6.34
10.64
13.61
15.51
16.70
17.61
18.60
19.98
21.86
24.18
26.69
29.06
31.00
32.35
33.11
33.42
33.47
33.40
33.26
32.95
32.34
31.33
29.90
28.15
26.27
24.52
23.07
21.98
21.15
20.36
19.39
18.12
16.60
14.99
13.48
12.19
11.07
9.98
8.73
7.17
5.28
3.16
0.99
-1.09
-2.99
-4.79
-6.61
-8.65
-11.04
-13.81
-16.89
-20.11
-23.31
-26.34
-29.16
-31.82
-34.52
-37.60
-41.44
-46.25
-51.85
-57.58
-62.34
-64.88
-64.19
-59.84
-52.12
-42.00
-30.85
-19.98
-10.38
-2.53
3.57
8.23
11.84
14.70
17.04
18.99
20.74
22.42
24.19
26.07
27.96
29.68
31.06
32.00
32.51
32.75
32.92
33.22
33.72
34.34
34.81
34.83
34.18
32.81
30.92
28.85
26.90
25.24
23.88
22.71
21.57
20.36
19.00
17.48
15.79
13.99
12.13
10.28
8.47
6.66
4.76
2.75
0.64
-1.46
-3.47
-5.42
-7.48
-9.86
-12.73
-16.11
-19.83
-23.64
-27.27
-30.51
-33.30
-35.72
-38.02
-40.66
-44.12
-48.72
-54.28
-59.98
-64.52
-66.39
-64.50
-58.58
-49.28
-37.93
-26.15
-15.33
-6.31
0.65
5.82
9.72
12.92
15.83
18.66
21.41
23.91
26.02
27.65
28.82
29.71
30.48
31.28
32.19
33.25
34.41
35.65
36.87
37.92
38.55
38.50
37.56
35.71
33.15
30.27
27.57
25.36
23.75
22.56
21.43
20.01
18.16
15.93
13.59
11.46
9.74
8.44
7.41
6.37
5.10
3.49
1.60
-0.44
-2.50
-4.54
-6.69
-9.09
-11.91
-15.14
-18.63
-22.09
-25.22
-27.84
-29.98
-31.91
-34.05
-36.86
-40.74
-45.81
-51.82
-58.14
-63.73
-67.39
-68.00
-64.87
-57.98
-48.06
-36.43
-24.64
-14.08
-5.56
0.80
5.42
8.98
12.13
15.20
18.24
21.12
23.66
25.82
27.61
29.06
30.21
31.04
31.62
32.08
32.62
33.40
34.42
35.54
36.47
36.90
36.62
35.58
33.87
31.72
29.43
27.25
25.36
23.82
22.56
21.41
20.16
18.68
16.95
15.12
13.36
11.84
10.62
9.58
8.49
7.11
5.34
3.23
0.97
-1.22
-3.21
-5.00
-6.67
-8.36
-10.16
-12.18
-14.53
-17.34
-20.67
-24.41
-28.30
-31.97
-35.13
-37.80
-40.29
-43.20
-47.08
-52.16
-58.16
-64.22
-69.09
-71.50
-70.50
-65.77
-57.67
-47.21
-35.68
-24.43
-14.44
-6.28
0.02
4.77
8.44
11.53
14.40
17.23
20.06
22.82
25.42
27.77
29.82
31.56
33.04
34.30
35.42
36.41
37.24
37.86
38.19
38.18
37.78
36.99
35.83
34.32
32.53
30.57
28.58
26.70
25.06
23.71
22.58
21.52
20.33
18.88
17.11
15.10
13.00
10.95
9.04
7.36
5.91
4.67
3.57
2.50
1.33
-0.04
-1.62
-3.34
-5.07
-6.71
-8.26
-9.82
-11.58
-13.70
-16.28
-19.25
-22.49
-25.80
-29.02
-32.04
-34.82
-37.42
-40.01
-42.89
-46.44
-50.95
-56.36
-62.16
-67.23
-70.23
-69.98
-65.86
-58.15
-47.84
-36.35
-25.09
-15.09
-6.87
-0.53
4.15
7.60
10.30
12.70
15.15
17.77
20.50
23.13
25.47
27.37
28.86
30.04
31.07
32.10
33.23
34.46
35.70
36.78
37.50
37.69
37.25
36.19
34.56
32.50
30.18
27.84
25.73
24.04
22.84
21.99
21.24
20.33
19.13
17.67
16.10
14.55
13.07
11.60
10.05
8.37
6.57
4.66
2.60
0.30
-2.28
-5.06
-7.87
-10.48
-12.84
-15.02
-17.29
-19.91
-23.07
-26.75
-30.81
-35.03
-39.17
-43.04
-46.55
-49.80
-53.04
-56.66
-61.02
-66.20
-71.88
-77.28
-81.35
-82.99
-81.40
-76.28
-67.90
-57.11
-45.11
-33.19
-22.44
-13.57
-6.79
-1.87
1.71
4.49
6.96
9.38
11.82
14.23
16.52
18.62
20.53
22.29
23.95
25.66
27.63
30.12
33.39
37.52
42.39
47.59
52.59
56.85
59.98
61.84
62.53
62.31
61.53
60.53
59.58
58.83
58.29
57.85
57.34
56.65
55.70
54.51
53.06
51.33
49.20
46.54
43.23
39.19
34.48
29.16
23.40
17.37
11.24
5.22
-0.53
-5.87
-10.79
-15.36
-19.83
-24.42
-29.24
-34.21
-39.01
-43.31
-46.91
-49.94
-52.83
-56.13
-60.29
-65.34
-70.88
-76.02
-79.68
-80.86
-78.85
-73.48
-65.14
-54.67
-43.18
-31.84
-21.54
-12.85
-5.93
-0.61
3.44
6.55
9.00
10.98
12.60
13.97
15.19
16.32
17.39
18.35
19.14
19.78
20.39
21.12
22.13
23.45
24.94
26.31
27.17
27.19
26.22
24.37
21.98
19.51
17.36
15.75
14.63
13.75
12.80
11.55
9.92
7.98
5.89
3.86
1.99
0.36
-1.10
-2.51
-4.06
-5.90
-8.16
-10.86
-14.00
-17.48
-21.14
-24.80
-28.24
-31.30
-34.01
-36.66
-39.72
-43.63
-48.53
-54.00
-59.02
-62.27
-62.54
-59.16
-52.27
-42.69
-31.71
-20.64
-10.53
-2.06
4.46
9.06
12.00
13.74
14.84
15.82
17.07
18.74
20.78
22.98
25.08
26.88
28.27
29.27
30.02
30.72
31.59
32.75
34.14
35.51
36.50
36.78
36.21
34.90
33.08
31.08
29.07
27.12
25.20
23.28
21.38
19.62
18.12
16.85
15.71
14.46
12.91
10.97
8.68
6.23
3.81
1.57
-0.53
-2.67
-5.11
-8.08
-11.63
-15.63
-19.79
-23.75
-27.29
-30.37
-33.17
-35.99
-39.14
-42.90
-47.43
-52.70
-58.36
-63.69
-67.57
-68.84
-66.62
-60.76
-51.86
-41.15
-30.01
-19.51
-10.24
-2.33
4.36
10.01
14.78
18.80
22.26
25.32
28.12
30.72
33.08
35.19
37.04
38.70
40.19
41.55
42.75
43.79
44.66
45.33
45.70
45.64
45.00
43.68
41.71
39.24
36.48
33.64
30.84
28.18
25.62
23.13
20.65
18.18
15.71
13.26
10.86
8.51
6.22
3.95
1.67
-0.64
-2.96
-5.32
-7.76
-10.40
-13.33
-16.58
-20.06
-23.55
-26.82
-29.73
-32.30
-34.71
-37.26
-40.24
-43.88
-48.34
-53.58
-59.33
-64.92
-69.37
-71.50
-70.32
-65.38
-56.99
-46.18
-34.40
-22.98
-12.82
-4.25
2.90
8.99
14.32
19.02
23.04
26.34
28.95
31.03
32.85
34.60
36.31
37.83
38.97
39.66
40.01
40.30
40.82
41.62
42.52
43.10
42.98
41.97
40.18
37.92
35.58
33.39
31.45
29.68
27.98
26.22
24.35
22.34
20.21
17.98
15.70
13.42
11.12
8.77
6.29
3.64
0.82
-2.08
-4.87
-7.46
-9.81
-12.06
-14.41
-17.11
-20.28
-23.85
-27.59
-31.21
-34.49
-37.42
-40.20
-43.19
-46.79
-51.31
-56.81
-63.00
-69.12
-74.06
-76.54
-75.50
-70.50
-61.91
-50.86
-38.86
-27.32
-17.17
-8.70
-1.74
4.10
9.21
13.82
18.01
21.78
25.05
27.76
29.88
31.46
32.59
33.43
34.16
34.89
35.61
36.26
36.70
36.80
36.50
35.77
34.65
33.19
31.47
29.51
27.28
24.65
21.59
18.12
14.44
10.91
7.94
5.88
4.99
5.34
6.90
9.49
12.82
16.39
19.51
21.50
21.81
20.27
17.13
12.98
8.52
4.33
0.73
-2.24
-4.69
-6.76
-8.60
-10.31
-12.01
-13.90
-16.17
-18.98
-22.41
-26.45
-31.05
-36.16
-41.77
-47.70
-53.50
-58.36
-61.20
-60.97
-57.06
-49.55
-39.29
-27.65
-16.17
-6.11
1.78
7.35
10.94
13.23
14.92
16.60
18.54
20.69
22.77
24.46
25.54
26.10
26.37
26.69
27.26
28.12
29.14
30.13
30.93
31.52
31.88
32.02
31.91
31.48
30.73
29.72
28.56
27.38
26.16
24.79
23.02
20.65
17.59
14.01
10.29
6.91
4.32
2.76
2.13
2.09
2.13
1.80
0.87
-0.64
-2.51
-4.48
-6.44
-8.40
-10.45
-12.64
-14.86
-16.93
-18.75
-20.44
-22.35
-24.88
-28.34
-32.82
-38.23
-44.30
-50.69
-56.92
-62.32
-66.01
-67.07
-64.85
-59.21
-50.75
-40.58
-30.05
-20.26
-11.87
-5.01
0.58
5.26
9.38
13.17
16.72
20.08
23.26
26.29
29.18
31.91
34.41
36.57
38.27
39.49
40.26
40.69
40.92
40.98
40.84
40.30
39.15
37.25
34.59
31.41
28.07
25.01
22.54
20.79
19.61
18.68
17.64
16.20
14.26
11.92
9.38
6.85
4.42
2.00
-0.62
-3.68
-7.37
-11.68
-16.45
-21.34
-26.01
-30.22
-33.95
-37.37
-40.82
-44.73
-49.45
-55.06
-61.23
-67.15
-71.60
-73.28
-71.23
-65.22
-55.83
-44.35
-32.31
-21.02
-11.34
-3.50
2.64
7.51
11.54
15.09
18.35
21.33
23.95
26.13
27.86
29.31
30.64
31.97
33.30
34.51
35.51
36.32
37.07
37.93
38.84
39.55
39.60
38.65
36.60
33.68
30.32
26.99
23.98
21.36
19.06
16.94
14.83
12.58
10.09
7.32
4.35
1.40
-1.25
-3.44
-5.23
-6.93
-8.99
-11.77
-15.35
-19.56
-24.05
-28.48
-32.69
-36.66
-40.54
-44.57
-49.01
-54.16
-60.22
-67.09
-74.21
-80.52
-84.70
-85.53
-82.37
-75.36
-65.41
-53.84
-41.98
-30.78
-20.71
-11.82
-3.93
3.23
9.93
16.40
22.77
29.05
35.11
40.70
45.52
49.35
52.03
53.59
54.18
54.03
53.45
52.71
51.98
51.34
50.68
49.83
48.59
46.86
44.64
42.03
39.11
35.92
32.45
28.66
24.57
20.24
15.85
11.63
7.88
4.84
2.57
0.91
-0.53
-2.30
-4.83
-8.33
-12.70
-17.67
-22.86
-27.99
-32.83
-37.18
-40.84
-43.58
-45.39
-46.41
-47.06
-47.88
-49.36
-51.82
-55.22
-59.07
-62.46
-64.15
-62.86
-57.64
-48.34
-35.75
-21.49
-7.52
4.48
13.61
19.92
24.25
27.80
31.64
36.41
42.19
48.64
55.16
61.14
66.12
69.92
72.67
74.78
76.81
79.28
82.48
86.24
89.99
92.88
94.02
92.83
89.28
83.89
77.58
71.38
66.06
62.04
59.21
57.14
55.20
52.80
49.48
45.05
39.58
33.38
26.89
20.59
14.80
9.64
5.02
0.66
-3.69
-8.16
-12.74
-17.30
-21.68
-25.74
-29.35
-32.44
-34.97
-37.03
-38.87
-40.90
-43.60
-47.33
-52.08
-57.27
-61.70
-63.78
-61.92
-55.08
-43.10
-26.91
-8.22
10.89
28.64
43.88
56.25
65.95
73.43
79.06
83.03
85.45
86.50
86.54
86.07
85.54
85.18
84.91
84.53
84.03
83.75
84.39
86.64
90.64
95.78
100.72
103.87
103.91
100.11
92.27
80.53
65.10
46.50
25.94
5.19
-13.88
-29.86
-42.35
-51.91
-59.66
-67.03
-75.10
-84.33
-94.67
-105.77
-116.99
-127.53
-136.46
-143.10
-148.04
-152.72
-158.89
-167.86
-180.08
-194.60
-209.68
-223.03
-232.60
-238.42
-240.80
-239.38
-233.18
-221.59
-204.71
-184.41
-162.90
-142.17
-126.23
-117.04
-113.28
-111.36
-108.12
-101.68
-93.29
-84.66
-77.15
-76.09
-84.66
-101.36
-120.99
-138.00
-147.92
-151.21
-150.13
-148.27
-155.70
-179.84
-220.25
-268.64
-313.28
-342.37
-351.23
-339.39
-274.18
-149.20
10.08
160.68
270.49
322.14
333.10
319.23
293.21
264.83
240.10
222.00
212.71
212.49
217.69
222.97
219.33
202.50
174.18
135.53
89.62
41.88
-1.34
-35.30
-47.60
-34.82
-1.02
43.74
85.90
116.21
132.69
138.87
140.22
142.02
144.43
146.37
146.60
142.97
134.06
120.35
104.11
88.33
75.71
65.63
56.80
47.76
36.97
23.43
7.32
-9.97
-26.54
-40.33
-51.71
-61.65
-71.42
-82.43
-96.47
-115.81
-142.86
-179.67
-221.46
-262.88
-296.19
-313.01
-307.17
-277.09
-226.55
-163.33
-96.54
-33.94
18.44
57.45
82.00
92.39
90.29
78.99
63.53
49.99
44.18
49.35
65.74
90.34
117.64
141.61
157.72
164.40
163.23
157.80
151.41
145.89
140.99
135.07
126.68
115.69
103.54
92.40
83.81
77.62
72.47
66.76
59.84
52.47
46.23
42.30
40.52
39.44
37.21
32.97
27.55
22.96
21.09
22.32
25.03
26.33
23.60
15.97
4.85
-6.74
-15.47
-19.36
-18.48
-14.85
-11.45
-10.88
-14.48
-21.99
-31.99
-42.66
-52.59
-61.26
-68.95
-76.26
-83.63
-91.11
-98.53
-105.92
-113.82
-123.14
-134.48
-147.43
-160.13
-169.78
-173.76
-170.92
-162.40
-151.34
-141.74
-136.92
-138.39
-145.52
-156.03
-166.78
-174.56
-176.54
-170.53
-155.19
-130.27
-97.01
-58.07
-17.13
22.06
56.70
85.69
109.66
130.37
149.62
168.33
186.06
201.21
211.76
216.15
213.82
205.32
191.84
174.67
154.70
132.43
108.34
83.36
59.12
37.71
20.99
9.72
2.98
-1.66
-7.37
-16.73
-30.70
-48.25
-67.00
-84.30
-98.35
-108.50
-114.64
-116.29
-111.80
-98.51
-73.75
-35.94
14.73
76.37
145.66
218.05
287.60
347.14
389.29
408.48
403.05
376.38
335.98
290.86
248.48
212.68
183.72
159.75
138.77
119.80
102.79
87.84
74.51
61.85
48.89
35.39
22.03
10.23
1.49
-3.28
-4.09
-1.76
2.55
7.85
13.68
20.10
27.40
35.68
44.54
53.06
59.78
63.16
61.81
54.98
42.80
26.16
6.51
-14.82
-36.97
-59.70
-83.04
-106.72
-129.73
-150.51
-167.30
-179.03
-185.76
-188.76
-189.95
-191.10
-193.13
-195.78
-197.81
-197.47
-193.11
-183.63
-168.68
-148.64
-124.53
-97.99
-71.14
-46.47
-26.24
-11.91
-3.43
0.77
3.33
6.77
12.50
20.26
28.31
34.35
36.58
34.42
28.78
21.59
15.07
10.95
9.99
11.94
15.87
20.63
25.27
29.21
32.08
33.55
33.17
30.56
25.57
18.57
10.37
1.99
-5.70
-12.27
-17.66
-22.03
-25.49
-27.95
-29.20
-29.13
-27.92
-26.03
-24.09
-22.60
-21.72
-21.30
-20.98
-20.43
-19.62
-18.85
-18.60
-19.27
-20.99
-23.44
-26.11
-28.52
-30.50
-32.40
-34.89
-38.62
-43.80
-49.96
-55.94
-60.27
-61.64
-59.30
-53.33
-44.46
-33.83
-22.66
-11.95
-2.32
6.01
13.04
18.89
23.53
26.82
28.59
28.82
27.84
26.40
25.34
25.34
26.58
28.55
30.26
30.53
28.29
22.94
14.61
4.35
-5.67
-12.35
-12.40
-3.36
15.26
41.34
70.44
96.92
115.56
122.99
118.47
103.70
81.96
56.91
31.55
7.59
-14.57
-35.40
-55.46
-74.79
-92.48
-106.84
-115.94
-118.27
-113.27
-101.56
-84.68
-64.79
-44.23
-25.33
-10.17
-0.43
2.99
0.29
-7.03
-16.32
-24.49
-28.88
-28.16
-22.59
-13.81
-3.95
5.30
13.16
19.80
25.82
31.59
36.98
41.48
44.50
45.85
45.84
45.13
44.39
44.05
44.17
44.50
44.61
44.06
42.48
39.70
35.75
30.90
25.60
20.40
15.86
12.41
10.33
9.68
10.39
12.13
14.47
16.78
18.45
19.01
18.31
16.57
14.29
12.00
10.05
8.41
6.73
4.56
1.63
-1.95
-5.73
-9.16
-11.81
-13.66
-15.01
-16.38
-18.20
-20.64
-23.59
-26.71
-29.64
-32.08
-33.88
-35.03
-35.62
-35.90
-36.19
-36.97
-38.70
-41.73
-46.02
-50.93
-55.13
-56.88
-54.60
-47.44
-35.75
-21.07
-5.63
8.40
19.62
27.68
33.10
36.75
39.32
41.10
42.01
41.89
40.75
38.93
36.94
35.22
34.05
33.41
33.02
32.61
32.06
31.46
31.04
31.07
31.62
32.53
33.45
33.98
33.79
32.79
31.11
29.02
26.78
24.54
22.28
19.80
16.90
13.42
9.39
5.10
1.00
-2.36
-4.61
-5.69
-5.94
-6.00
-6.53
-8.00
-10.50
-13.71
-17.16
-20.40
-23.20
-25.68
-28.18
-31.20
-35.19
-40.41
-46.76
-53.71
-60.28
-65.22
-67.29
-65.62
-59.99
-50.95
-39.71
-27.79
-16.62
-7.24
-0.08
4.99
8.48
11.03
13.25
15.53
18.08
20.91
23.86
26.66
29.02
30.73
31.72
32.10
32.11
32.02
32.04
32.18
32.31
32.21
31.61
30.37
28.50
26.17
23.72
21.52
19.80
18.55
17.50
16.22
14.36
11.76
8.58
5.16
1.85
-1.14
-3.80
-6.26
-8.57
-10.73
-12.63
-14.25
-15.70
-17.23
-19.08
-21.38
-24.07
-27.05
-30.25
-33.78
-37.90
-42.80
-48.41
-54.33
-59.74
-63.66
-65.18
-63.69
-58.98
-51.39
-41.65
-30.77
-19.85
-9.95
-1.82
4.15
8.00
10.15
11.32
12.26
13.65
15.88
19.01
22.88
27.15
31.42
35.38
38.81
41.60
43.73
45.18
45.87
45.65
44.33
41.84
38.28
34.03
29.61
25.53
22.06
19.16
16.49
13.62
10.21
6.16
1.63
-3.01
-7.27
-10.64
-12.77
-13.52
-13.04
-11.74
-10.10
-8.52
-7.26
-6.41
-6.12
-6.68
-8.42
-11.55
-16.01
-21.35
-26.92
-32.02
-36.10
-38.75
-39.64
-38.45
-35.01
-29.45
-22.33
-14.54
-7.05
-0.53
4.84
9.25
13.09
16.60
19.79
22.45
24.31
25.21
25.26
24.80
24.30
24.15
24.57
25.48
26.67
27.82
28.70
29.18
29.18
28.67
27.62
26.07
24.20
22.26
20.46
18.87
17.28
15.37
12.84
9.63
5.89
1.93
-2.00
-5.81
-9.56
-13.34
-17.11
-20.67
-23.79
-26.29
-28.23
-29.92
-31.86
-34.56
-38.38
-43.35
-49.13
-55.04
-60.14
-63.48
-64.25
-62.04
-56.88
-49.21
-39.83
-29.66
-19.64
-10.50
-2.64
3.94
9.50
14.50
19.23
23.74
27.88
31.46
34.41
36.91
39.23
41.55
43.75
45.45
46.14
45.49
43.48
40.42
36.72
32.73
28.59
24.34
19.98
15.63
11.56
8.03
5.19
2.91
0.87
-1.30
-3.80
-6.57
-9.35
-11.78
-13.69
-15.12
-16.33
-17.68
-19.53
-22.13
-25.59
-29.92
-34.99
-40.53
-46.03
-50.80
-54.01
-54.80
-52.62
-47.39
-39.60
-30.24
-20.52
-11.54
-4.02
1.86
6.28
9.62
12.30
14.55
16.50
18.22
19.75
21.15
22.54
24.04
25.73
27.57
29.37
30.76
31.40
31.17
30.30
29.31
28.81
29.14
30.18
31.30
31.67
30.63
27.91
23.73
18.69
13.43
8.45
3.96
-0.12
-4.01
-7.86
-11.69
-15.36
-18.73
-21.78
-24.65
-27.58
-30.63
-33.68
-36.38
-38.47
-39.91
-40.89
-41.63
-42.07
-41.79
-40.14
-36.67
-31.38
-24.82
-17.84
-11.14
-5.03
0.56
5.84
10.93
15.66
19.67
22.59
24.26
24.82
24.67
24.34
24.27
24.73
25.69
26.91
28.06
28.89
29.31
29.40
29.32
29.20
29.03
28.66
27.92
26.66
24.82
22.49
19.85
17.06
14.25
11.43
8.54
5.48
2.27
-1.00
-4.19
-7.20
-10.07
-12.99
-16.22
-19.89
-23.97
-28.24
-32.46
-36.52
-40.50
-44.70
-49.47
-55.04
-61.29
-67.73
-73.50
-77.64
-79.32
-78.18
-74.43
-68.80
-62.29
-55.83
-50.06
-45.21
-41.22
-37.87
-34.85
-31.93
-28.89
-25.67
-22.34
-19.14
-16.36
-14.21
-12.75
-11.80
-11.00
-9.79
-7.38
-2.69
5.53
18.26
35.73
56.85
79.26
99.80
115.47
124.31
125.90
121.27
112.24
100.86
88.93
77.81
68.55
61.82
57.84
56.21
55.88
55.48
53.69
49.85
44.14
37.46
31.02
25.78
22.06
19.54
17.47
14.99
11.47
6.59
0.32
-7.10
-15.32
-23.92
-32.45
-40.55
-47.89
-54.16
-58.98
-61.90
-62.45
-60.33
-55.56
-48.47
-39.67
-29.89
-19.80
-10.11
-1.51
5.38
10.20
12.95
14.15
14.59
15.06
16.04
17.57
19.30
20.65
21.06
20.21
18.33
16.35
15.81
18.32
24.84
34.97
46.85
57.75
65.18
67.89
66.25
61.81
56.39
51.17
46.39
41.57
36.02
29.39
21.78
13.67
5.76
-1.24
-6.67
-10.12
-11.63
-11.73
-11.41
-11.84
-13.97
-18.20
-24.26
-31.45
-38.91
-46.02
-52.54
-58.63
-64.60
-70.68
-76.75
-82.32
-86.59
-88.77
-88.33
-85.11
-79.46
-71.94
-63.19
-53.82
-44.27
-34.98
-26.36
-18.81
-12.63
-7.93
-4.59
-2.27
-0.57
0.91
2.49
4.43
6.91
9.98
13.54
17.37
21.14
24.49
27.04
28.40
28.22
26.29
22.67
17.89
12.85
8.71
6.41
6.39
8.40
11.64
15.17
18.24
20.41
21.60
21.80
21.05
19.38
16.92
13.95
10.82
7.84
5.05
2.27
-0.89
-4.83
-9.77
-15.75
-22.65
-30.24
-38.17
-45.98
-52.94
-58.15
-60.70
-59.89
-55.59
-48.25
-38.84
-28.59
-18.63
-9.73
-2.22
3.90
8.88
12.96
16.33
19.06
21.17
22.65
23.56
24.10
24.48
24.96
25.67
26.60
27.66
28.73
29.74
30.68
31.58
32.42
33.11
33.46
33.27
32.36
30.63
28.11
24.91
21.28
17.56
14.11
11.20
8.90
7.05
5.28
3.20
0.52
-2.75
-6.34
-9.67
-12.07
-13.02
-12.43
-10.86
-9.57
-10.18
-14.22
-22.47
-34.49
-48.62
-62.42
-73.51
-80.33
-82.55
-81.01
-77.24
-72.81
-68.67
-64.89
-60.72
-54.92
-46.33
-34.55
-20.31
-5.61
6.68
13.66
13.45
5.99
-6.72
-21.07
-32.84
-38.45
-36.02
-25.75
-9.89
7.96
23.78
34.24
37.58
34.09
26.09
17.14
10.99
10.27
15.77
26.11
38.34
48.90
54.83
54.66
48.84
39.39
29.15
20.75
15.73
14.16
14.69
15.15
13.28
7.59
-2.02
-13.97
-25.13
-31.66
-30.18
-19.15
0.29
24.40
48.01
66.39
76.78
79.26
76.27
71.32
67.49
66.36
67.76
70.26
72.08
71.88
69.19
64.37
58.33
52.17
46.90
43.31
42.03
43.38
47.25
53.01
59.63
65.87
70.69
73.48
73.97
72.05
67.50
59.89
48.73
33.76
15.14
-6.47
-29.95
-53.85
-76.48
-96.15
-111.38
-121.24
-125.58
-125.06
-120.82
-114.09
-105.71
-95.90
-84.39
-70.80
-55.04
-37.63
-19.71
-2.81
11.58
22.35
29.07
31.94
31.61
28.94
24.76
19.72
14.28
8.73
3.28
-1.94
-6.79
-11.12
-14.86
-18.07
-20.98
-24.05
-27.87
-32.96
-39.60
-47.60
-56.28
-64.52
-71.09
-74.91
-75.43
-72.67
-67.24
-60.10
-52.28
-44.69
-37.93
-32.34
-28.01
-24.88
-22.82
-21.69
-21.37
-21.70
-22.42
-23.01
-22.73
-20.63
-15.80
-7.68
3.67
17.37
31.78
44.79
54.34
58.96
58.30
53.25
45.72
38.01
32.07
28.92
28.48
29.80
31.50
32.36
31.67
29.29
25.50
20.76
15.49
9.99
4.49
-0.82
-5.77
-10.27
-14.42
-18.43
-22.58
-27.08
-31.99
-37.19
-42.50
-47.68
-52.48
-56.49
-59.18
-59.85
-57.94
-53.24
-46.02
-37.09
-27.48
-18.23
-10.08
-3.37
1.89
5.93
9.07
11.63
13.81
15.72
17.44
19.07
20.78
22.81
25.31
28.25
31.36
34.22
36.38
37.63
38.00
37.75
37.16
36.29
35.05
33.23
30.77
27.89
25.13
23.04
21.93
21.71
21.82
21.57
20.43
18.29
15.51
12.69
10.33
8.64
7.41
6.16
4.40
1.87
-1.38
-5.07
-8.83
-12.44
-15.85
-19.15
-22.46
-25.86
-29.43
-33.29
-37.64
-42.62
-48.14
-53.61
-58.05
-60.23
-59.18
-54.54
-46.79
-37.10
-26.95
-17.64
-9.91
-3.87
0.89
4.90
8.56
11.95
14.85
16.91
17.91
17.88
17.15
16.27
15.89
16.51
18.34
21.26
24.78
28.22
30.92
32.48
32.87
32.41
31.54
30.64
29.80
28.92
27.78
26.30
24.55
22.74
21.06
19.52
17.95
16.05
13.66
10.81
7.77
4.93
2.55
0.65
-0.99
-2.72
-4.91
-7.71
-11.06
-14.74
-18.50
-22.10
-25.43
-28.41
-30.99
-33.17
-35.03
-36.88
-39.24
-42.73
-47.79
-54.27
-61.25
-67.05
-69.65
-67.30
-59.25
-46.08
-29.73
-13.03
1.26
11.14
15.98
16.49
14.33
11.45
9.50
9.50
11.79
16.23
22.37
29.60
37.19
44.30
50.10
53.90
55.36
54.50
51.76
47.82
43.46
39.37
36.08
33.85
32.66
32.29
32.33
32.35
31.93
30.79
28.85
26.23
23.24
20.27
17.71
15.80
14.61
14.02
13.81
13.71
13.53
13.13
12.53
11.76
10.85
9.74
8.26
6.20
3.43
-0.02
-3.93
-7.92
-11.66
-15.00
-17.99
-20.89
-23.96
-27.42
-31.37
-35.86
-40.87
-46.30
-51.79
-56.68
-60.07
-60.92
-58.54
-52.81
-44.36
-34.45
-24.53
-15.76
-8.73
-3.38
0.77
4.23
7.27
9.90
12.05
13.73
15.18
16.72
18.55
20.56
22.43
23.78
24.51
24.84
25.14
25.72
26.64
27.68
28.51
28.89
28.78
28.24
27.35
26.12
24.51
22.50
20.18
17.71
15.28
13.00
10.90
8.96
7.13
5.37
3.70
2.07
0.42
-1.32
-3.23
-5.34
-7.61
-10.01
-12.53
-15.24
-18.25
-21.67
-25.50
-29.69
-34.17
-38.89
-43.83
-48.79
-53.30
-56.54
-57.56
-55.57
-50.30
-42.14
-32.04
-21.23
-10.91
-1.97
5.04
9.97
13.01
14.61
15.37
15.89
16.60
17.66
18.95
20.18
21.08
21.58
21.77
21.87
22.11
22.59
23.25
23.86
24.24
24.08
23.13
21.14
17.93
13.66
9.01
5.10
3.05
3.12
4.09
3.35
-2.14
-14.44
-33.50
-56.98
-81.03
-101.57
-115.42
-120.72
-116.84
-104.06
-83.48
-57.16
-28.19
-0.45
22.38
37.73
44.89
45.05
40.62
34.22
27.96
22.88
18.99
15.74
12.54
9.18
5.95
3.51
2.54
3.44
6.21
10.41
15.52
20.92
26.13
30.79
34.64
37.48
39.20
39.74
39.15
37.69
35.79
34.13
33.54
34.77
38.12
43.05
47.93
50.26
47.22
36.78
18.71
-4.85
-29.73
-50.87
-64.14
-67.72
-62.89
-53.40
-43.98
-38.55
-38.88
-44.10
-51.17
-55.97
-54.63
-44.72
-25.97
-0.52
27.63
53.58
72.89
82.77
82.72
74.54
61.62
47.84
36.48
29.48
27.11
28.20
30.65
32.11
30.88
26.46
19.75
12.72
7.53
5.64
7.08
10.45
13.39
13.63
9.82
2.11
-8.02
-18.25
-26.15
-29.76
-27.93
-20.59
-8.83
5.12
18.13
26.90
28.80
22.75
9.64
-7.89
-26.21
-41.67
-51.53
-54.53
-50.99
-42.65
-32.05
-21.93
-14.52
-11.06
-11.67
-15.55
-21.46
-28.17
-34.82
-40.78
-45.56
-48.49
-48.81
-45.87
-39.56
-30.49
-20.07
-10.11
-2.32
2.24
3.40
1.82
-1.34
-4.87
-7.83
-9.82
-10.98
-11.78
-12.91
-14.91
-18.05
-22.22
-27.08
-32.22
-37.30
-42.16
-46.72
-51.03
-55.29
-59.87
-65.28
-71.82
-79.14
-85.98
-90.19
-89.28
-81.24
-65.31
-42.32
-14.60
14.74
42.56
66.44
84.99
97.81
105.10
107.26
104.76
98.31
89.21
79.57
72.03
69.02
71.79
79.83
90.82
101.34
108.05
108.78
103.09
92.21
78.45
64.25
51.61
41.57
34.26
29.07
24.84
20.14
13.68
4.92
-5.36
-14.83
-20.15
-18.31
-8.12
8.78
28.26
45.14
55.30
57.05
51.47
41.44
30.11
19.82
11.61
5.53
1.11
-2.33
-5.53
-9.34
-14.56
-21.65
-30.40
-39.95
-48.82
-55.45
-58.60
-57.81
-53.56
-47.29
-41.01
-36.43
-34.12
-32.86
-29.96
-22.42
-8.45
11.28
33.69
54.32
69.26
76.54
76.57
71.46
63.64
54.85
45.84
36.83
28.22
20.88
15.95
14.23
15.60
18.93
22.43
24.29
23.36
19.47
13.34
6.17
-0.94
-7.31
-12.84
-17.79
-22.48
-26.96
-30.95
-33.90
-35.26
-34.78
-32.68
-29.60
-26.40
-23.82
-22.23
-21.66
-21.88
-22.68
-23.99
-25.76
-27.84
-29.82
-31.10
-31.07
-29.40
-26.17
-21.77
-16.68
-11.18
-5.35
0.84
7.31
13.71
19.55
24.27
27.55
29.31
29.80
29.39
28.60
28.01
28.15
29.36
31.43
33.43
33.75
30.53
22.34
8.95
-8.41
-27.26
-44.48
-57.17
-63.32
-62.11
-53.96
-40.31
-23.41
-6.02
9.00
19.23
23.16
20.54
12.50
1.23
-10.64
-20.67
-27.21
-29.78
-29.06
-26.62
-24.39
-23.99
-26.26
-31.08
-37.52
-44.25
-49.95
-53.70
-54.99
-53.69
-49.89
-43.88
-36.17
-27.53
-18.99
-11.48
-5.68
-1.65
1.06
3.30
5.90
9.44
13.98
19.16
24.27
28.53
31.34
32.41
31.88
30.25
28.17
26.28
24.96
24.31
24.15
24.21
24.15
23.76
22.91
21.56
19.81
17.88
16.03
14.45
13.20
12.09
10.82
9.09
6.80
4.12
1.46
-0.70
-1.97
-2.27
-1.84
-1.28
-1.17
-1.99
-3.85
-6.52
-9.57
-12.65
-15.66
-18.85
-22.64
-27.41
-33.30
-39.98
-46.69
-52.28
-55.46
-55.16
-50.85
-42.86
-32.34
-21.07
-10.82
-2.88
2.30
5.06
6.28
6.93
7.69
8.90
10.54
12.40
14.23
15.79
17.03
18.00
18.91
19.96
21.34
23.08
25.09
27.14
28.98
30.36
31.04
30.87
29.75
27.71
24.92
21.64
18.19
14.83
11.70
8.83
6.16
3.60
1.08
-1.45
-4.06
-6.80
-9.71
-12.76
-15.91
-19.08
-22.19
-25.20
-28.10
-30.90
-33.67
-36.54
-39.73
-43.44
-47.75
-52.42
-56.78
-59.84
-60.57
-58.27
-52.89
-45.04
-35.80
-26.33
-17.54
-9.92
-3.54
1.74
6.22
10.14
13.76
17.28
20.82
24.37
27.83
31.01
33.75
35.96
37.61
38.75
39.43
39.75
39.84
39.79
39.71
39.56
39.19
38.34
36.82
34.53
31.58
28.20
24.63
21.02
17.44
13.86
10.26
6.71
3.35
0.37
-2.14
-4.17
-5.91
-7.58
-9.37
-11.29
-13.19
-14.81
-15.96
-16.69
-17.28
-18.16
-19.80
-22.50
-26.42
-31.57
-37.81
-44.81
-51.85
-57.85
-61.53
-61.74
-57.92
-50.40
-40.30
-29.20
-18.59
-9.34
-1.69
4.71
10.34
15.56
20.44
24.81
28.45
31.14
32.78
33.34
32.99
32.01
30.88
30.05
29.80
30.08
30.54
30.67
30.08
28.75
26.96
25.13
23.65
22.74
22.44
22.74
23.63
24.98
26.58
28.03
28.83
28.56
27.02
24.31
20.74
16.73
12.59
8.48
4.38
0.25
-3.90
-7.94
-11.74
-15.18
-18.31
-21.25
-24.17
-27.13
-30.04
-32.77
-35.19
-37.36
-39.53
-42.05
-45.25
-49.27
-53.97
-58.90
-63.36
-66.48
-67.41
-65.54
-60.71
-53.32
-44.26
-34.61
-25.29
-16.87
-9.51
-3.12
2.39
7.06
10.83
13.75
15.99
17.90
19.83
22.01
24.46
26.97
29.22
30.94
31.96
32.36
32.33
32.16
32.05
32.05
32.05
31.86
31.32
30.43
29.36
28.30
27.37
26.52
25.61
24.46
22.98
21.22
19.29
17.34
15.45
13.63
11.80
9.81
7.52
4.84
1.85
-1.29
-4.30
-6.97
-9.25
-11.26
-13.25
-15.52
-18.25
-21.50
-25.15
-28.82
-31.89
-33.61
-33.34
-30.95
-27.08
-23.20
-21.16
-22.62
-28.36
-37.86
-49.41
-60.64
-69.27
-73.62
-73.05
-67.91
-59.22
-48.42
-36.93
-25.98
-16.42
-8.65
-2.64
2.04
6.10
10.30
15.30
21.35
28.26
35.47
42.22
47.84
51.87
54.23
55.16
55.14
54.77
54.48
54.50
54.73
54.87
54.45
53.12
50.71
47.30
43.18
38.75
34.44
30.56
27.25
24.44
21.91
19.35
16.51
13.31
9.84
6.25
2.65
-0.95
-4.62
-8.31
-11.84
-14.89
-17.18
-18.63
-19.48
-20.26
-21.47
-23.48
-26.27
-29.52
-32.82
-35.79
-38.33
-40.62
-43.02
-45.94
-49.65
-54.12
-58.96
-63.47
-66.72
-67.84
-66.18
-61.61
-54.47
-45.51
-35.69
-25.85
-16.67
-8.60
-1.90
3.21
6.64
8.43
8.86
8.47
7.94
7.88
8.71
10.53
13.16
16.27
19.50
22.60
25.47
28.06
30.36
32.24
33.41
33.50
32.19
29.48
25.78
22.01
19.35
18.95
21.60
27.47
36.04
46.23
56.51
65.24
70.89
72.38
69.23
61.72
50.90
38.34
25.87
15.16
7.38
2.91
1.23
1.08
0.78
-1.26
-6.08
-13.87
-23.95
-35.04
-45.58
-54.15
-59.81
-62.30
-62.09
-60.23
-58.15
-57.21
-58.34
-61.71
-66.75
-72.24
-76.73
-78.90
-77.81
-73.15
-65.19
-54.79
-43.15
-31.58
-21.13
-12.39
-5.40
0.16
4.74
8.75
12.45
15.98
19.38
22.68
25.77
28.50
30.68
32.27
33.38
34.34
35.49
37.09
39.12
41.38
43.53
45.27
46.38
46.75
46.38
45.29
43.59
41.39
38.77
35.82
32.67
29.49
26.51
23.89
21.64
19.61
17.46
14.90
11.81
8.30
4.68
1.26
-1.81
-4.57
-7.26
-10.10
-13.18
-16.46
-19.76
-22.88
-25.77
-28.54
-31.49
-35.02
-39.45
-44.91
-51.16
-57.60
-63.31
-67.25
-68.51
-66.58
-61.46
-53.63
-43.98
-33.47
-23.02
-13.29
-4.72
2.51
8.43
13.22
17.14
20.44
23.34
25.92
28.19
30.13
31.78
33.20
34.48
35.65
36.68
37.53
38.20
38.72
39.14
39.50
39.72
39.62
39.04
37.84
36.03
33.74
31.22
28.65
26.23
23.97
21.82
19.63
17.28
14.73
12.07
9.45
7.01
4.77
2.64
0.48
-1.79
-4.19
-6.65
-9.13
-11.73
-14.64
-18.04
-22.05
-26.51
-31.08
-35.43
-39.40
-43.08
-46.83
-51.07
-56.08
-61.83
-67.86
-73.39
-77.48
-79.17
-77.82
-73.28
-65.92
-56.59
-46.32
-36.08
-26.54
-18.00
-10.49
-3.89
1.91
7.01
11.53
15.67
19.73
23.97
28.55
33.39
38.21
42.62
46.30
49.08
51.07
52.46
53.50
54.32
54.91
55.16
54.96
54.25
53.05
51.42
49.41
47.04
44.34
41.46
38.65
36.22
34.40
33.21
32.45
31.77
30.76
29.13
26.77
23.77
20.31
16.63
12.93
9.32
5.82
2.36
-1.22
-5.12
-9.49
-14.32
-19.46
-24.62
-29.47
-33.78
-37.42
-40.47
-43.19
-45.97
-49.33
-53.70
-59.21
-65.47
-71.46
-75.67
-76.55
-73.05
-65.09
-53.64
-40.43
-27.32
-15.67
-6.10
1.54
7.75
13.02
17.52
21.16
23.76
25.32
26.09
26.56
27.20
28.32
29.96
31.97
34.09
36.12
37.96
39.52
40.76
41.59
41.91
41.72
41.10
40.25
39.39
38.65
37.98
37.17
35.93
33.97
31.14
27.53
23.39
19.03
14.76
10.78
7.29
4.44
2.36
1.06
0.23
-0.71
-2.49
-5.72
-10.59
-16.79
-23.55
-30.05
-35.66
-40.15
-43.70
-46.68
-49.58
-52.80
-56.63
-61.10
-65.90
-70.26
-73.06
-73.11
-69.56
-62.30
-52.04
-40.06
-27.89
-16.69
-7.07
0.97
7.78
13.78
19.23
24.16
28.37
31.65
33.92
35.32
36.19
36.94
37.87
39.06
40.34
41.46
42.23
42.65
42.80
42.82
42.72
42.38
41.59
40.11
37.83
34.79
31.17
27.29
23.51
20.15
17.38
15.15
13.28
11.50
9.62
7.62
5.60
3.71
1.95
0.18
-1.86
-4.43
-7.68
-11.52
-15.66
-19.75
-23.49
-26.79
-29.72
-32.53
-35.52
-38.98
-43.19
-48.31
-54.29
-60.65
-66.42
-70.23
-70.71
-67.02
-59.26
-48.49
-36.40
-24.65
-14.35
-5.86
1.08
6.94
12.11
16.77
20.88
24.41
27.37
29.80
31.79
33.37
34.51
35.21
35.52
35.55
35.45
35.41
35.52
35.80
36.10
36.18
35.79
34.74
33.06
30.94
28.73
26.77
25.25
24.11
23.12
22.00
20.53
18.71
16.63
14.45
12.23
9.96
7.58
5.05
2.51
0.17
-1.71
-3.01
-3.81
-4.43
-5.23
-6.54
-8.55
-11.27
-14.55
-18.06
-21.36
-23.96
-25.50
-25.98
-25.85
-26.02
-27.43
-30.63
-35.35
-40.44
-44.27
-45.35
-42.91
-37.17
-29.23
-20.57
-12.60
-6.21
-1.69
1.15
2.82
3.85
4.69
5.63
6.84
8.39
10.31
12.58
15.07
17.55
19.63
20.96
21.31
20.70
19.36
17.73
16.30
15.54
15.81
17.31
20.01
23.63
27.68
31.55
34.66
36.61
37.26
36.76
35.56
34.28
33.56
33.85
35.12
36.75
37.63
36.51
32.60
26.02
17.96
10.30
4.96
3.12
4.63
8.05
11.03
11.12
6.49
-3.52
-18.30
-36.27
-55.31
-73.30
-88.50
-99.71
-106.26
-107.96
-105.06
-98.18
-88.30
-76.57
-64.16
-51.93
-40.27
-29.08
-17.88
-6.16
6.37
19.39
31.98
42.66
49.57
50.89
45.26
32.32
13.09
-9.90
-33.01
-52.31
-64.61
-68.32
-63.73
-52.62
-37.41
-20.26
-2.69
14.24
29.59
42.12
50.45
53.43
50.73
43.07
32.09
19.79
7.94
-2.37
-10.75
-17.32
-22.29
-25.72
-27.38
-26.93
-24.13
-18.94
-11.64
-2.74
6.97
16.20
23.07
25.40
21.44
10.92
-4.31
-20.42
-32.60
-36.49
-29.51
-11.42
15.96
49.53
85.64
120.75
151.67
175.70
190.92
196.32
191.82
178.12
156.46
128.35
95.48
59.47
21.75
-16.49
-54.23
-90.35
-123.40
-151.59
-173.12
-186.77
-192.48
-191.49
-185.86
-177.72
-168.36
-157.88
-145.46
-130.40
-113.29
-96.94
-86.13
-85.83
-98.90
-123.82
-154.35
-181.18
-195.23
-190.69
-166.47
-125.88
-74.81
-20.12
31.41
73.55
101.43
112.78
109.22
96.39
82.28
74.15
75.55
85.30
98.68
110.35
116.85
117.77
114.81
110.14
104.97
99.29
92.67
85.21
77.97
72.70
70.96
73.23
78.59
85.11
90.61
93.58
93.70
91.68
88.69
85.69
82.88
79.79
75.67
70.12
63.49
56.84
51.50
48.45
47.88
49.08
50.83
51.91
51.58
49.79
47.08
44.17
41.63
39.58
37.73
35.53
32.49
28.42
23.50
18.15
12.87
8.01
3.68
-0.12
-3.45
-6.28
-8.56
-10.23
-11.35
-12.18
-13.10
-14.49
-16.56
-19.35
-22.68
-26.33
-30.11
-33.90
-37.70
-41.52
-45.39
-49.32
-53.31
-57.38
-61.55
-65.81
-70.08
-74.17
-77.81
-80.75
-82.86
-84.18
-84.88
-85.04
-84.56
-83.00
-79.77
-74.30
-66.40
-56.32
-44.77
-32.64
-20.72
-9.56
0.51
9.33
16.82
22.94
27.82
31.73
35.02
37.98
40.67
42.93
44.47
45.07
44.75
43.74
42.36
40.88
39.42
37.91
36.25
34.36
32.24
29.92
27.48
24.92
22.28
19.65
17.20
15.12
13.57
12.51
11.72
10.88
9.72
8.22
6.61
5.20
4.31
4.00
4.13
4.39
4.44
4.02
3.01
1.44
-0.62
-3.02
-5.64
-8.33
-10.99
-13.60
-16.13
-18.60
-21.02
-23.39
-25.64
-27.72
-29.55
-31.08
-32.32
-33.43
-34.66
-36.32
-38.61
-41.42
-44.30
-46.50
-47.24
-45.98
-42.63
-37.58
-31.55
-25.35
-19.57
-14.53
-10.29
-6.76
-3.83
-1.42
0.58
2.40
4.32
6.62
9.41
12.49
15.41
17.68
18.98
19.33
19.06
18.63
18.36
18.32
18.37
18.33
18.07
17.65
17.15
16.71
16.40
16.24
16.27
16.45
16.74
17.00
17.05
16.75
16.01
14.86
13.34
11.50
9.38
7.03
4.60
2.30
0.32
-1.23
-2.49
-3.70
-5.13
-6.89
-8.86
-10.75
-12.24
-13.18
-13.68
-14.09
-14.79
-16.02
-17.78
-19.86
-21.97
-23.93
-25.73
-27.45
-29.26
-31.29
-33.67
-36.52
-39.93
-43.83
-47.90
-51.55
-54.03
-54.69
-53.27
-49.95
-45.32
-40.12
-35.05
-30.55
-26.81
-23.75
-21.16
-18.72
-16.14
-13.24
-9.99
-6.49
-2.95
0.47
3.69
6.71
9.58
12.34
14.93
17.27
19.25
20.78
21.82
22.32
22.32
21.90
21.19
20.36
19.53
18.74
17.99
17.21
16.47
15.86
15.55
15.59
15.92
16.33
16.57
16.51
16.13
15.55
14.85
14.08
13.13
11.87
10.22
8.21
5.96
3.59
1.20
-1.20
-3.59
-5.91
-8.06
-9.96
-11.62
-13.15
-14.67
-16.24
-17.79
-19.17
-20.28
-21.14
-21.89
-22.75
-23.94
-25.64
-27.94
-30.85
-34.18
-37.57
-40.39
-41.93
-41.60
-39.16
-34.87
-29.32
-23.29
-17.39
-12.03
-7.37
-3.47
-0.36
1.94
3.48
4.42
5.09
5.83
6.91
8.42
10.27
12.23
14.08
15.68
17.02
18.17
19.21
20.18
21.07
21.81
22.34
22.59
22.54
22.16
21.43
20.41
19.17
17.89
16.69
15.68
14.84
14.11
13.37
12.53
11.59
10.58
9.54
8.50
7.45
6.32
4.99
3.40
1.48
-0.73
-3.10
-5.45
-7.59
-9.38
-10.81
-11.96
-13.05
-14.30
-15.94
-18.04
-20.53
-23.18
-25.73
-28.01
-30.12
-32.37
-35.20
-38.95
-43.65
-48.92
-54.06
-58.19
-60.48
-60.33
-57.49
-52.13
-44.83
-36.43
-27.85
-19.87
-12.98
-7.36
-2.89
0.70
3.69
6.29
8.59
10.69
12.64
14.51
16.37
18.26
20.17
22.02
23.72
25.23
26.52
27.63
28.64
29.61
30.52
31.33
31.90
32.09
31.84
31.15
30.14
29.01
27.94
27.03
26.26
25.52
24.66
23.60
22.34
20.95
19.55
18.27
17.10
15.98
14.75
13.20
11.17
8.59
5.56
2.33
-0.82
-3.63
-6.06
-8.22
-10.37
-12.76
-15.57
-18.79
-22.29
-25.88
-29.32
-32.50
-35.39
-38.09
-40.87
-44.07
-48.06
-53.04
-58.84
-64.83
-69.93
-72.90
-72.71
-68.87
-61.61
-51.81
-40.71
-29.58
-19.44
-10.90
-4.16
0.96
4.87
8.10
11.14
14.33
17.75
21.32
24.81
28.06
31.02
33.67
36.07
38.22
40.11
41.75
43.23
44.60
45.87
46.93
47.55
47.54
46.80
45.44
43.71
41.91
40.22
38.70
37.29
35.87
34.42
32.99
31.69
30.59
29.68
28.84
27.89
26.70
25.16
23.28
21.11
18.71
16.16
13.50
10.79
8.08
5.37
2.64
-0.16
-3.10
-6.21
-9.51
-13.06
-16.93
-21.22
-25.93
-30.89
-35.82
-40.38
-44.39
-47.97
-51.51
-55.56
-60.62
-66.81
-73.82
-80.73
-86.30
-89.12
-88.08
-82.64
-73.08
-60.42
-46.16
-31.91
-18.97
-8.13
0.42
6.94
11.98
16.10
19.79
23.34
26.84
30.25
33.49
36.46
39.10
41.42
43.49
45.38
47.17
48.87
50.44
51.82
52.91
53.63
53.91
53.70
52.93
51.61
49.82
47.69
45.42
43.11
40.78
38.32
35.62
32.65
29.58
26.67
24.19
22.29
20.87
19.65
18.31
16.64
14.53
12.06
9.35
6.55
3.72
0.89
-1.94
-4.76
-7.55
-10.28
-12.99
-15.76
-18.72
-22.05
-25.86
-30.15
-34.78
-39.47
-43.94
-47.98
-51.65
-55.32
-59.57
-64.94
-71.63
-79.17
-86.37
-91.57
-93.11
-89.89
-81.76
-69.58
-54.95
-39.72
-25.54
-13.51
-4.08
2.88
7.89
11.74
15.27
19.21
23.99
29.67
35.90
42.16
47.88
52.69
56.47
59.26
61.19
62.32
62.70
62.30
61.17
59.39
57.16
54.64
51.93
49.06
45.98
42.69
39.21
35.64
32.05
28.49
24.97
21.55
18.34
15.60
13.62
12.66
12.77
13.70
15.02
16.23
16.96
17.04
16.46
15.34
13.83
12.05
10.13
8.21
6.42
4.79
3.26
1.61
-0.43
-3.05
-6.25
-9.83
-13.47
-16.85
-19.82
-22.46
-25.09
-28.24
-32.47
-38.29
-46.01
-55.46
-65.87
-75.80
-83.34
-86.56
-84.11
-75.74
-62.40
-46.05
-29.08
-13.54
-0.78
8.79
15.49
20.06
23.33
25.99
28.52
31.18
34.05
37.04
40.00
42.78
45.27
47.50
49.63
51.94
54.68
58.01
61.79
65.62
68.96
71.30
72.41
72.36
71.46
70.07
68.44
66.73
65.04
63.49
62.23
61.36
60.85
60.54
60.20
59.72
59.18
58.78
58.76
59.22
60.09
61.21
62.43
63.68
64.99
66.34
67.60
68.41
68.26
66.60
63.04
57.39
49.60
39.59
27.06
11.60
-7.02
-28.55
-52.04
-76.02
-98.88
-119.32
-136.57
-150.26
-160.39
-167.05
-170.41
-170.63
-167.77
-161.67
-151.77
-137.24
-117.54
-93.10
-65.95
-39.71
-18.66
-6.45
-4.70
-12.28
-25.63
-39.89
-50.46
-54.05
-49.18
-35.93
-15.32
11.15
41.67
73.92
105.16
132.60
154.04
168.54
176.60
179.85
180.31
179.74
179.24
179.46
180.98
184.66
191.38
201.49
214.16
227.17
237.48
242.31
240.12
231.24
217.34
200.56
182.44
163.48
143.32
121.38
97.43
71.80
45.10
17.77
-10.13
-38.84
-68.49
-98.70
-128.54
-156.78
-182.42
-205.15
-225.47
-244.28
-262.38
-279.89
-295.87
-308.37
-314.71
-312.10
-298.38
-272.83
-236.72
-193.30
-147.11
-102.94
-64.50
-33.65
-10.28
7.22
21.00
33.01
44.44
55.56
65.65
73.13
76.06
72.95
63.63
49.76
34.44
21.09
12.11
8.02
7.47
8.18
8.13
6.39
3.11
-0.98
-5.26
-9.62
-14.27
-19.34
-24.52
-29.06
-32.10
-33.12
-32.24
-30.27
-28.40
-27.79
-29.06
-32.12
-36.25
-40.44
-43.85
-46.14
-47.51
-48.52
-49.80
-51.86
-54.88
-58.85
-63.53
-68.48
-72.97
-76.05
-76.70
-74.09
-67.93
-58.73
-47.80
-36.90
-27.72
-21.42
-18.30
-17.80
-18.79
-20.02
-20.55
-19.98
-18.41
-16.24
-13.89
-11.65
-9.65
-7.94
-6.63
-5.79
-5.41
-5.22
-4.71
-3.38
-1.00
2.21
5.60
8.41
10.06
10.46
10.06
9.51
9.48
10.38
12.15
14.40
16.42
17.49
16.98
14.77
11.19
7.04
3.19
0.19
-2.06
-4.24
-7.21
-11.50
-16.93
-22.54
-27.16
-29.91
-30.76
-30.60
-30.99
-33.52
-39.31
-48.63
-60.82
-74.36
-87.11
-96.66
-100.79
-98.09
-88.33
-72.64
-53.12
-32.06
-11.13
9.08
29.05
49.63
70.96
91.65
108.54
117.55
115.40
101.28
77.76
50.14
24.57
5.81
-4.28
-6.76
-4.40
0.04
4.98
10.10
15.53
21.09
25.91
28.90
29.46
27.99
25.85
24.69
25.89
29.82
35.74
42.08
46.98
49.09
47.95
44.07
38.57
32.58
26.80
21.33
15.87
10.12
4.08
-1.89
-7.28
-11.67
-14.91
-17.20
-18.93
-20.58
-22.50
-24.85
-27.57
-30.49
-33.41
-36.24
-39.17
-42.53
-46.66
-51.66
-57.18
-62.39
-66.22
-67.63
-65.99
-61.28
-54.07
-45.28
-35.95
-26.94
-18.80
-11.79
-5.87
-0.84
3.60
7.71
11.62
15.30
18.64
21.48
23.79
25.59
26.94
27.91
28.45
28.52
28.17
27.58
27.04
26.79
26.92
27.31
27.70
27.83
27.58
26.98
26.19
25.38
24.66
24.07
23.53
22.88
21.92
20.39
18.17
15.28
11.97
8.63
5.65
3.23
1.23
-0.78
-3.33
-6.77
-11.03
-15.70
-20.16
-23.90
-26.71
-28.77
-30.55
-32.60
-35.44
-39.43
-44.72
-51.07
-57.82
-63.85
-67.81
-68.48
-65.28
-58.48
-49.17
-38.87
-29.02
-20.66
-14.15
-9.28
-5.47
-2.03
1.64
5.85
10.59
15.59
20.41
24.64
28.02
30.51
32.20
33.30
34.02
34.57
35.12
35.79
36.63
37.64
38.71
39.64
40.14
39.84
38.48
36.00
32.70
29.22
26.22
24.19
23.18
22.77
22.30
21.19
19.22
16.57
13.63
10.85
8.42
6.30
4.28
2.06
-0.58
-3.75
-7.47
-11.65
-16.10
-20.57
-24.81
-28.62
-31.99
-35.13
-38.49
-42.58
-47.73
-53.84
-60.24
-65.81
-69.29
-69.68
-66.58
-60.35
-51.98
-42.70
-33.62
-25.50
-18.61
-12.80
-7.74
-3.03
1.66
6.48
11.39
16.13
20.39
23.89
26.54
28.49
30.02
31.51
33.21
35.22
37.49
39.85
42.08
44.00
45.44
46.23
46.30
45.66
44.42
42.78
41.01
39.27
37.69
36.20
34.64
32.81
30.60
28.03
25.28
22.64
20.30
18.34
16.61
14.86
12.80
10.24
7.14
3.63
0.03
-3.34
-6.27
-8.81
-11.22
-13.87
-17.05
-20.75
-24.73
-28.69
-32.45
-36.11
-39.93
-44.24
-49.25
-54.99
-61.19
-67.34
-72.65
-76.10
-76.73
-73.94
-67.86
-59.34
-49.71
-40.27
-31.87
-24.73
-18.54
-12.84
-7.22
-1.52
4.24
9.83
15.03
19.64
23.57
26.91
29.87
32.71
35.57
38.46
41.26
43.83
46.09
47.98
49.44
50.33
50.48
49.78
48.32
46.36
44.29
42.44
41.01
39.97
39.15
38.29
37.18
35.73
33.95
31.94
29.79
27.57
25.35
23.19
21.19
19.40
17.82
16.30
14.60
12.53
10.00
7.14
4.21
1.46
-1.05
-3.47
-6.10
-9.21
-12.87
-16.94
-21.16
-25.30
-29.23
-32.96
-36.56
-40.14
-43.88
-48.04
-52.94
-58.76
-65.35
-72.02
-77.64
-80.89
-80.77
-77.00
-70.03
-60.97
-51.09
-41.45
-32.71
-25.07
-18.51
-12.79
-7.73
-3.08
1.38
5.92
10.72
15.82
21.02
25.97
30.29
33.74
36.37
38.52
40.62
43.02
45.76
48.54
50.88
52.34
52.71
52.11
50.87
49.37
47.82
46.25
44.51
42.50
40.29
38.15
36.41
35.28
34.69
34.27
33.62
32.41
30.55
28.15
25.41
22.49
19.51
16.50
13.56
10.73
8.06
5.54
3.10
0.63
-1.88
-4.49
-7.23
-10.17
-13.35
-16.82
-20.49
-24.21
-27.84
-31.27
-34.47
-37.50
-40.51
-43.79
-47.74
-52.78
-59.07
-66.37
-73.85
-80.29
-84.38
-85.07
-81.93
-75.22
-65.84
-55.04
-44.14
-34.17
-25.66
-18.58
-12.47
-6.75
-0.98
4.92
10.74
16.15
20.95
25.17
29.00
32.64
36.12
39.28
41.89
43.89
45.41
46.79
48.34
50.20
52.18
53.85
54.74
54.54
53.27
51.23
48.87
46.58
44.52
42.65
40.81
38.84
36.74
34.62
32.67
31.03
29.71
28.56
27.44
26.17
24.63
22.78
20.55
17.87
14.69
11.04
7.06
2.97
-0.95
-4.49
-7.55
-10.21
-12.64
-15.12
-17.90
-21.17
-24.99
-29.24
-33.67
-37.99
-42.02
-45.81
-49.72
-54.29
-60.03
-67.10
-75.06
-82.88
-89.09
-92.28
-91.52
-86.70
-78.58
-68.45
-57.74
-47.60
-38.73
-31.33
-25.25
-20.12
-15.52
-11.03
-6.46
-1.96
1.93
4.49
5.14
3.80
1.10
-1.73
-3.27
-2.38
1.42
7.89
16.24
25.45
34.66
43.20
50.69
56.90
61.74
65.19
67.41
68.67
69.34
69.79
70.24
70.68
70.95
70.79
70.04
68.66
66.76
64.52
62.08
59.47
56.65
53.58
50.27
46.76
43.13
39.40
35.56
31.57
27.37
22.97
18.42
13.81
9.25
4.82
0.52
-3.76
-8.15
-12.90
-18.10
-23.76
-29.69
-35.58
-41.19
-46.48
-51.73
-57.43
-64.09
-71.80
-80.09
-87.78
-93.34
-95.35
-92.97
-86.32
-76.38
-64.69
-52.87
-42.22
-33.48
-26.86
-22.11
-18.64
-15.70
-12.57
-8.80
-4.40
0.25
4.53
7.90
10.13
11.38
12.06
12.59
13.34
14.44
15.86
17.31
18.26
17.90
15.32
9.86
1.54
-8.78
-19.46
-28.65
-34.90
-37.57
-37.05
-34.44
-30.91
-27.06
-22.55
-16.14
-6.29
7.99
26.40
47.15
67.31
83.85
94.54
98.66
96.93
91.06
82.93
73.95
64.89
56.05
47.52
39.46
32.20
26.17
21.75
19.23
18.75
20.15
22.87
25.65
26.44
22.75
12.41
-5.34
-28.94
-54.38
-76.13
-88.78
-88.91
-76.15
-53.19
-24.69
4.33
29.79
49.20
61.70
67.60
68.06
64.73
59.54
54.40
50.85
49.73
51.01
54.02
57.72
61.14
63.75
65.59
67.20
69.29
72.38
76.42
80.57
83.22
82.41
76.58
65.25
49.48
31.75
15.03
1.70
-7.38
-13.02
-17.05
-21.21
-26.29
-31.90
-36.92
-40.39
-42.11
-42.75
-43.35
-44.65
-46.65
-48.73
-50.02
-49.84
-48.17
-45.47
-42.56
-40.20
-38.87
-38.63
-39.18
-40.04
-40.77
-41.16
-41.20
-41.08
-41.13
-41.68
-43.06
-45.43
-48.80
-52.84
-56.96
-60.28
-61.79
-60.56
-56.05
-48.30
-38.08
-26.75
-15.86
-6.83
-0.60
2.53
2.88
1.21
-1.49
-4.19
-6.02
-6.34
-4.75
-1.14
4.34
11.34
19.30
27.59
35.51
42.38
47.64
50.90
52.01
51.06
48.38
44.45
39.82
35.00
30.37
26.09
22.02
17.90
13.53
8.90
4.31
0.33
-2.49
-3.83
-3.91
-3.55
-3.83
-5.73
-9.51
-14.67
-20.03
-24.44
-27.27
-28.73
-29.67
-30.99
-33.11
-35.78
-38.19
-39.59
-39.70
-38.91
-38.16
-38.40
-40.24
-43.68
-48.08
-52.39
-55.41
-56.14
-54.04
-49.14
-41.97
-33.37
-24.24
-15.35
-7.25
-0.14
5.94
11.09
15.34
18.52
20.26
20.17
18.07
14.27
9.52
4.87
1.24
-0.80
-1.23
-0.36
1.38
3.64
6.27
9.16
12.13
14.85
16.93
18.08
18.22
17.50
16.27
14.83
13.43
12.08
10.62
8.88
6.78
4.37
1.82
-0.74
-3.31
-6.01
-9.06
-12.59
-16.61
-21.01
-25.60
-30.21
-34.78
-39.35
-44.09
-49.26
-55.18
-62.02
-69.70
-77.64
-84.69
-89.38
-90.30
-86.62
-78.42
-66.73
-53.18
-39.53
-27.17
-16.86
-8.76
-2.52
2.43
6.66
10.63
14.52
18.31
21.83
24.90
27.35
29.12
30.23
30.75
30.91
30.98
31.30
32.15
33.54
35.14
36.34
36.51
35.26
32.61
29.02
25.11
21.42
18.21
15.40
12.66
9.51
5.59
0.85
-4.22
-8.48
-10.35
-8.25
-1.30
10.30
25.11
40.89
55.18
65.99
72.18
73.47
70.28
63.38
53.56
41.52
27.79
12.75
-3.12
-19.05
-33.79
-45.67
-53.03
-54.74
-50.73
-42.05
-30.55
-18.25
-6.68
3.34
11.72
18.70
24.63
29.80
34.49
39.08
43.96
49.38
55.15
60.66
64.97
67.21
66.89
64.13
59.64
54.44
49.56
45.71
43.13
41.54
40.35
38.92
36.81
33.93
30.56
27.10
23.92
21.14
18.74
16.56
14.51
12.55
10.71
8.96
7.23
5.42
3.38
1.05
-1.60
-4.47
-7.48
-10.54
-13.66
-16.97
-20.70
-25.05
-30.08
-35.57
-41.12
-46.26
-50.66
-54.27
-57.29
-60.12
-63.22
-67.01
-71.72
-77.24
-82.95
-87.66
-89.86
-88.13
-81.72
-70.94
-57.11
-42.17
-28.09
-16.23
-7.14
-0.56
4.23
8.16
12.05
16.42
21.46
27.05
32.80
38.23
42.81
45.97
47.16
45.85
41.86
35.50
27.74
20.07
14.03
10.66
10.05
11.38
13.36
14.77
15.07
14.48
13.68
13.33
13.69
14.52
15.28
15.53
15.22
14.65
14.39
14.89
16.21
17.96
19.44
19.92
18.95
16.52
13.00
8.96
4.93
1.27
-1.98
-5.01
-8.20
-11.97
-16.62
-22.33
-29.04
-36.54
-44.48
-52.54
-60.44
-68.08
-75.55
-83.03
-90.67
-98.33
-105.38
-110.68
-112.79
-110.42
-102.99
-90.95
-75.71
-59.22
-43.40
-29.53
-18.13
-8.98
-1.44
5.22
11.67
18.38
25.55
33.16
40.90
48.29
54.79
59.92
63.40
65.12
65.21
63.98
61.92
59.57
57.47
55.91
54.83
53.77
52.03
48.97
44.29
38.21
31.36
24.54
18.41
13.32
9.30
6.25
4.15
3.15
3.59
5.77
9.75
15.24
21.51
27.68
32.90
36.60
38.56
38.97
38.30
37.11
35.85
34.67
33.38
31.60
28.98
25.45
21.33
17.17
13.46
10.32
7.25
3.38
-2.21
-10.04
-19.93
-31.28
-43.34
-55.70
-68.28
-80.94
-92.99
-102.92
-108.68
-108.51
-101.81
-89.60
-74.35
-59.06
-46.27
-37.16
-31.44
-27.81
-24.62
-20.60
-15.16
-8.47
-1.11
6.16
12.80
18.54
23.49
27.87
31.89
35.61
38.93
41.78
44.23
46.57
49.13
52.02
55.02
57.60
59.20
59.52
58.75
57.43
56.11
55.03
54.00
52.54
50.20
46.86
42.76
38.44
34.39
30.96
28.22
26.07
24.24
22.48
20.48
18.05
15.02
11.38
7.28
3.04
-0.97
-4.49
-7.47
-10.17
-13.11
-16.80
-21.56
-27.28
-33.49
-39.55
-45.00
-49.68
-53.87
-58.14
-63.12
-69.29
-76.81
-85.35
-93.98
-101.29
-105.67
-105.77
-101.06
-91.97
-79.82
-66.35
-53.19
-41.37
-31.23
-22.55
-14.78
-7.35
0.13
7.82
15.67
23.41
30.65
37.01
42.21
46.17
48.99
50.90
52.19
53.20
54.22
55.44
56.90
58.40
59.56
60.00
59.42
57.82
55.43
52.65
49.90
47.41
45.28
43.39
41.48
39.27
36.55
33.23
29.36
25.14
20.78
16.49
12.38
8.49
4.76
1.08
-2.68
-6.66
-10.93
-15.47
-20.14
-24.74
-29.07
-33.05
-36.64
-39.88
-42.78
-45.28
-47.22
-48.40
-48.57
-47.42
-44.71
-40.36
-34.70
-28.52
-23.00
-19.34
-18.41
-20.36
-24.51
-29.55
-33.89
-36.08
-35.23
-31.14
-24.27
-15.60
-6.33
2.36
9.66
15.20
19.13
21.98
24.38
26.73
29.04
30.94
31.89
31.60
30.31
28.79
28.04
28.79
31.15
34.62
38.32
41.48
43.71
45.09
45.90
46.36
46.56
46.39
45.79
44.88
43.89
43.08
42.55
42.17
41.60
40.49
38.66
36.13
33.17
30.16
27.45
25.19
23.34
21.73
20.20
18.71
17.30
16.02
14.76
13.17
10.87
7.63
3.58
-0.84
-5.01
-8.57
-11.59
-14.58
-18.20
-22.94
-28.81
-35.35
-41.92
-47.92
-53.06
-57.40
-61.26
-65.06
-69.25
-74.25
-80.29
-87.32
-94.79
-101.61
-106.34
-107.56
-104.31
-96.47
-84.85
-70.87
-56.19
-42.31
-30.21
-20.24
-12.21
-5.50
0.68
6.99
13.76
20.87
27.83
34.03
39.09
42.99
46.09
48.89
51.75
54.72
57.60
60.08
61.97
63.21
63.84
63.89
63.29
61.96
59.87
57.19
54.17
51.20
48.54
46.38
44.72
43.45
42.34
41.15
39.66
37.75
35.49
33.11
30.86
28.91
27.24
25.69
24.01
21.99
19.50
16.50
12.97
8.99
4.72
0.41
-3.72
-7.61
-11.37
-15.29
-19.66
-24.63
-30.11
-35.81
-41.43
-46.73
-51.64
-56.30
-60.98
-66.12
-72.21
-79.64
-88.48
-98.19
-107.61
-115.05
-118.77
-117.54
-111.12
-100.35
-86.93
-72.81
-59.63
-48.23
-38.63
-30.28
-22.51
-14.78
-6.88
1.13
9.07
16.72
23.87
30.31
35.87
40.40
43.91
46.53
48.47
50.01
51.38
52.71
53.98
55.01
55.49
55.05
53.46
50.75
47.20
43.23
39.28
35.61
32.26
29.14
26.12
23.05
19.88
16.60
13.34
10.43
8.26
7.25
7.57
9.10
11.41
13.97
16.28
18.00
18.95
19.13
18.72
18.09
17.73
18.07
19.19
20.70
21.82
21.72
19.94
16.55
12.07
7.27
2.77
-1.01
-3.94
-6.18
-8.20
-10.77
-14.92
-21.55
-30.92
-42.32
-54.00
-63.71
-69.46
-70.28
-66.55
-59.78
-51.97
-44.88
-39.46
-35.74
-33.09
-30.57
-27.43
-23.24
-18.02
-12.05
-5.74
0.53
6.42
11.73
16.30
20.09
23.17
25.74
28.10
30.54
33.26
36.32
39.61
42.83
45.57
47.37
47.88
46.97
44.83
41.90
38.79
36.02
33.85
32.20
30.73
29.12
27.18
25.06
23.03
21.33
20.02
18.84
17.44
15.50
12.92
9.86
6.63
3.53
0.66
-2.11
-5.00
-8.18
-11.64
-15.19
-18.64
-21.90
-25.05
-28.33
-31.91
-35.90
-40.21
-44.70
-49.28
-53.90
-58.58
-63.32
-68.11
-72.89
-77.75
-82.81
-88.18
-93.81
-99.22
-103.56
-105.77
-104.90
-100.43
-92.48
-81.72
-69.17
-55.93
-42.91
-30.69
-19.56
-9.49
-0.27
8.42
16.88
25.32
33.73
41.97
49.80
57.01
63.50
69.31
74.47
79.02
82.89
86.05
88.50
90.32
91.62
92.35
92.26
90.90
87.80
82.71
75.74
67.45
58.60
50.01
42.28
35.73
30.36
25.97
22.25
18.87
15.55
12.13
8.56
4.95
1.48
-1.64
-4.26
-6.36
-8.07
-9.64
-11.35
-13.52
-16.39
-20.09
-24.60
-29.69
-35.04
-40.27
-45.19
-49.85
-54.61
-59.99
-66.59
-74.86
-85.01
-96.92
-110.10
-123.77
-137.00
-148.90
-158.72
-165.88
-169.84
-169.93
-165.40
-155.64
-140.66
-121.35
-99.48
-77.21
-56.43
-38.10
-22.20
-7.99
5.41
18.58
31.54
43.82
54.76
63.73
70.47
75.16
78.40
81.13
84.33
88.78
94.89
102.62
111.59
121.25
130.97
140.09
148.01
154.18
158.27
160.16
159.95
157.82
153.94
148.46
141.54
133.48
124.64
115.42
106.19
97.18
88.49
80.22
72.49
65.51
59.48
54.49
50.47
47.08
43.87
40.41
36.47
32.14
27.70
23.52
19.77
16.37
13.00
9.27
4.79
-0.77
-7.81
-16.76
-28.00
-41.70
-57.69
-75.45
-94.25
-113.31
-131.97
-149.74
-166.23
-180.98
-193.30
-202.22
-206.54
-205.16
-197.50
-183.94
-165.88
-145.51
-125.13
-106.50
-90.37
-76.51
-64.13
-52.37
-40.68
-28.87
-17.00
-5.20
6.31
17.26
27.36
36.43
44.61
52.50
60.98
70.93
82.78
96.26
110.32
123.45
134.07
140.99
143.60
142.00
136.84
129.11
119.92
110.24
100.85
92.19
84.48
77.71
71.76
66.38
61.26
55.96
50.09
43.43
36.01
28.17
20.41
13.22
6.78
0.95
-4.71
-10.76
-17.57
-25.25
-33.50
-41.83
-49.68
-56.67
-62.64
-67.71
-72.19
-76.50
-81.08
-86.18
-91.73
-97.13
-101.42
-103.40
-102.11
-97.13
-88.75
-77.84
-65.56
-53.07
-41.21
-30.51
-21.19
-13.24
-6.51
-0.70
4.44
9.15
13.54
17.64
21.47
25.10
28.64
32.14
35.57
38.80
41.68
44.15
46.26
48.12
49.77
51.17
52.08
52.27
51.58
50.10
48.12
45.97
43.90
41.85
39.45
36.20
31.80
26.34
20.40
14.84
10.32
6.96
4.20
1.02
-3.56
-10.00
-18.14
-27.26
-36.43
-44.92
-52.36
-58.78
-64.50
-69.95
-75.60
-81.79
-88.63
-95.79
-102.49
-107.49
-109.43
-107.15
-100.14
-88.78
-74.33
-58.57
-43.31
-29.84
-18.66
-9.45
-1.45
6.11
13.69
21.40
29.08
36.49
43.44
49.75
55.25
59.71
62.95
65.01
66.10
66.55
66.74
66.94
67.23
67.62
67.96
68.04
67.64
66.58
64.79
62.35
59.42
56.17
52.73
49.06
45.09
40.76
36.07
31.09
25.95
20.75
15.66
10.84
6.42
2.41
-1.28
-4.89
-8.68
-12.86
-17.46
-22.37
-27.29
-31.88
-35.90
-39.28
-42.36
-45.84
-50.81
-58.49
-69.87
-85.04
-102.86
-120.90
-135.93
-144.92
-145.97
-138.99
-125.69
-108.98
-92.03
-77.35
-66.30
-58.81
-53.62
-48.55
-41.10
-29.21
-12.00
9.65
33.21
55.19
72.34
82.63
85.81
83.17
76.92
69.38
62.43
57.31
54.57
54.08
55.07
56.27
56.34
54.35
50.18
44.61
38.93
34.39
31.70
30.80
31.08
31.64
31.68
30.65
28.35
24.90
20.64
16.07
11.66
7.75
4.33
1.06
-2.63
-7.20
-12.82
-19.27
-25.96
-32.23
-37.66
-42.25
-46.40
-50.78
-56.12
-62.93
-71.21
-80.37
-89.20
-96.06
-99.33
-97.85
-91.39
-80.77
-67.66
-53.95
-41.15
-29.93
-20.11
-10.93
-1.54
8.60
19.60
31.13
42.70
53.84
64.12
73.29
81.17
87.67
92.85
96.91
100.17
102.93
105.38
107.48
108.98
109.53
108.85
106.83
103.47
98.95
93.45
87.25
80.71
74.33
68.62
64.05
60.81
58.80
57.63
56.85
56.02
54.83
53.03
50.38
46.62
41.56
35.16
27.64
19.42
10.94
2.53
-5.79
-14.29
-23.37
-33.22
-43.71
-54.33
-64.41
-73.51
-81.64
-89.41
-97.74
-107.48
-119.02
-132.01
-145.47
-157.96
-167.89
-173.85
-174.83
-170.49
-161.23
-148.21
-133.05
-117.42
-102.58
-89.05
-76.56
-64.36
-51.54
-37.59
-22.49
-6.71
9.04
24.00
37.59
49.43
59.26
67.01
72.72
76.60
79.05
80.53
81.50
82.19
82.60
82.46
81.44
79.22
75.77
71.28
66.18
61.01
56.20
52.01
48.42
45.24
42.25
39.28
36.30
33.30
30.32
27.31
24.26
21.15
18.01
14.87
11.70
8.38
4.73
0.67
-3.72
-8.18
-12.29
-15.71
-18.39
-20.58
-22.85
-25.84
-29.95
-35.15
-40.95
-46.61
-51.51
-55.46
-58.77
-62.22
-66.64
-72.65
-80.27
-88.90
-97.32
-104.00
-107.41
-106.41
-100.58
-90.41
-77.15
-62.52
-48.11
-35.02
-23.65
-13.77
-4.85
3.54
11.56
19.13
26.05
32.18
37.54
42.23
46.36
49.85
52.46
53.79
53.35
50.68
45.56
38.15
29.20
19.91
11.67
5.62
2.16
0.85
0.54
-0.02
-1.72
-4.74
-8.60
-12.53
-15.91
-18.49
-20.36
-21.69
-22.50
-22.64
-21.80
-19.92
-17.13
-13.77
-10.16
-6.42
-2.46
1.89
6.65
11.49
15.91
19.31
21.34
21.97
21.42
20.03
18.08
15.68
12.87
9.64
6.01
2.07
-2.07
-6.34
-10.73
-15.40
-20.58
-26.45
-32.96
-39.71
-45.86
-50.29
-51.91
-49.92
-44.15
-35.14
-23.93
-11.85
-0.09
10.54
19.76
27.70
34.83
41.62
48.39
55.21
61.92
68.16
73.60
77.95
81.11
83.13
84.18
84.48
84.28
83.79
83.16
82.51
81.79
80.85
79.40
77.15
73.85
69.42
64.00
57.86
51.42
45.06
39.12
33.73
28.89
24.42
20.12
15.76
11.19
6.39
1.42
-3.52
-8.18
-12.33
-15.86
-18.75
-21.23
-23.60
-26.17
-29.21
-32.79
-36.79
-40.98
-45.08
-48.88
-52.29
-55.43
-58.55
-61.99
-66.14
-71.32
-77.65
-84.93
-92.49
-99.18
-103.61
-104.42
-100.73
-92.53
-80.75
-66.97
-52.99
-40.30
-29.65
-21.01
-13.80
-7.24
-0.69
6.19
13.36
20.53
27.31
33.30
38.21
41.94
44.54
46.23
47.33
48.18
49.00
49.86
50.61
50.99
50.77
49.85
48.26
46.21
43.86
41.33
38.62
35.73
32.73
29.77
27.08
24.74
22.70
20.63
18.18
15.08
11.25
6.85
2.15
-2.59
-7.20
-11.69
-16.17
-20.80
-25.77
-31.16
-36.86
-42.66
-48.22
-53.28
-57.80
-62.00
-66.34
-71.41
-77.66
-85.16
-93.53
-101.85
-108.83
-113.03
-113.26
-108.83
-99.86
-87.20
-72.26
-56.59
-41.52
-27.88
-15.96
-5.54
3.89
12.85
21.71
30.50
38.95
46.69
53.39
58.91
63.27
66.48
68.46
69.01
68.02
65.69
62.60
59.61
57.43
56.37
56.13
56.05
55.50
54.16
52.21
50.17
48.64
47.97
48.12
48.64
48.85
48.21
46.48
43.84
40.80
37.89
35.37
33.09
30.61
27.40
23.17
17.81
11.37
3.87
-4.63
-13.90
-23.34
-32.12
-39.46
-44.95
-48.81
-51.74
-54.55
-57.77
-61.47
-65.40
-69.35
-73.47
-78.23
-84.18
-91.47
-99.53
-107.02
-112.16
-113.23
-109.25
-100.25
-87.35
-72.36
-57.23
-43.43
-31.70
-22.05
-13.98
-6.76
0.28
7.57
15.26
23.17
30.91
37.99
44.00
48.74
52.24
54.75
56.57
57.96
59.12
60.15
61.20
62.38
63.74
65.14
66.23
66.55
65.78
63.87
61.16
58.30
56.01
54.72
54.41
54.59
54.56
53.67
51.70
48.85
45.64
42.59
39.91
37.40
34.55
30.77
25.70
19.30
11.87
3.84
-4.38
-12.53
-20.43
-28.03
-35.42
-42.85
-50.76
-59.71
-70.09
-81.80
-94.06
-105.57
-114.85
-120.80
-123.15
-122.46
-119.70
-115.65
-110.47
-103.63
-94.35
-82.17
-67.47
-51.43
-35.67
-21.56
-9.91
-0.79
6.18
11.48
15.54
18.69
21.33
24.02
27.31
31.53
36.51
41.58
45.71
48.02
48.15
46.45
43.98
41.95
41.25
42.12
44.12
46.35
47.95
48.24
46.90
43.96
39.63
34.28
28.38
22.45
16.86
11.90
7.71
4.54
2.89
3.60
7.65
15.79
28.00
43.26
59.63
74.70
86.25
92.85
94.18
91.05
84.97
77.64
70.33
63.51
56.81
49.29
39.99
28.38
14.71
-0.04
-14.57
-27.66
-38.60
-47.33
-54.36
-60.46
-66.51
-73.30
-81.39
-90.91
-101.41
-111.76
-120.30
-125.24
-125.25
-119.84
-109.64
-96.10
-81.14
-66.61
-53.78
-43.19
-34.60
-27.28
-20.36
-13.17
-5.44
2.66
10.73
18.35
25.24
31.36
36.75
41.51
45.68
49.32
52.48
55.24
57.66
59.72
61.29
62.21
62.32
61.54
59.95
57.74
55.17
52.51
49.97
47.60
45.38
43.13
40.70
37.98
35.04
31.97
28.91
25.87
22.78
19.50
15.97
12.26
8.62
5.23
2.10
-1.06
-4.73
-9.31
-14.90
-21.13
-27.34
-32.92
-37.59
-41.55
-45.33
-49.59
-54.79
-61.11
-68.48
-76.56
-84.75
-92.16
-97.57
-99.69
-97.51
-90.70
-79.82
-66.28
-51.89
-38.33
-26.71
-17.31
-9.72
-3.22
2.91
9.07
15.37
21.70
27.95
34.02
39.80
45.10
49.57
52.89
54.92
55.80
55.94
55.87
55.98
56.40
56.98
57.39
57.31
56.55
55.05
52.91
50.32
47.54
44.82
42.36
40.23
38.37
36.62
34.80
32.82
30.69
28.48
26.32
24.28
22.30
20.18
17.62
14.34
10.23
5.46
0.45
-4.32
-8.51
-12.14
-15.57
-19.29
-23.72
-28.95
-34.70
-40.52
-45.93
-50.74
-55.03
-59.17
-63.67
-69.04
-75.59
-83.24
-91.34
-98.68
-103.73
-105.06
-101.85
-94.20
-83.08
-70.07
-56.78
-44.45
-33.70
-24.65
-16.98
-10.27
-4.09
1.89
7.88
13.90
19.86
25.57
30.83
35.45
39.32
42.34
44.52
45.96
46.91
47.68
48.58
49.72
50.91
51.84
52.16
51.77
50.87
49.84
49.02
48.53
48.25
47.90
47.30
46.42
45.36
44.22
43.03
41.72
40.24
38.65
37.12
35.77
34.55
33.20
31.39
28.95
26.00
22.95
20.24
18.09
16.36
14.67
12.62
9.97
6.81
3.47
0.35
-2.27
-4.41
-6.36
-8.69
-12.08
-17.11
-24.05
-32.83
-42.97
-53.83
-64.64
-74.52
-82.47
-87.31
-87.94
-83.66
-74.63
-61.92
-47.29
-32.55
-19.00
-7.21
2.74
10.83
16.69
19.66
19.24
15.59
9.72
3.22
-2.38
-6.19
-8.15
-8.68
-8.18
-6.74
-4.08
-0.02
5.22
10.94
16.22
20.32
22.97
24.25
24.34
23.21
20.60
16.25
10.13
2.59
-5.69
-13.85
-21.05
-26.51
-29.56
-29.78
-27.16
-22.21
-15.96
-9.58
-3.98
0.46
3.87
6.55
8.54
9.48
8.78
6.08
1.58
-3.87
-9.22
-13.63
-16.84
-19.23
-21.54
-24.56
-28.81
-34.47
-41.38
-49.09
-57.01
-64.48
-70.99
-76.22
-80.13
-82.83
-84.34
-84.30
-81.96
-76.30
-66.40
-51.84
-32.91
-10.73
12.85
35.61
55.50
71.33
83.22
92.65
101.90
113.01
126.84
142.43
157.36
168.58
173.49
170.88
161.25
146.60
129.77
113.60
100.29
90.93
85.47
82.91
81.81
80.58
77.81
72.40
63.60
51.04
34.97
16.35
-3.08
-21.16
-35.79
-45.56
-50.15
-50.39
-47.95
-44.77
-42.43
-41.73
-42.49
-43.82
-44.56
-43.82
-41.29
-37.20
-32.15
-26.81
-21.79
-17.59
-14.65
-13.37
-14.05
-16.74
-21.11
-26.48
-31.88
-36.28
-38.81
-38.88
-36.32
-31.43
-24.89
-17.72
-11.00
-5.61
-2.00
-0.03
0.93
1.68
2.84
4.56
6.54
8.14
8.92
8.90
8.66
9.07
10.82
14.04
18.21
22.37
25.64
27.52
28.02
27.47
26.21
24.40
22.05
19.21
16.06
13.00
10.43
8.62
7.58
7.07
6.73
6.20
5.29
3.94
2.22
0.25
-1.97
-4.54
-7.75
-11.95
-17.39
-23.94
-31.09
-38.00
-43.73
-47.56
-49.14
-48.64
-46.67
-44.26
-42.61
-42.82
-45.53
-50.52
-56.64
-62.11
-65.09
-64.37
-59.82
-52.39
-43.62
-35.07
-27.76
-22.00
-17.51
-13.75
-10.20
-6.48
-2.40
2.06
6.79
11.54
15.99
19.83
22.82
24.86
26.08
26.69
27.02
27.45
28.25
29.55
31.20
32.77
33.69
33.40
31.66
28.62
24.83
21.00
17.70
15.22
13.43
12.05
10.74
9.31
7.78
6.24
4.66
2.92
0.68
-2.39
-6.53
-11.84
-18.15
-25.14
-32.37
-39.41
-45.96
-51.93
-57.50
-63.07
-69.12
-76.00
-83.66
-91.55
-98.53
-103.13
-103.95
-100.24
-92.07
-80.51
-67.23
-53.99
-42.17
-32.41
-24.66
-18.39
-12.92
-7.65
-2.14
3.79
10.15
16.83
23.75
30.79
37.83
44.59
50.56
55.03
57.31
57.05
54.54
50.65
46.52
43.10
40.83
39.53
38.66
37.62
35.85
32.82
27.92
20.65
10.85
-0.85
-12.96
-23.44
-30.34
-32.50
-30.01
-24.04
-16.27
-8.29
-1.06
5.13
10.37
14.77
18.24
20.51
21.36
20.86
19.43
17.67
16.00
14.30
11.80
7.24
-0.56
-12.14
-26.99
-43.50
-59.35
-72.22
-80.48
-83.66
-82.54
-78.62
-73.56
-68.46
-63.77
-59.49
-55.59
-52.48
-50.85
-51.43
-54.42
-59.23
-64.64
-69.15
-71.55
-71.11
-67.61
-61.09
-51.77
-39.96
-26.15
-11.01
4.63
20.05
34.64
47.95
59.53
68.82
75.18
78.20
78.07
75.77
73.04
71.91
73.97
79.79
88.65
98.68
107.56
113.30
114.88
112.38
106.78
99.33
91.06
82.51
73.79
64.84
55.68
46.48
37.38
28.42
19.46
10.24
0.63
-9.33
-19.31
-28.90
-37.75
-45.75
-52.95
-59.40
-65.00
-69.24
-71.35
-70.55
-66.43
-59.26
-49.96
-39.96
-30.63
-22.92
-17.06
-12.65
-8.99
-5.42
-1.57
2.54
6.75
10.83
14.71
18.44
22.14
25.86
29.53
32.86
35.51
37.20
37.80
37.46
36.45
35.01
33.24
31.04
28.28
24.99
21.46
18.16
15.52
13.78
12.86
12.48
12.30
12.02
11.40
10.25
8.36
5.63
2.12
-1.96
-6.27
-10.49
-14.49
-18.36
-22.31
-26.54
-31.08
-35.82
-40.52
-44.87
-48.62
-51.67
-54.09
-56.17
-58.29
-60.78
-63.68
-66.56
-68.60
-68.82
-66.46
-61.35
-54.01
-45.54
-37.17
-29.88
-24.14
-19.80
-16.34
-13.16
-9.76
-5.88
-1.47
3.34
8.35
13.34
18.12
22.53
26.41
29.68
32.26
34.18
35.53
36.50
37.29
38.02
38.72
39.27
39.47
39.17
38.35
37.18
35.94
34.90
34.16
33.66
33.19
32.53
31.54
30.21
28.62
26.87
24.99
22.96
20.78
18.48
16.17
13.96
11.90
9.78
7.27
3.98
-0.33
-5.59
-11.41
-17.28
-22.80
-27.83
-32.54
-37.25
-42.29
-47.85
-54.01
-60.73
-67.86
-74.97
-81.27
-85.66
-86.99
-84.52
-78.28
-69.16
-58.57
-47.99
-38.48
-30.37
-23.41
-16.95
-10.41
-3.45
3.92
11.40
18.61
25.20
30.99
35.98
40.28
44.02
47.23
49.92
52.11
53.89
55.45
56.94
58.41
59.73
60.67
60.98
60.55
59.49
58.08
56.64
55.41
54.32
53.09
51.32
48.68
45.13
40.93
36.53
32.33
28.56
25.14
21.89
18.61
15.28
12.06
9.10
6.57
4.41
2.50
0.62
-1.41
-3.73
-6.47
-9.72
-13.53
-17.89
-22.60
-27.35
-31.74
-35.53
-38.71
-41.70
-45.17
-49.87
-56.23
-64.12
-72.76
-80.85
-86.91
-89.69
-88.54
-83.60
-75.69
-66.07
-56.04
-46.51
-37.87
-30.02
-22.61
-15.27
-7.83
-0.35
6.93
13.73
19.81
25.09
29.68
33.81
37.77
41.70
45.58
49.22
52.46
55.19
57.48
59.50
61.36
62.91
63.83
63.78
62.57
60.31
57.43
54.46
51.89
49.92
48.51
47.40
46.26
44.82
42.99
40.89
38.74
36.70
34.80
32.87
30.68
28.05
24.95
21.47
17.80
14.10
10.41
6.70
2.93
-0.92
-4.77
-8.62
-12.46
-16.37
-20.48
-24.80
-29.29
-33.75
-38.02
-42.06
-46.03
-50.33
-55.45
-61.77
-69.27
-77.39
-85.07
-90.96
-93.81
-92.83
-87.93
-79.70
-69.25
-57.90
-46.79
-36.72
-27.94
-20.27
-13.25
-6.42
0.56
7.72
14.86
21.64
27.75
32.99
37.37
41.01
44.09
46.80
49.32
51.80
54.28
56.66
58.69
60.03
60.42
59.80
58.33
56.34
54.20
52.16
50.35
48.73
47.27
45.92
44.65
43.43
42.15
40.70
38.95
36.87
34.51
31.98
29.44
26.93
24.45
21.89
19.14
16.10
12.77
9.22
5.55
1.87
-1.75
-5.21
-8.46
-11.49
-14.38
-17.27
-20.33
-23.70
-27.37
-31.25
-35.19
-39.10
-42.99
-46.95
-51.13
-55.72
-60.91
-66.87
-73.59
-80.68
-87.29
-92.16
-93.97
-91.82
-85.55
-75.89
-64.21
-52.01
-40.52
-30.38
-21.67
-14.07
-7.15
-0.55
5.90
12.22
18.33
24.13
29.54
34.47
38.79
42.36
45.11
47.02
48.27
49.14
49.97
50.94
52.04
53.06
53.71
53.74
53.09
51.82
50.10
48.01
45.66
43.11
40.49
38.02
35.91
34.27
33.07
32.13
31.17
29.99
28.47
26.62
24.49
22.11
19.45
16.51
13.32
9.99
6.66
3.46
0.39
-2.62
-5.72
-9.06
-12.74
-16.72
-20.92
-25.24
-29.58
-33.85
-37.96
-41.84
-45.43
-48.76
-52.00
-55.48
-59.64
-64.92
-71.49
-79.05
-86.74
-93.21
-96.99
-96.95
-92.66
-84.58
-73.82
-61.83
-49.91
-38.94
-29.30
-21.00
-13.71
-7.04
-0.61
5.81
12.23
18.47
24.22
29.27
33.49
36.96
39.83
42.29
44.49
46.54
48.51
50.42
52.23
53.78
54.87
55.34
55.11
54.18
52.61
50.52
48.01
45.22
42.35
39.62
37.19
35.08
33.15
31.18
29.05
26.76
24.50
22.51
20.99
19.92
19.06
17.98
16.28
13.68
10.20
6.11
1.82
-2.32
-6.10
-9.59
-13.04
-16.74
-20.87
-25.41
-30.14
-34.78
-39.07
-42.97
-46.60
-50.29
-54.41
-59.31
-65.24
-72.17
-79.76
-87.19
-93.21
-96.42
-95.65
-90.42
-81.20
-69.28
-56.38
-44.07
-33.30
-24.30
-16.70
-9.89
-3.35
3.22
9.85
16.40
22.57
28.09
32.73
36.40
39.24
41.53
43.58
45.63
47.79
49.93
51.89
53.49
54.56
55.00
54.75
53.81
52.24
50.23
48.00
45.82
43.86
42.21
40.80
39.46
37.99
36.24
34.14
31.78
29.35
27.08
25.13
23.45
21.83
19.96
17.54
14.46
10.77
6.69
2.55
-1.39
-4.95
-8.09
-10.97
-13.85
-17.05
-20.81
-25.17
-29.99
-34.95
-39.69
-43.96
-47.73
-51.26
-55.06
-59.77
-65.94
-73.68
-82.41
-90.81
-97.08
-99.50
-97.05
-89.79
-78.83
-65.90
-52.76
-40.70
-30.33
-21.66
-14.39
-8.11
-2.41
3.02
8.43
13.93
19.51
25.00
30.18
34.86
38.89
42.29
45.18
47.74
50.12
52.44
54.66
56.62
58.07
58.82
58.73
57.81
56.19
54.07
51.62
49.01
46.39
43.97
41.91
40.30
39.04
37.87
36.47
34.64
32.38
29.90
27.38
24.88
22.26
19.25
15.67
11.60
7.38
3.43
0.03
-2.83
-5.50
-8.44
-12.02
-16.41
-21.48
-26.98
-32.57
-37.99
-43.09
-47.79
-52.15
-56.40
-60.97
-66.46
-73.34
-81.57
-90.40
-98.32
-103.51
-104.41
-100.26
-91.31
-78.77
-64.33
-49.74
-36.41
-25.20
-16.28
-9.34
-3.62
1.75
7.42
13.67
20.33
26.94
33.01
38.26
42.62
46.18
49.09
51.43
53.27
54.71
55.92
57.07
58.27
59.45
60.37
60.66
59.99
58.22
55.48
52.16
48.75
45.66
43.08
40.94
39.03
37.09
34.96
32.57
29.98
27.30
24.66
22.14
19.74
17.40
14.96
12.27
9.24
5.90
2.42
-1.00
-4.18
-7.16
-10.13
-13.41
-17.27
-21.83
-26.94
-32.31
-37.53
-42.26
-46.33
-49.86
-53.24
-57.13
-62.24
-69.08
-77.69
-87.39
-96.82
-104.20
-107.83
-106.51
-99.99
-89.05
-75.21
-60.40
-46.35
-34.22
-24.42
-16.67
-10.24
-4.31
1.76
8.21
14.90
21.42
27.34
32.38
36.55
40.09
43.36
46.64
50.06
53.61
57.19
60.68
63.91
66.63
68.52
69.17
68.37
66.14
62.83
59.05
55.41
52.34
50.03
48.35
46.97
45.54
43.76
41.49
38.78
35.82
32.86
30.09
27.52
25.03
22.44
19.55
16.24
12.50
8.41
4.10
-0.29
-4.65
-8.92
-13.17
-17.52
-22.12
-27.02
-32.18
-37.44
-42.59
-47.47
-52.06
-56.51
-61.13
-66.41
-72.81
-80.54
-89.33
-98.21
-105.63
-109.77
-109.20
-103.39
-92.95
-79.42
-64.78
-50.78
-38.46
-28.10
-19.36
-11.60
-4.27
2.96
10.14
17.14
23.73
29.80
35.35
40.46
45.23
49.67
53.66
57.08
59.85
62.04
63.85
65.48
66.93
68.03
68.50
68.06
66.66
64.41
61.61
58.65
55.79
53.25
51.01
48.94
46.86
44.56
41.94
39.04
35.99
32.98
30.13
27.44
24.74
21.82
18.41
14.39
9.79
4.83
-0.17
-4.87
-9.12
-12.96
-16.70
-20.67
-25.12
-30.06
-35.28
-40.45
-45.33
-49.89
-54.36
-59.13
-64.71
-71.49
-79.61
-88.78
-98.19
-106.47
-111.96
-113.14
-109.13
-100.04
-87.01
-71.91
-56.74
-43.01
-31.40
-21.77
-13.41
-5.51
2.48
10.67
18.76
26.29
32.88
38.42
43.08
47.15
50.90
54.41
57.64
60.48
62.82
64.64
65.95
66.67
66.73
65.98
64.38
62.07
59.32
56.54
54.06
52.08
50.51
49.00
47.10
44.47
41.03
37.02
32.95
29.34
26.49
24.46
22.98
21.67
20.10
17.92
14.89
10.92
6.12
0.83
-4.54
-9.58
-14.10
-18.24
-22.36
-26.87
-32.02
-37.74
-43.70
-49.44
-54.65
-59.30
-63.74
-68.58
-74.53
-82.05
-91.01
-100.49
-108.89
-114.32
-115.16
-110.67
-101.16
-87.91
-72.74
-57.40
-43.21
-30.80
-20.20
-11.03
-2.79
4.94
12.36
19.43
25.99
31.87
37.00
41.49
45.55
49.38
53.08
56.63
59.93
62.83
65.25
67.14
68.44
69.10
69.04
68.21
66.57
64.21
61.32
58.16
55.06
52.28
49.87
47.74
45.62
43.25
40.49
37.40
34.15
30.94
27.83
24.73
21.43
17.72
13.54
8.97
4.27
-0.32
-4.59
-8.54
-12.33
-16.24
-20.62
-25.66
-31.38
-37.52
-43.66
-49.37
-54.42
-58.95
-63.46
-68.70
-75.32
-83.59
-93.16
-102.91
-111.18
-116.16
-116.38
-111.20
-100.99
-87.06
-71.31
-55.62
-41.42
-29.33
-19.25
-10.61
-2.70
4.99
12.72
20.43
27.88
34.83
41.06
46.41
50.82
54.30
56.91
58.83
60.26
61.45
62.61
63.82
65.03
66.07
66.66
66.55
65.55
63.70
61.23
58.49
55.79
53.31
51.01
48.71
46.17
43.30
40.11
36.74
33.35
30.08
27.07
24.37
21.96
19.67
17.22
14.22
10.38
5.69
0.39
-5.00
-10.07
-14.58
-18.69
-22.79
-27.27
-32.30
-37.76
-43.31
-48.63
-53.64
-58.58
-63.92
-70.22
-77.82
-86.66
-96.10
-104.98
-111.75
-114.85
-113.16
-106.38
-95.17
-81.01
-65.73
-50.96
-37.72
-26.28
-16.37
-7.44
0.99
9.19
17.19
24.82
31.88
38.18
43.62
48.15
51.78
54.60
56.73
58.41
59.86
61.38
63.12
65.05
66.91
68.33
68.90
68.39
66.80
64.39
61.51
58.52
55.64
52.98
50.53
48.20
45.87
43.41
40.76
37.90
34.93
31.97
29.08
26.21
23.18
19.77
15.79
11.24
6.38
1.60
-2.74
-6.47
-9.73
-13.01
-16.87
-21.79
-27.87
-34.84
-42.07
-48.91
-54.93
-60.12
-64.90
-69.96
-76.02
-83.53
-92.47
-102.17
-111.37
-118.44
-121.72
-120.02
-113.03
-101.51
-87.06
-71.70
-57.25
-44.79
-34.59
-26.22
-18.90
-11.94
-4.93
2.19
9.14
15.58
21.15
25.68
29.11
31.51
33.04
33.91
34.35
34.58
34.77
34.89
34.76
34.04
32.37
29.57
25.70
21.11
16.27
11.62
7.46
3.88
0.90
-1.48
-3.21
-4.23
-4.61
-4.53
-4.36
-4.46
-5.07
-6.27
-7.98
-10.07
-12.51
-15.28
-18.23
-20.97
-22.85
-23.31
-22.20
-20.04
-17.90
-16.89
-17.73
-20.38
-24.20
-28.47
-32.83
-37.48
-42.99
-49.85
-58.08
-67.05
-75.56
-82.17
-85.57
-84.87
-79.81
-70.83
-58.93
-45.45
-31.83
-19.35
-8.97
-1.07
4.63
9.08
13.72
19.90
28.43
39.19
51.15
62.98
73.60
82.66
90.64
98.45
107.04
116.98
128.32
140.66
153.24
165.03
174.86
181.55
184.20
182.40
176.24
166.35
153.65
139.25
124.19
109.41
95.55
82.96
71.69
61.56
52.20
43.04
33.33
22.33
9.62
-4.61
-19.46
-33.53
-45.38
-54.15
-59.78
-63.07
-65.31
-67.68
-71.01
-75.50
-80.86
-86.51
-91.72
-95.87
-98.59
-99.84
-99.91
-99.15
-97.68
-95.19
-91.02
-84.41
-75.02
-63.13
-49.77
-36.30
-24.01
-13.70
-5.50
0.91
6.05
10.29
13.69
16.12
17.53
18.06
18.20
18.60
19.81
22.10
25.34
29.16
33.14
36.91
40.23
42.91
44.80
45.81
45.88
45.07
43.51
41.29
38.48
35.03
30.94
26.23
21.00
15.37
9.45
3.25
-3.22
-9.94
-16.74
-23.42
-29.71
-35.40
-40.36
-44.54
-48.04
-51.10
-54.08
-57.46
-61.60
-66.57
-71.93
-76.68
-79.48
-79.02
-74.42
-65.55
-53.07
-38.30
-22.82
-8.18
4.44
14.41
21.63
26.49
29.64
31.76
33.41
34.84
36.03
36.82
37.06
36.76
36.03
35.11
34.15
33.24
32.38
31.56
30.81
30.23
29.89
29.80
29.77
29.55
28.84
27.52
25.73
23.79
22.16
21.16
20.87
21.11
21.49
21.68
21.60
21.51
21.96
23.47
26.25
30.03
34.09
37.51
39.39
39.09
36.30
31.10
24.05
16.16
8.77
3.22
0.36
0.23
1.99
4.30
5.87
6.01
4.81
3.01
1.51
0.98
1.57
2.93
4.43
5.40
5.33
3.98
1.33
-2.44
-7.10
-12.32
-17.65
-22.58
-26.55
-29.10
-30.00
-29.34
-27.48
-24.95
-22.20
-19.48
-16.89
-14.30
-11.59
-8.59
-5.26
-1.64
2.05
5.42
7.94
9.13
8.67
6.60
3.21
-0.95
-5.37
-9.66
-13.74
-17.72
-21.93
-26.76
-32.66
-40.01
-48.97
-59.31
-70.30
-80.77
-89.38
-95.02
-97.24
-96.41
-93.62
-90.27
-87.53
-86.03
-85.66
-85.82
-85.81
-85.20
-83.87
-81.97
-79.73
-77.20
-74.32
-70.91
-66.92
-62.39
-57.52
-52.52
-47.45
-42.13
-36.18
-29.10
-20.53
-10.37
1.08
13.20
25.21
36.46
46.53
55.31
62.78
68.92
73.68
77.07
79.23
80.49
81.28
81.85
82.18
81.95
80.75
78.38
74.96
71.03
67.31
64.43
62.60
61.58
60.72
59.25
56.44
51.97
45.95
39.05
32.21
26.45
22.50
20.49
19.83
19.34
17.64
13.69
7.26
-0.94
-9.59
-17.21
-22.81
-26.05
-27.18
-26.67
-24.93
-22.16
-18.51
-14.21
-9.67
-5.41
-1.81
0.99
3.02
4.43
5.33
5.85
6.17
6.64
7.72
9.91
13.60
18.93
25.72
33.52
41.73
49.63
56.66
62.55
67.24
70.90
73.65
75.50
76.19
75.38
72.76
68.19
61.73
53.64
44.38
34.50
24.62
15.17
6.27
-2.44
-11.61
-21.88
-33.56
-46.27
-59.10
-70.69
-79.68
-84.97
-86.02
-82.91
-76.36
-67.58
-57.98
-48.78
-40.73
-33.92
-28.03
-22.52
-16.96
-11.18
-5.26
0.55
6.03
11.01
15.35
19.00
21.89
24.00
25.38
26.16
26.54
26.83
27.25
27.96
28.91
29.88
30.55
30.65
30.04
28.77
26.96
24.77
22.33
19.76
17.19
14.75
12.58
10.69
8.98
7.18
4.98
2.13
-1.45
-5.64
-10.15
-14.63
-18.76
-22.36
-25.44
-28.09
-30.40
-32.44
-34.19
-35.68
-37.06
-38.69
-41.01
-44.43
-49.13
-54.80
-60.69
-65.64
-68.38
-67.94
-63.93
-56.80
-47.63
-37.85
-28.67
-20.75
-14.09
-8.23
-2.58
3.26
9.35
15.48
21.36
26.68
31.16
34.46
36.21
36.10
34.12
30.58
26.25
21.99
18.58
16.40
15.44
15.33
15.60
15.85
15.73
14.99
13.41
10.86
7.45
3.55
-0.20
-3.10
-4.58
-4.45
-2.92
-0.51
2.17
4.56
6.30
7.20
7.23
6.43
4.87
2.61
-0.20
-3.40
-6.84
-10.44
-14.28
-18.61
-23.59
-29.22
-35.17
-40.78
-45.42
-48.70
-50.80
-52.32
-54.14
-56.99
-61.20
-66.53
-72.25
-77.29
-80.49
-80.97
-78.36
-72.93
-65.46
-57.04
-48.65
-40.90
-33.96
-27.66
-21.70
-15.83
-9.93
-3.96
2.02
7.88
13.47
18.53
22.89
26.44
29.26
31.58
33.70
35.88
38.27
40.83
43.39
45.69
47.45
48.48
48.73
48.29
47.37
46.22
45.04
43.93
42.81
41.48
39.69
37.25
34.21
30.78
27.36
24.27
21.70
19.53
17.46
15.10
12.23
8.86
5.22
1.63
-1.64
-4.51
-7.08
-9.67
-12.62
-16.18
-20.44
-25.22
-30.17
-34.86
-39.01
-42.61
-45.99
-49.70
-54.35
-60.29
-67.38
-74.83
-81.39
-85.53
-86.04
-82.36
-74.83
-64.57
-53.09
-41.75
-31.46
-22.53
-14.85
-8.13
-2.11
3.41
8.52
13.35
18.01
22.61
27.21
31.77
36.19
40.27
43.83
46.76
49.01
50.61
51.66
52.27
52.48
52.31
51.73
50.78
49.53
48.14
46.78
45.57
44.51
43.54
42.50
41.19
39.45
37.25
34.71
32.02
29.34
26.75
24.21
21.65
18.96
16.13
13.14
9.92
6.33
2.17
-2.66
-8.15
-14.05
-19.99
-25.60
-30.61
-34.98
-38.79
-42.24
-45.58
-49.06
-53.03
-57.84
-63.84
-71.07
-79.12
-86.97
-93.12
-96.00
-94.50
-88.37
-78.36
-65.99
-53.02
-40.99
-30.76
-22.46
-15.63
-9.54
-3.53
2.73
9.24
15.78
22.01
27.71
32.77
37.15
40.86
43.90
46.34
48.33
50.10
51.83
53.59
55.18
56.30
56.64
56.02
54.49
52.20
49.41
46.36
43.30
40.46
38.02
36.08
34.56
33.20
31.66
29.62
26.96
23.71
20.11
16.42
12.82
9.46
6.42
3.83
1.70
-0.15
-2.36
-5.85
-11.54
-19.85
-30.30
-41.60
-52.12
-60.61
-66.68
-70.80
-73.92
-76.95
-80.34
-84.12
-87.90
-91.04
-92.65
-91.63
-86.88
-77.70
-64.20
-47.48
-29.45
-12.28
2.21
13.22
21.04
27.00
32.86
40.27
50.06
62.01
74.99
87.41
97.95
106.03
111.93
116.54
120.90
125.75
131.29
137.10
142.35
146.00
147.03
144.79
139.19
130.81
120.70
109.97
99.36
89.01
78.55
67.39
55.15
41.79
27.58
13.03
-1.41
-15.34
-28.53
-40.87
-52.39
-63.26
-73.74
-84.10
-94.51
-104.92
-115.10
-124.73
-133.62
-141.77
-149.29
-156.25
-162.51
-167.66
-171.17
-172.55
-171.58
-168.40
-163.35
-156.83
-149.13
-140.35
-130.37
-119.04
-106.16
-91.53
-74.96
-56.30
-35.64
-13.41
9.51
32.01
52.88
71.16
86.24
97.96
106.51
112.31
115.85
117.57
117.81
116.84
114.92
112.40
109.64
107.00
104.63
102.50
100.38
98.04
95.38
92.49
89.60
86.82
84.14
81.26
77.84
73.66
68.81
63.66
58.56
53.70
48.85
43.54
37.34
30.15
22.38
14.78
8.06
2.54
-2.00
-6.14
-10.51
-15.44
-20.91
-26.64
-32.32
-37.78
-42.98
-47.93
-52.58
-56.86
-60.82
-64.79
-69.32
-74.98
-81.89
-89.42
-96.19
-100.36
-100.35
-95.33
-85.61
-72.53
-57.91
-43.54
-30.63
-19.69
-10.58
-2.84
3.98
10.16
15.74
20.63
24.76
28.25
31.35
34.35
37.41
40.51
43.49
46.16
48.44
50.34
51.99
53.39
54.40
54.75
54.23
52.73
50.33
47.25
43.65
39.66
35.38
30.93
26.47
22.18
18.21
14.60
11.28
8.07
4.70
0.95
-3.40
-8.41
-14.00
-19.97
-25.96
-31.67
-36.89
-41.67
-46.32
-51.34
-57.30
-64.52
-72.83
-81.43
-88.93
-93.68
-94.24
-89.90
-80.92
-68.50
-54.41
-40.39
-27.73
-17.00
-8.14
-0.67
5.92
12.08
18.03
23.84
29.48
34.86
39.84
44.27
47.97
50.78
52.65
53.70
54.24
54.70
55.45
56.69
58.24
59.69
60.41
59.95
58.08
54.97
51.03
46.82
42.82
39.25
36.09
33.07
29.86
26.18
21.90
17.15
12.23
7.55
3.48
0.19
-2.48
-4.92
-7.68
-11.26
-15.92
-21.54
-27.78
-34.12
-40.18
-45.80
-51.16
-56.67
-62.86
-70.13
-78.58
-87.76
-96.65
-103.78
-107.60
-106.97
-101.57
-92.07
-79.90
-66.76
-54.14
-42.88
-33.23
-24.89
-17.41
-10.36
-3.51
3.16
9.53
15.46
20.86
25.71
30.07
33.96
37.35
40.18
42.41
44.11
45.48
46.76
48.14
49.55
50.78
51.54
51.70
51.38
50.88
50.57
50.58
50.85
51.06
50.85
49.93
48.13
45.35
41.61
36.99
31.63
25.83
19.94
14.30
9.12
4.40
0.01
-4.26
-8.57
-13.00
-17.47
-21.80
-25.73
-28.91
-31.04
-31.96
-31.82
-31.10
-30.58
-31.14
-33.46
-37.74
-43.50
-49.63
-54.64
-57.06
-55.92
-50.96
-42.67
-32.16
-20.79
-9.82
-0.17
7.71
13.86
18.60
22.35
25.55
28.44
31.19
33.85
36.40
38.80
40.93
42.61
43.68
44.08
43.93
43.53
43.22
43.26
43.66
44.14
44.27
43.61
41.90
39.17
35.63
31.68
27.69
23.96
20.60
17.54
14.61
11.58
8.27
4.62
0.66
-3.51
-7.72
-11.83
-15.68
-19.05
-21.77
-23.79
-25.30
-26.69
-28.45
-30.97
-34.29
-38.08
-41.80
-44.99
-47.53
-49.71
-52.14
-55.52
-60.41
-67.13
-75.55
-85.02
-94.31
-101.71
-105.39
-103.94
-96.82
-84.56
-68.67
-51.20
-34.13
-19.07
-6.93
2.00
7.95
11.59
13.82
15.66
18.02
21.53
26.41
32.49
39.29
46.26
52.90
58.89
64.02
68.15
71.09
72.68
72.83
71.66
69.52
66.93
64.41
62.34
60.85
59.80
58.82
57.47
55.23
51.67
46.60
40.23
33.19
26.34
20.52
16.22
13.47
11.86
10.77
9.65
8.18
6.24
3.90
1.19
-1.88
-5.34
-9.16
-13.22
-17.29
-21.11
-24.47
-27.31
-29.77
-32.09
-34.62
-37.75
-41.78
-46.91
-53.09
-59.94
-66.71
-72.32
-75.57
-75.49
-71.67
-64.40
-54.61
-43.66
-32.91
-23.39
-15.61
-9.54
-4.78
-0.90
2.46
5.39
7.83
9.79
11.37
12.83
14.45
16.39
18.61
20.89
22.94
24.56
25.75
26.65
27.44
28.18
28.78
29.01
28.60
27.39
25.41
22.90
20.20
17.62
15.32
13.25
11.27
9.22
7.05
4.85
2.78
0.95
-0.67
-2.25
-4.04
-6.33
-9.32
-13.09
-17.62
-22.71
-28.02
-33.12
-37.51
-40.88
-43.21
-44.96
-46.84
-49.68
-53.98
-59.70
-66.13
-72.12
-76.37
-77.79
-75.88
-70.79
-63.27
-54.42
-45.43
-37.26
-30.47
-25.15
-21.05
-17.72
-14.69
-11.59
-8.16
-4.23
0.34
5.72
12.04
19.36
27.64
36.63
45.97
55.19
63.87
71.66
78.33
83.70
87.62
89.98
90.67
89.66
87.04
83.03
77.93
72.11
65.99
59.90
54.06
48.58
43.45
38.63
34.13
30.00
26.31
23.01
19.93
16.76
13.22
9.21
4.87
0.52
-3.48
-7.00
-10.19
-13.46
-17.36
-22.32
-28.42
-35.22
-41.80
-46.87
-49.15
-47.74
-42.43
-33.77
-22.97
-11.52
-0.80
8.15
14.83
19.15
21.43
22.12
21.69
20.46
18.55
15.88
12.30
7.83
2.81
-2.09
-6.04
-8.34
-8.69
-7.33
-4.90
-2.13
0.42
2.46
3.99
5.03
5.52
5.38
4.52
3.02
1.16
-0.69
-2.28
-3.56
-4.74
-6.13
-7.99
-10.48
-13.63
-17.50
-22.17
-27.81
-34.50
-42.20
-50.68
-59.56
-68.41
-76.90
-84.86
-92.33
-99.53
-106.79
-114.44
-122.62
-131.15
-139.28
-145.72
-148.82
-147.02
-139.33
-125.72
-107.17
-85.40
-62.29
-39.32
-17.27
3.67
23.60
42.48
59.91
75.23
87.80
97.35
104.08
108.56
111.42
113.09
113.67
112.96
110.77
107.08
102.06
96.12
89.61
82.78
75.75
68.58
61.39
54.39
47.80
41.79
36.36
31.38
26.62
21.96
17.38
12.96
8.88
5.25
2.15
-0.48
-2.83
-5.21
-7.90
-11.08
-14.71
-18.49
-22.03
-25.10
-27.82
-30.66
-34.26
-39.11
-45.20
-51.86
-57.93
-61.99
-62.91
-60.09
-53.72
-44.61
-33.98
-23.01
-12.56
-3.08
5.40
12.95
19.71
25.73
31.05
35.69
39.72
43.11
45.77
47.59
48.48
48.50
47.88
46.93
45.93
45.01
44.18
43.29
42.23
40.85
39.03
36.70
33.83
30.47
26.77
22.93
19.12
15.43
11.83
8.25
4.56
0.65
-3.55
-8.10
-12.96
-18.04
-23.16
-28.13
-32.90
-37.58
-42.50
-48.10
-54.77
-62.70
-71.67
-80.96
-89.50
-96.10
-99.75
-99.95
-96.82
-90.93
-83.01
-73.70
-63.37
-52.23
-40.50
-28.53
-16.77
-5.67
4.47
13.46
21.13
27.28
31.66
34.13
34.80
34.05
32.45
30.52
28.66
27.06
25.72
24.61
23.54
22.30
20.65
18.47
15.85
13.24
11.29
10.73
12.16
15.84
21.68
29.33
38.21
47.74
57.27
66.15
73.73
79.33
82.33
82.26
78.89
72.40
63.40
52.78
41.56
30.63
20.52
11.40
3.11
-4.82
-12.92
-21.65
-31.15
-41.00
-50.20
-57.41
-61.40
-61.49
-57.89
-51.60
-43.99
-36.29
-29.18
-22.70
-16.48
-10.01
-3.00
4.56
12.35
19.92
26.82
32.84
37.98
42.49
46.61
50.40
53.68
56.13
57.47
57.71
57.14
56.18
55.19
54.21
53.03
51.26
48.66
45.30
41.54
37.86
34.61
31.82
29.20
26.35
23.00
19.04
14.66
10.14
5.73
1.56
-2.29
-5.89
-9.30
-12.64
-16.09
-19.77
-23.72
-27.81
-31.83
-35.54
-38.85
-41.93
-45.19
-49.14
-54.19
-60.36
-67.12
-73.41
-77.89
-79.35
-77.18
-71.68
-63.89
-55.30
-47.25
-40.50
-35.10
-30.45
-25.78
-20.43
-14.08
-6.82
1.01
8.91
16.40
23.12
28.95
33.95
38.34
42.33
45.97
49.17
51.78
53.77
55.30
56.66
58.12
59.73
61.23
62.19
62.23
61.19
59.14
56.26
52.68
48.47
43.74
38.73
33.89
29.64
26.06
22.70
18.73
13.21
5.64
-3.72
-14.01
-24.13
-33.22
-41.00
-47.74
-53.90
-59.80
-65.49
-70.77
-75.53
-79.84
-84.00
-88.41
-93.36
-98.89
-104.77
-110.53
-115.47
-118.86
-120.07
-118.65
-114.50
-107.99
-99.82
-90.93
-82.21
-74.28
-67.29
-60.95
-54.65
-47.72
-39.70
-30.52
-20.43
-9.91
0.68
11.12
21.39
31.52
41.47
51.08
60.10
68.35
75.71
82.16
87.67
92.14
95.43
97.30
97.55
96.18
93.32
89.35
84.75
79.93
75.16
70.49
65.83
61.12
56.47
52.16
48.47
45.58
43.35
41.40
39.26
36.62
33.43
29.90
26.24
22.56
18.70
14.27
8.81
2.05
-6.03
-15.19
-25.15
-35.71
-46.82
-58.50
-70.72
-83.27
-95.84
-108.22
-120.40
-132.55
-144.76
-156.74
-167.58
-175.87
-180.17
-179.49
-173.68
-163.39
-149.82
-134.22
-117.55
-100.33
-82.75
-64.81
-46.67
-28.65
-11.25
5.04
19.91
33.40
45.83
57.66
69.31
80.94
92.42
103.48
113.81
123.26
131.72
139.11
145.15
149.41
151.38
150.61
146.96
140.65
132.29
122.70
112.70
102.94
93.78
85.34
77.59
70.45
63.78
57.42
51.11
44.58
37.56
29.89
21.57
12.63
3.18
-6.75
-17.06
-27.62
-38.14
-48.33
-57.93
-66.90
-75.34
-83.40
-91.17
-98.56
-105.40
-111.50
-116.76
-121.25
-125.08
-128.41
-131.30
-133.74
-135.67
-137.01
-137.60
-137.16
-135.19
-130.92
-123.58
-112.60
-97.96
-80.37
-61.07
-41.60
-23.36
-7.25
6.38
17.69
27.14
35.24
42.41
48.95
55.03
60.69
65.90
70.57
74.58
77.87
80.45
82.40
83.91
85.19
86.42
87.78
89.28
90.82
92.22
93.28
93.83
93.83
93.31
92.42
91.33
90.23
89.30
88.73
88.57
88.79
89.13
89.14
88.20
85.74
81.45
75.50
68.58
61.67
55.72
51.25
48.14
45.80
43.44
40.49
36.80
32.50
27.80
22.71
16.95
10.18
2.32
-6.37
-15.29
-23.80
-31.52
-38.49
-45.08
-51.78
-59.02
-67.00
-75.68
-84.73
-93.47
-100.97
-106.09
-107.84
-105.72
-99.95
-91.48
-81.65
-71.77
-62.71
-54.77
-47.82
-41.48
-35.44
-29.51
-23.67
-17.92
-12.27
-6.72
-1.26
4.14
9.46
14.66
19.66
24.40
28.87
33.04
36.93
40.49
43.64
46.18
47.92
48.71
48.59
47.72
46.34
44.66
42.72
40.47
37.78
34.62
31.14
27.61
24.40
21.81
19.97
18.91
18.51
18.62
19.03
19.52
19.89
20.07
20.30
21.13
23.34
27.60
34.18
42.74
52.48
62.46
71.95
80.58
88.31
95.18
101.13
105.99
109.48
111.42
111.48
109.04
103.08
92.24
75.41
52.38
24.35
-6.00
-35.15
-59.73
-77.49
-87.82
-91.60
-90.64
-86.91
-82.00
-77.05
-72.82
-69.91
-68.78
-69.59
-71.99
-75.06
-77.49
-77.90
-75.25
-69.07
-59.54
-47.28
-33.24
-18.45
-3.92
9.41
20.79
29.74
36.08
39.93
41.59
41.42
39.75
36.82
32.81
27.86
22.12
15.76
8.93
1.72
-5.81
-13.68
-21.89
-30.45
-39.26
-48.13
-56.74
-64.66
-71.43
-76.68
-80.12
-81.67
-81.44
-79.78
-77.25
-74.52
-72.25
-70.96
-70.99
-72.48
-75.47
-79.84
-85.36
-91.83
-99.17
-107.57
-117.49
-129.33
-143.06
-157.74
-171.47
-181.59
-185.50
-181.36
-168.79
-148.95
-124.25
-97.70
-72.07
-49.48
-30.91
-16.40
-5.25
3.55
11.02
18.04
25.22
33.02
41.59
50.82
60.30
69.46
77.78
84.85
90.32
93.84
94.92
93.04
87.93
79.83
69.67
59.03
49.74
43.46
41.21
43.01
47.80
53.69
58.41
60.15
58.18
53.15
46.79
41.04
37.12
34.94
33.16
29.97
23.85
14.24
1.65
-12.64
-27.15
-40.65
-52.33
-61.81
-69.07
-74.31
-77.87
-80.14
-81.36
-81.44
-79.99
-76.38
-70.06
-60.98
-49.73
-37.57
-26.06
-16.57
-9.88
-5.93
-4.02
-3.22
-2.77
-2.37
-2.16
-2.37
-3.13
-4.17
-4.95
-4.80
-3.24
-0.23
3.90
8.53
13.05
17.05
20.40
23.28
26.09
29.36
33.68
39.54
47.04
55.74
64.54
71.95
76.63
77.90
76.05
72.22
67.89
64.33
62.31
62.05
63.45
66.23
69.98
74.09
77.65
79.66
79.15
75.54
68.67
58.87
46.89
33.84
21.23
10.71
3.69
0.91
2.11
6.04
10.91
15.01
17.22
17.22
15.41
12.58
9.60
7.19
5.75
5.41
6.13
7.86
10.62
14.57
19.86
26.43
33.83
41.17
47.38
51.53
53.21
52.70
50.92
49.07
48.15
48.73
50.83
54.13
58.25
62.93
67.96
72.99
77.34
80.09
80.32
77.52
71.76
63.53
53.43
41.75
28.53
13.77
-2.17
-18.39
-33.75
-47.26
-58.56
-67.99
-76.34
-84.40
-92.52
-100.49
-107.63
-113.02
-115.62
-114.31
-108.12
-96.49
-79.71
-59.28
-37.66
-17.60
-1.09
11.40
20.93
29.40
38.44
48.62
59.28
68.94
76.21
80.26
81.05
79.09
75.09
69.78
63.78
57.71
52.24
47.91
44.99
43.30
42.25
40.94
38.53
34.42
28.43
20.62
11.14
-0.14
-13.64
-29.92
-49.24
-71.21
-94.59
-117.35
-137.18
-151.87
-159.87
-160.66
-154.82
-144.08
-130.89
-117.79
-106.81
-98.91
-93.71
-89.66
-84.64
-76.69
-64.61
-48.33
-28.97
-8.40
11.24
28.12
41.07
49.74
54.50
56.17
55.74
54.10
51.88
49.49
47.15
45.05
43.36
42.23
41.66
41.47
41.29
40.72
39.57
37.98
36.41
35.47
35.63
36.98
39.14
41.44
43.14
43.71
42.99
41.13
38.49
35.43
32.22
28.96
25.68
22.33
18.93
15.47
11.94
8.26
4.39
0.41
-3.44
-6.81
-9.44
-11.33
-12.76
-14.29
-16.45
-19.62
-23.85
-28.86
-34.03
-38.55
-41.49
-42.01
-39.53
-33.89
-25.38
-14.66
-2.65
9.64
21.28
31.52
39.97
46.62
51.83
56.11
59.88
63.21
65.86
67.46
67.74
66.75
64.81
62.39
59.85
57.33
54.84
52.31
49.67
46.86
43.61
39.41
33.61
25.77
16.01
5.17
-5.39
-14.29
-20.70
-24.70
-27.19
-29.41
-32.39
-36.56
-41.70
-47.19
-52.44
-57.12
-61.22
-64.97
-68.62
-72.39
-76.37
-80.62
-85.15
-89.93
-94.94
-100.06
-105.15
-110.09
-114.91
-119.80
-125.10
-131.04
-137.50
-143.72
-148.18
-148.86
-143.66
-131.07
-110.80
-84.10
-53.57
-22.56
5.73
29.13
46.94
59.81
69.12
76.16
81.61
85.29
86.62
85.11
80.85
74.61
67.54
60.73
54.89
50.26
46.75
44.17
42.40
41.27
40.55
39.79
38.51
36.32
33.17
29.31
25.25
21.46
18.26
15.76
13.88
12.46
11.24
9.93
8.23
5.96
3.21
0.33
-2.08
-3.43
-3.43
-2.15
0.06
2.81
5.88
9.31
13.24
17.70
22.30
26.34
28.87
29.09
26.66
21.83
15.36
8.20
1.05
-5.75
-12.21
-18.44
-24.19
-28.85
-31.58
-31.77
-29.34
-24.78
-18.96
-12.76
-6.94
-2.05
1.42
3.20
3.31
2.27
1.04
0.72
2.10
5.39
10.18
15.72
21.27
26.27
30.48
33.77
36.08
37.32
37.45
36.49
34.45
31.32
27.12
21.89
15.76
9.01
2.09
-4.46
-9.99
-13.95
-15.92
-15.85
-13.96
-10.62
-6.13
-0.75
5.27
11.50
17.37
22.29
26.02
28.75
31.05
33.48
36.10
38.37
39.40
38.55
35.90
32.47
29.79
29.28
31.55
36.15
41.63
46.07
47.78
45.95
40.95
34.23
27.73
23.06
20.88
20.59
20.57
18.75
13.35
3.40
-11.07
-29.14
-49.27
-69.64
-88.39
-103.99
-115.48
-122.60
-125.82
-126.01
-124.23
-121.45
-118.47
-115.94
-114.33
-113.92
-114.76
-116.51
-118.36
-119.01
-116.77
-109.80
-96.70
-76.98
-51.53
-22.59
6.70
33.26
54.94
71.14
82.57
90.66
96.65
101.20
104.34
105.89
105.91
104.85
103.32
101.82
100.47
99.02
97.03
94.01
89.33
82.18
71.57
56.58
36.83
12.86
-13.85
-41.36
-67.96
-92.64
-115.22
-135.98
-155.29
-173.47
-190.80
-207.78
-224.95
-242.54
-259.99
-275.75
-287.67
-293.82
-293.40
-287.25
-277.50
-266.72
-256.79
-248.08
-239.47
-228.90
-214.31
-194.36
-168.66
-137.61
-102.04
-63.26
-23.27
15.16
48.98
75.74
94.71
107.20
116.01
124.10
133.31
144.02
155.61
167.43
179.48
192.22
205.91
219.99
232.91
242.71
247.78
247.54
242.45
233.71
222.69
210.52
197.85
185.01
172.28
160.10
149.16
140.23
133.88
130.18
128.50
127.50
125.37
120.40
111.57
99.20
85.15
72.53
64.75
64.29
71.44
83.90
97.27
106.43
107.12
97.09
76.43
47.30
13.39
-20.55
-49.39
-68.77
-76.45
-73.50
-64.34
-55.17
-51.53
-55.98
-67.20
-81.15
-93.36
-101.14
-104.41
-104.71
-103.58
-101.29
-96.81
-88.95
-77.74
-64.87
-53.11
-44.84
-40.74
-39.40
-38.33
-35.33
-29.67
-22.41
-15.61
-11.24
-10.13
-11.42
-13.25
-13.90
-12.64
-9.82
-6.72
-4.54
-4.08
-5.47
-7.51
-8.73
-8.26
-6.28
-3.57
-1.57
-1.30
-3.67
-9.47
-17.78
-27.12
-36.46
-45.20
-52.56
-58.16
-60.92
-60.62
-58.22
-53.20
-44.98
-34.34
-23.04
-12.51
-4.19
2.83
9.73
17.32
28.67
46.66
71.33
100.26
130.95
160.93
191.34
223.86
242.77
236.83
207.90
168.37
129.86
106.99
95.16
90.90
92.11
97.49
103.38
109.53
114.83
117.30
115.74
109.07
99.32
88.34
76.93
66.56
58.23
50.52
40.80
27.49
10.25
-7.91
-23.76
-35.48
-42.08
-43.93
-43.62
-44.66
-49.82
-61.13
-78.61
-101.88
-130.49
-162.86
-196.30
-228.11
-255.95
-278.02
-293.60
-302.24
-304.17
-299.99
-290.18
-275.02
-254.85
-229.99
-200.63
-167.18
-130.41
-92.13
-55.14
-22.54
3.26
21.29
32.27
38.00
40.49
41.35
41.44
41.23
41.04
41.27
42.24
44.03
46.32
48.59
50.37
51.40
51.68
51.29
50.24
48.48
46.02
43.14
40.42
38.61
38.26
39.53
42.01
44.89
47.27
48.60
48.78
48.16
47.24
46.33
45.42
44.20
42.27
39.34
35.36
30.39
24.61
18.20
11.45
4.75
-1.44
-6.78
-11.25
-15.22
-19.37
-24.32
-30.34
-37.13
-43.84
-49.31
-52.41
-52.35
-48.85
-42.26
-33.43
-23.51
-13.65
-4.64
3.21
10.06
16.34
22.54
28.93
35.51
42.07
48.18
53.39
57.28
59.59
60.30
59.66
58.07
56.01
53.84
51.77
49.68
47.22
43.86
39.04
32.37
23.89
14.14
4.15
-4.86
-11.80
-16.06
-17.58
-16.85
-14.52
-11.17
-7.15
-2.55
2.61
8.19
13.87
19.15
23.57
26.97
29.47
31.49
33.45
35.56
37.70
39.60
41.06
42.13
43.11
44.23
45.43
46.29
46.21
44.75
41.97
38.39
34.77
31.79
29.84
29.08
29.55
31.19
33.88
37.25
40.65
43.28
44.60
44.46
43.22
41.52
39.87
38.45
37.09
35.46
33.41
31.14
29.09
27.71
27.23
27.57
28.39
29.31
29.98
30.16
29.62
28.09
25.33
21.24
16.02
10.09
4.01
-1.79
-7.22
-12.48
-17.95
-24.02
-30.92
-38.70
-47.19
-55.99
-64.54
-72.20
-78.47
-83.20
-86.66
-89.37
-91.82
-94.13
-96.12
-97.48
-98.15
-98.43
-98.91
-100.09
-102.10
-104.54
-106.74
-108.00
-107.84
-106.00
-102.40
-97.05
-90.09
-81.85
-72.88
-63.90
-55.54
-48.21
-42.02
-36.79
-32.15
-27.69
-23.09
-18.18
-13.06
-8.06
-3.62
0.01
2.87
5.32
7.84
10.79
14.23
17.88
21.33
24.20
26.27
27.52
28.01
27.84
27.15
26.07
24.82
23.60
22.54
21.64
20.78
19.78
18.42
16.58
14.24
11.50
8.55
5.62
2.90
0.47
-1.75
-3.88
-6.08
-8.40
-10.83
-13.30
-15.74
-18.13
-20.49
-22.81
-25.08
-27.27
-29.38
-31.52
-33.87
-36.52
-39.38
-42.02
-43.78
-43.96
-42.07
-38.13
-32.64
-26.47
-20.54
-15.52
-11.66
-8.70
-6.02
-2.92
1.11
6.15
11.75
17.15
21.53
24.50
26.24
27.48
29.16
31.91
35.70
39.90
43.60
46.15
47.41
47.77
47.81
47.91
48.02
47.70
46.36
43.45
38.57
31.24
20.83
6.80
-10.56
-29.36
-45.74
-54.50
-50.79
-32.19
0.06
41.11
84.30
123.33
154.02
174.64
184.97
185.14
175.06
155.03
126.80
94.12
61.93
34.62
14.16
-0.48
-12.39
-24.76
-39.25
-55.46
-71.79
-86.68
-99.51
-110.49
-120.02
-128.06
-134.00
-137.27
-137.77
-135.95
-132.24
-126.51
-118.17
-106.91
-93.56
-80.22
-69.47
-62.88
-60.05
-58.87
-56.81
-52.49
-46.44
-40.52
-36.51
-34.92
-34.50
-33.22
-29.53
-23.38
-16.22
-10.12
-6.69
-6.19
-7.53
-8.88
-8.62
-6.22
-2.40
1.26
3.33
3.47
2.70
2.95
5.98
12.33
21.07
30.37
38.74
46.02
53.44
62.83
75.26
90.12
105.15
117.53
125.24
127.82
126.23
121.90
115.66
107.45
96.67
83.03
67.01
49.83
32.80
16.89
2.57
-9.76
-19.21
-24.52
-24.54
-19.15
-9.75
0.94
9.94
15.08
15.82
13.34
9.82
7.45
7.45
9.72
12.94
15.60
16.95
17.57
19.24
24.02
33.14
46.45
62.80
81.32
102.42
127.70
158.35
193.15
227.39
254.09
266.77
262.49
243.30
214.83
183.06
151.35
119.48
85.17
47.01
6.40
-32.31
-63.70
-83.82
-91.81
-89.74
-81.27
-70.03
-58.70
-49.13
-42.91
-41.57
-46.58
-58.76
-77.74
-101.82
-128.34
-154.48
-178.03
-197.94
-214.57
-229.38
-244.45
-261.93
-283.80
-311.43
-344.81
-381.93
-418.56
-449.02
-467.95
-471.93
-460.55
-435.88
-401.15
-358.82
-309.63
-252.89
-187.98
-116.03
-40.76
31.91
95.67
145.74
180.20
200.01
208.03
207.76
202.42
194.33
185.18
176.50
170.08
167.65
170.27
177.73
188.45
199.82
208.87
212.73
209.57
199.35
184.27
168.17
155.22
148.56
149.16
155.40
163.44
168.86
168.62
162.01
150.36
136.07
121.56
108.17
95.18
78.93
55.02
21.26
-20.16
-63.34
-100.77
-125.99
-135.98
-132.18
-121.14
-110.24
-103.76
-101.61
-101.50
-101.61
-101.20
-100.01
-97.42
-94.36
-92.44
-93.28
-98.43
-110.36
-131.07
-159.61
-190.94
-205.62
-188.83
-143.84
-90.79
-48.62
-24.59
-15.56
-13.98
-13.41
-11.42
-11.34
-17.79
-32.10
-50.36
-67.06
-77.90
-81.72
-79.79
-75.06
-72.21
-74.99
-84.07
-96.08
-106.91
-113.75
-115.69
-113.27
-107.77
-101.12
-93.74
-88.64
-84.43
-78.82
-70.19
-58.13
-43.33
-27.15
-11.60
1.71
12.28
21.65
31.56
43.32
57.32
73.16
89.83
106.01
120.63
133.25
144.81
156.47
169.34
184.36
202.27
223.41
247.28
272.27
295.46
313.60
323.64
323.98
315.17
299.62
280.58
260.79
241.63
223.11
204.75
186.32
168.25
151.45
136.70
124.03
112.68
101.57
89.84
77.39
64.80
52.93
42.44
33.44
25.54
18.08
10.50
2.52
-5.77
-14.03
-21.81
-28.76
-34.66
-39.46
-43.19
-45.88
-47.48
-47.83
-46.77
-44.21
-40.33
-35.57
-30.58
-26.02
-22.37
-19.81
-18.17
-17.15
-16.43
-15.89
-15.56
-15.45
-15.40
-14.92
-13.22
-9.44
-2.97
6.26
17.73
30.35
42.73
53.56
61.91
67.38
70.08
70.50
69.24
66.82
63.63
59.87
55.59
50.80
45.48
39.76
34.00
28.75
24.51
21.31
18.37
14.01
6.00
-7.87
-28.95
-57.09
-90.30
-124.95
-156.49
-180.79
-195.35
-200.03
-196.87
-188.94
-178.92
-168.21
-156.87
-144.46
-131.10
-117.93
-106.51
-98.01
-92.31
-88.06
-83.47
-77.36
-69.72
-61.56
-54.29
-48.83
-45.22
-42.71
-40.17
-36.58
-31.39
-24.55
-16.37
-7.22
2.70
13.45
25.25
38.25
52.23
66.57
80.36
92.69
103.03
111.43
118.45
124.96
131.76
139.28
147.44
155.75
163.60
170.60
176.77
182.57
188.65
195.57
203.46
211.88
219.83
225.93
228.83
227.41
221.22
210.63
196.87
181.79
167.44
155.42
146.31
139.19
131.69
120.31
101.18
71.23
29.27
-23.24
-82.13
-141.33
-194.41
-236.35
-264.60
-279.51
-283.96
-282.48
-280.36
-282.59
-293.25
-314.31
-344.64
-379.44
-410.59
-428.31
-423.75
-392.06
-334.15
-256.79
-170.40
-85.68
-10.40
52.01
101.69
140.14
168.29
185.93
192.63
189.28
178.57
164.07
148.52
132.87
116.65
99.08
80.32
61.50
43.86
27.85
12.97
-1.10
-13.91
-24.01
-30.17
-32.93
-35.21
-41.55
-56.09
-80.72
-114.19
-152.79
-191.79
-226.81
-254.57
-273.00
-281.08
-278.63
-266.10
-244.51
-215.35
-180.63
-142.83
-104.77
-69.33
-38.94
-15.00
2.48
14.79
23.89
31.60
38.87
45.57
50.99
54.43
55.80
55.72
55.12
54.81
55.16
56.19
57.82
60.11
63.36
67.92
74.02
81.61
90.34
99.74
109.23
118.30
126.60
133.97
140.53
146.53
152.26
157.87
163.25
168.09
171.95
174.37
174.81
172.61
166.98
157.25
143.19
125.36
105.17
84.48
65.07
48.05
33.74
21.87
12.02
3.91
-2.56
-7.54
-11.50
-15.14
-19.17
-23.93
-29.22
-34.46
-39.03
-42.78
-46.01
-49.35
-53.43
-58.71
-65.34
-73.18
-81.87
-90.84
-99.28
-106.16
-110.41
-111.21
-108.52
-103.31
-97.60
-93.88
-94.08
-98.76
-106.65
-115.14
-121.48
-123.98
-122.56
-118.53
-113.49
-108.29
-102.71
-96.10
-88.48
-81.21
-76.46
-75.80
-78.78
-82.71
-83.88
-79.84
-71.13
-61.32
-55.16
-55.87
-63.12
-73.03
-80.31
-80.91
-73.99
-61.93
-48.63
-37.62
-30.70
-27.99
-28.67
-31.53
-35.04
-37.01
-34.63
-25.19
-7.27
18.29
48.31
78.36
104.36
123.83
136.27
142.60
144.34
142.82
138.94
133.30
126.26
117.88
107.94
95.94
81.59
65.32
48.41
32.67
19.57
9.53
1.73
-5.32
-12.82
-20.87
-28.50
-34.42
-38.00
-39.61
-40.29
-40.79
-40.91
-39.62
-35.89
-29.53
-21.55
-13.62
-7.13
-2.42
1.22
4.84
9.10
13.90
18.63
22.62
25.46
26.82
26.41
24.07
20.08
15.42
11.54
9.48
9.13
8.81
5.95
-1.62
-14.48
-31.21
-49.03
-65.07
-77.32
-84.94
-87.92
-86.49
-80.95
-71.80
-59.99
-46.83
-33.62
-21.25
-10.10
-0.31
7.69
13.04
14.81
12.71
7.55
1.15
-4.29
-7.13
-6.74
-3.44
2.05
9.16
17.73
27.81
39.28
51.67
64.26
76.33
87.43
97.15
104.79
109.18
108.86
102.71
90.67
73.95
54.83
35.86
19.10
5.61
-4.31
-10.83
-14.10
-14.27
-11.68
-7.14
-1.95
2.34
4.51
3.95
0.84
-4.00
-9.33
-13.95
-16.98
-18.09
-17.58
-16.13
-14.50
-13.20
-12.32
-11.59
-10.59
-9.06
-7.12
-5.07
-3.25
-1.77
-0.56
0.55
1.59
2.31
2.30
1.29
-0.46
-2.07
-2.23
0.35
6.38
15.77
27.66
40.81
53.77
65.05
73.09
76.56
74.80
68.28
58.52
47.51
36.87
27.15
17.91
8.50
-1.09
-9.77
-16.01
-18.90
-18.99
-18.31
-19.42
-24.06
-32.29
-42.45
-52.00
-58.71
-61.43
-60.40
-56.82
-52.25
-48.02
-44.97
-43.48
-43.62
-45.38
-48.63
-53.04
-58.03
-62.77
-66.53
-68.95
-70.22
-70.75
-70.65
-69.24
-65.15
-56.88
-43.68
-26.22
-6.57
12.58
29.15
42.73
54.89
68.36
85.46
106.56
129.36
149.58
162.66
165.85
159.40
146.36
131.17
117.59
107.36
100.01
93.74
86.78
78.25
68.28
57.52
46.67
36.25
26.78
19.11
14.39
13.65
17.31
24.61
33.59
41.57
45.87
44.63
37.38
25.10
9.92
-5.45
-18.36
-26.76
-29.66
-27.28
-21.03
-13.12
-5.87
-1.00
0.87
0.35
-1.24
-2.56
-2.84
-2.23
-1.61
-2.10
-4.55
-9.15
-15.35
-21.90
-27.21
-29.71
-28.33
-22.97
-14.75
-5.85
1.24
4.50
3.15
-2.18
-10.04
-18.99
-28.39
-38.59
-50.51
-64.84
-81.42
-99.06
-116.05
-130.87
-142.58
-150.74
-154.97
-154.59
-148.61
-136.33
-118.19
-96.08
-73.13
-52.59
-36.61
-25.56
-18.17
-12.65
-7.74
-3.36
-0.26
0.65
-0.91
-4.53
-9.57
-15.62
-22.64
-30.61
-39.02
-46.60
-51.65
-52.73
-49.16
-41.25
-29.98
-16.64
-2.45
11.57
24.73
36.66
47.48
57.61
67.46
77.16
86.41
94.74
101.86
107.91
113.40
118.82
124.20
129.15
132.95
135.11
135.58
134.78
133.29
131.49
129.37
126.67
122.96
118.04
111.92
104.89
97.33
89.67
82.26
75.32
68.94
63.00
57.30
51.63
45.88
40.16
34.80
30.14
26.46
23.78
21.91
20.47
19.03
17.05
13.79
8.49
0.56
-9.92
-21.95
-33.77
-43.42
-49.51
-51.73
-50.79
-47.92
-44.08
-39.58
-34.10
-27.16
-18.73
-9.45
-0.57
6.65
11.41
13.77
14.55
14.98
16.10
18.37
21.53
24.80
27.46
29.21
30.34
31.59
33.64
36.79
40.75
44.89
48.66
51.86
54.73
57.81
61.65
66.66
72.89
79.95
87.04
92.96
96.35
96.04
91.38
82.38
69.59
53.86
35.96
16.45
-4.19
-25.48
-46.95
-68.19
-89.02
-109.32
-128.77
-146.78
-162.67
-176.09
-187.26
-196.93
-206.02
-215.07
-223.91
-231.71
-237.20
-238.91
-235.30
-224.60
-204.82
-174.14
-131.58
-78.04
-16.97
46.05
104.43
152.43
186.75
207.31
216.83
219.35
218.58
216.67
214.13
210.50
205.38
198.86
191.47
183.56
174.91
164.78
152.43
137.53
120.48
102.24
83.97
66.59
50.64
36.14
22.86
10.44
-1.29
-12.26
-22.14
-30.51
-37.15
-42.16
-46.10
-49.83
-54.23
-59.97
-67.23
-75.63
-84.33
-92.22
-98.23
-101.63
-102.22
-100.37
-96.85
-92.74
-89.10
-86.95
-87.14
-90.28
-96.50
-105.28
-115.25
-124.56
-131.17
-133.52
-130.96
-123.74
-112.71
-98.91
-83.33
-66.83
-50.31
-34.80
-21.25
-10.41
-2.47
2.84
6.21
8.33
9.83
11.15
12.53
14.15
16.01
17.97
19.68
20.72
20.74
19.65
17.67
15.24
12.95
11.30
10.59
10.79
11.55
12.29
12.37
11.34
9.06
5.87
2.45
-0.24
-1.28
-0.04
3.61
9.21
15.88
22.61
28.67
33.78
38.10
42.03
45.86
49.60
52.97
55.57
57.08
57.42
56.74
55.37
53.59
51.57
49.28
46.58
43.32
39.37
34.66
29.06
22.37
14.36
4.95
-5.66
-16.91
-27.97
-38.07
-46.65
-53.54
