1520265058.00
64.000000
-0.00
-0.00
-0.00
-0.00
-0.00
-0.00
-0.00
-0.00
-0.00
-0.00
0.00
0.01
0.01
-0.00
-0.03
-0.05
-0.05
0.00
0.13
0.36
0.66
1.01
1.37
1.72
2.06
2.40
2.79
3.24
3.80
4.42
5.06
5.66
6.20
6.68
7.15
7.68
8.31
9.14
10.09
11.04
11.88
12.56
13.14
13.76
14.65
15.96
17.91
20.32
22.90
25.38
27.58
29.57
31.68
34.32
37.81
42.54
48.15
54.10
59.83
64.97
69.58
74.14
79.34
85.71
93.76
103.00
112.62
121.73
129.77
136.75
143.30
150.75
157.77
166.64
177.95
191.79
206.97
220.57
228.25
225.36
208.53
176.87
132.76
80.05
23.07
-34.94
-92.44
-149.16
-205.23
-260.37
-313.74
-363.87
-409.83
-450.91
-486.50
-515.74
-537.23
-549.22
-549.96
-538.37
-514.21
-478.67
-433.88
-382.45
-327.02
-269.84
-212.63
-156.66
-102.95
-52.37
-5.90
35.58
71.43
101.35
125.50
144.38
158.69
169.15
176.37
180.75
182.57
182.07
179.51
175.23
169.65
163.18
156.15
148.81
141.30
133.69
126.02
118.33
110.69
103.16
95.80
88.68
81.83
75.25
68.95
62.95
57.25
51.86
46.78
42.03
37.59
33.45
29.61
26.07
22.81
19.83
17.11
14.67
12.48
10.54
8.83
7.35
6.07
4.97
4.05
3.27
2.62
2.09
1.65
1.30
1.01
0.79
0.61
0.47
0.37
0.29
0.23
0.19
0.17
0.16
0.16
0.17
0.19
0.21
0.24
0.28
0.32
0.36
0.40
0.45
0.50
0.54
0.59
0.64
0.70
0.76
0.82
0.89
0.97
1.05
1.15
1.25
1.37
1.50
1.65
1.81
2.00
2.20
2.43
2.68
2.96
3.26
3.60
3.97
4.37
4.81
5.28
5.79
6.34
6.93
7.57
8.24
8.96
9.73
10.54
11.39
12.29
13.23
14.23
15.30
16.42
17.61
18.85
20.12
21.40
22.60
23.66
24.45
24.88
24.80
24.10
22.72
20.59
17.76
14.28
10.23
5.83
1.26
-3.25
-7.48
-11.26
-14.41
-16.86
-18.54
-19.46
-19.67
-19.28
-18.38
-17.09
-15.53
-13.81
-12.02
-10.22
-8.46
-6.73
-5.05
-3.42
-1.79
-0.13
1.56
3.30
5.07
6.90
8.85
10.86
12.92
15.07
17.34
19.71
22.17
24.68
27.27
30.07
32.94
35.91
39.05
42.40
45.94
49.57
53.17
56.72
60.38
63.98
67.60
71.39
75.45
79.65
83.72
87.32
90.20
92.48
93.87
94.50
94.54
93.98
92.30
88.46
80.92
67.57
51.03
32.24
12.14
-8.38
-28.68
-48.58
-68.23
-88.14
-109.00
-131.53
-156.87
-185.16
-215.09
-243.78
-267.20
-281.34
-283.50
-273.26
-252.43
-224.93
-194.72
-164.94
-137.40
-112.86
-91.40
-72.97
-57.38
-44.28
-33.36
-23.98
-15.50
-7.48
0.15
7.19
13.24
18.03
21.57
24.02
25.92
27.85
30.16
32.83
35.40
37.22
37.74
36.76
34.55
31.75
29.07
27.00
25.60
24.53
23.21
21.14
18.08
14.09
9.51
4.83
0.57
-2.72
-4.56
-4.58
-2.71
0.75
5.16
9.71
13.69
16.71
18.74
20.06
20.98
21.74
22.38
22.91
23.28
23.53
23.71
23.85
23.93
23.84
23.50
22.87
21.98
20.87
19.58
18.11
16.42
14.50
12.29
9.77
6.97
3.99
1.03
-1.62
-3.66
-5.02
-5.90
-6.85
-8.55
-11.56
-15.98
-21.36
-26.77
-31.04
-33.24
-32.89
-30.11
-25.45
-19.70
-13.64
-7.85
-2.72
1.48
4.67
6.88
8.24
9.02
9.46
9.83
10.27
10.87
11.63
12.54
13.50
14.33
14.90
15.11
14.99
14.69
14.41
14.21
14.02
13.57
12.58
10.85
8.38
5.34
2.00
-1.33
-4.49
-7.44
-10.32
-13.40
-16.96
-21.20
-26.10
-31.31
-36.14
-39.68
-41.04
-39.63
-35.40
-28.90
-21.10
-13.10
-5.80
0.32
5.19
9.02
12.12
14.71
16.87
18.61
19.94
20.91
21.63
22.18
22.62
22.96
23.15
23.19
23.10
22.93
22.74
22.58
22.41
22.11
21.47
20.29
18.39
15.77
12.60
9.24
6.03
3.23
0.81
-1.51
-4.19
-7.69
-12.23
-17.63
-23.32
-28.41
-32.02
-33.44
-32.40
-29.06
-24.00
-18.01
-11.90
-6.24
-1.32
2.87
6.54
9.97
13.34
16.72
20.05
23.16
25.88
28.07
29.61
30.50
30.79
30.63
30.19
29.65
29.11
28.55
27.93
27.28
26.67
26.17
25.72
25.09
23.94
21.97
19.11
15.63
11.99
8.61
5.71
3.13
0.47
-2.80
-7.07
-12.52
-19.02
-26.05
-32.73
-37.94
-40.65
-40.17
-36.45
-30.11
-22.24
-14.10
-6.67
-0.53
4.25
7.89
10.80
13.33
15.74
18.15
20.52
22.70
24.50
25.76
26.39
26.45
26.07
25.41
24.62
23.78
22.93
22.07
21.15
20.09
18.80
17.17
15.10
12.53
9.50
6.09
2.54
-0.90
-3.96
-6.45
-8.37
-9.97
-11.67
-13.99
-17.36
-21.93
-27.46
-33.33
-38.59
-42.20
-43.27
-41.35
-36.58
-29.67
-21.72
-13.86
-6.92
-1.23
3.33
7.10
10.41
13.38
15.88
17.77
18.96
19.58
19.90
20.20
20.60
21.06
21.39
21.38
20.93
20.10
19.03
17.91
16.85
15.83
14.74
13.41
11.68
9.43
6.66
3.51
0.27
-2.72
-5.26
-7.37
-9.38
-11.81
-15.07
-19.36
-24.48
-29.95
-35.06
-39.07
-41.30
-41.26
-38.79
-34.09
-27.73
-20.55
-13.37
-6.78
-1.01
3.98
8.31
11.93
14.58
15.86
15.50
13.52
10.32
6.59
3.06
0.27
-1.58
-2.57
-2.95
-2.94
-2.72
-2.41
-2.18
-2.36
-3.31
-5.33
-8.42
-12.15
-15.79
-18.49
-19.66
-19.09
-17.04
-14.08
-10.98
-8.45
-6.96
-6.66
-7.23
-7.97
-7.96
-6.31
-2.47
3.57
11.36
20.09
28.90
37.07
44.10
49.59
53.24
54.85
54.31
51.72
47.32
41.33
33.78
24.54
13.42
0.46
-13.77
-28.09
-40.94
-50.74
-56.44
-57.71
-55.13
-49.89
-43.44
-37.05
-31.48
-26.97
-23.26
-19.80
-15.92
-11.09
-5.02
2.18
9.93
17.22
22.70
25.02
23.23
17.14
7.62
-3.55
-14.07
-21.82
-25.41
-24.66
-20.41
-14.13
-7.31
-0.96
4.52
9.14
13.04
16.25
18.67
20.29
21.25
21.97
22.95
24.53
26.71
29.06
30.99
31.94
31.72
30.57
29.07
27.89
27.43
27.71
28.33
28.68
28.26
26.91
24.79
22.37
20.07
18.21
16.85
15.81
14.76
13.30
11.04
7.75
3.39
-1.82
-7.42
-12.83
-17.55
-21.30
-24.15
-26.42
-28.55
-30.81
-33.09
-34.83
-35.14
-33.17
-28.47
-21.35
-12.89
-4.63
1.91
5.72
6.56
4.85
1.45
-2.74
-6.91
-10.42
-12.79
-13.71
-13.10
-11.25
-8.70
-6.13
-4.11
-2.89
-2.43
-2.52
-2.93
-3.47
-4.01
-4.45
-4.69
-4.73
-4.64
-4.66
-5.08
-6.17
-8.10
-10.86
-14.17
-17.50
-20.07
-21.04
-19.81
-16.21
-10.68
-4.10
2.48
8.24
12.81
16.30
19.09
21.51
23.71
25.55
26.82
27.33
27.08
26.22
24.96
23.41
21.63
19.62
17.44
15.28
13.46
12.31
12.05
12.60
13.63
14.64
15.16
14.89
13.83
12.20
10.34
8.56
7.03
5.79
4.79
3.94
3.17
2.34
1.28
-0.26
-2.53
-5.67
-9.59
-13.89
-17.90
-20.75
-21.65
-20.11
-16.22
-10.56
-4.15
1.98
7.06
10.82
13.49
15.50
17.29
19.01
20.62
21.92
22.83
23.45
24.10
25.05
26.40
27.91
29.06
29.29
28.21
25.79
22.33
18.21
13.75
9.03
3.88
-2.05
-9.14
-17.70
-27.80
-39.20
-51.23
-62.90
-73.02
-80.53
-84.71
-85.47
-83.24
-78.86
-73.31
-67.44
-61.77
-56.40
-51.12
-45.55
-39.34
-32.43
-25.08
-17.87
-11.40
-6.09
-1.96
1.35
4.43
7.83
11.79
16.13
20.29
23.55
25.33
25.50
24.35
22.50
20.68
19.42
18.95
19.25
20.08
21.20
22.40
23.52
24.45
25.07
25.28
24.95
24.00
22.38
20.08
17.13
13.65
9.81
5.89
2.19
-1.02
-3.54
-5.37
-6.69
-7.86
-9.32
-11.45
-14.41
-18.07
-21.92
-25.24
-27.23
-27.29
-25.15
-21.04
-15.54
-9.47
-3.64
1.37
5.27
8.09
10.10
11.67
13.14
14.73
16.52
18.41
20.27
21.99
23.51
24.82
25.89
26.69
27.20
27.46
27.59
27.79
28.25
29.10
30.33
31.83
33.41
34.85
35.94
36.48
36.34
35.51
34.07
32.31
30.55
29.07
28.05
27.41
26.82
25.67
23.17
18.47
10.97
0.56
-12.23
-26.23
-39.85
-51.50
-59.94
-64.43
-64.88
-61.59
-55.20
-46.48
-36.31
-25.57
-15.11
-5.64
2.36
8.68
13.40
16.84
19.49
21.90
24.54
27.68
31.28
35.09
38.65
41.50
43.39
44.29
44.40
44.00
43.30
42.34
40.98
39.04
36.43
33.19
29.61
26.04
22.83
20.15
17.92
15.84
13.48
10.49
6.64
1.91
-3.57
-9.53
-15.60
-21.34
-26.23
-29.83
-31.83
-32.23
-31.37
-29.81
-28.12
-26.65
-25.43
-24.21
-22.77
-20.98
-19.00
-17.07
-15.40
-14.06
-12.92
-11.86
-10.83
-9.92
-9.33
-9.19
-9.48
-10.07
-10.78
-11.53
-12.43
-13.72
-15.64
-18.40
-22.07
-26.52
-31.47
-36.51
-41.21
-45.23
-48.41
-50.85
-52.84
-54.82
-57.15
-60.00
-63.32
-66.75
-69.77
-71.79
-72.23
-70.62
-66.69
-60.54
-52.70
-44.02
-35.54
-28.20
-22.60
-18.95
-17.10
-16.74
-17.50
-19.05
-21.08
-23.29
-25.42
-27.35
-29.16
-31.00
-32.97
-34.93
-36.45
-36.92
-35.74
-32.50
-27.14
-19.95
-11.64
-3.21
4.22
9.71
12.80
13.69
13.15
12.18
11.58
11.58
11.99
12.38
12.47
12.27
12.04
12.07
12.53
13.45
14.78
16.56
18.80
21.49
24.49
27.56
30.41
32.83
34.73
36.11
36.94
37.06
36.28
34.49
31.95
29.32
27.64
27.94
30.78
35.93
42.28
48.16
51.89
52.33
49.21
43.04
34.86
25.86
17.04
9.05
2.17
-3.63
-8.59
-13.01
-17.08
-20.97
-24.79
-28.69
-32.89
-37.68
-43.22
-49.39
-55.77
-61.60
-66.01
-68.32
-68.13
-65.51
-60.88
-54.84
-47.96
-40.68
-33.25
-25.87
-18.72
-11.99
-5.90
-0.56
3.99
7.83
11.07
13.81
16.13
18.09
19.73
21.08
22.10
22.77
23.02
22.93
22.65
22.38
22.24
22.23
22.14
21.66
20.47
18.39
15.49
12.08
8.62
5.45
2.77
0.47
-1.77
-4.36
-7.61
-11.61
-16.10
-20.48
-24.02
-25.91
-25.61
-22.94
-18.18
-12.06
-5.48
0.71
5.96
10.17
13.52
16.36
18.91
21.22
23.14
24.49
25.19
25.42
25.50
25.77
26.36
27.14
27.79
28.02
27.67
26.90
26.03
25.37
25.02
24.82
24.40
23.39
21.55
18.90
15.70
12.31
9.05
6.10
3.51
1.19
-1.02
-3.30
-5.85
-8.87
-12.53
-16.82
-21.43
-25.73
-28.87
-30.03
-28.71
-24.94
-19.27
-12.63
-5.97
-0.08
4.63
8.13
10.68
12.67
14.49
16.37
18.34
20.24
21.83
22.92
23.49
23.75
23.95
24.28
24.72
25.11
25.21
24.97
24.49
24.01
23.66
23.43
23.08
22.35
20.99
18.93
16.29
13.29
10.19
7.24
4.60
2.25
0.04
-2.32
-5.18
-8.77
-13.09
-17.86
-22.51
-26.38
-28.79
-29.25
-27.56
-23.90
-18.78
-12.95
-7.16
-1.99
2.33
5.84
8.81
11.54
14.16
16.66
18.83
20.48
21.46
21.86
21.89
21.80
21.84
22.06
22.42
22.79
23.03
23.07
22.91
22.54
21.96
21.12
19.97
18.52
16.81
14.97
13.14
11.37
9.65
7.88
5.96
3.82
1.53
-0.87
-3.31
-5.85
-8.65
-11.82
-15.32
-18.88
-21.94
-23.88
-24.20
-22.68
-19.49
-15.10
-10.16
-5.32
-1.10
2.24
4.69
6.48
7.93
9.33
10.80
12.33
13.77
15.03
16.05
16.87
17.55
18.08
18.43
18.51
18.33
17.97
17.56
17.25
17.06
16.94
16.69
16.08
14.90
13.04
10.58
7.77
5.01
2.64
0.84
-0.42
-1.38
-2.37
-3.70
-5.56
-8.01
-10.98
-14.14
-17.00
-18.93
-19.36
-17.99
-14.97
-10.86
-6.41
-2.35
0.89
3.28
5.01
6.34
7.43
8.29
8.86
9.12
9.17
9.19
9.37
9.83
10.54
11.33
11.99
12.37
12.40
12.14
11.72
11.26
10.85
10.47
10.03
9.36
8.31
6.82
4.93
2.86
0.88
-0.78
-2.09
-3.21
-4.51
-6.34
-8.92
-12.12
-15.50
-18.38
-20.09
-20.16
-18.53
-15.49
-11.64
-7.62
-3.93
-0.87
1.51
3.29
4.60
5.58
6.32
6.88
7.28
7.53
7.62
7.52
7.31
7.05
6.87
6.82
6.88
6.94
6.94
6.86
6.79
6.77
6.73
6.53
5.95
4.90
3.45
1.80
0.20
-1.19
-2.34
-3.36
-4.38
-5.53
-6.88
-8.43
-10.14
-11.86
-13.30
-14.09
-13.90
-12.58
-10.27
-7.39
-4.44
-1.88
0.05
1.37
2.24
2.87
3.39
3.83
4.17
4.36
4.42
4.41
4.43
4.60
4.99
5.61
6.37
7.13
7.69
7.87
7.56
6.80
5.69
4.39
3.08
1.85
0.75
-0.25
-1.18
-2.09
-3.06
-4.13
-5.38
-6.83
-8.52
-10.39
-12.39
-14.36
-16.11
-17.34
-17.75
-17.11
-15.36
-12.74
-9.67
-6.62
-3.88
-1.52
0.57
2.53
4.35
5.88
6.89
7.30
7.27
7.11
7.11
7.36
7.75
8.04
8.10
7.91
7.62
7.38
7.24
7.18
7.13
6.97
6.63
6.01
5.06
3.73
2.08
0.29
-1.42
-2.84
-3.93
-4.78
-5.62
-6.69
-8.18
-10.21
-12.74
-15.61
-18.44
-20.69
-21.79
-21.33
-19.22
-15.75
-11.51
-7.17
-3.35
-0.39
1.59
2.73
3.26
3.47
3.59
3.82
4.28
4.91
5.59
6.06
6.16
5.84
5.26
4.67
4.37
4.47
4.89
5.40
5.71
5.62
5.12
4.33
3.36
2.29
1.09
-0.28
-1.79
-3.31
-4.72
-5.89
-6.83
-7.64
-8.55
-9.75
-11.34
-13.27
-15.34
-17.29
-18.80
-19.61
-19.54
-18.50
-16.54
-13.84
-10.75
-7.68
-5.03
-3.01
-1.62
-0.64
0.19
1.10
2.16
3.31
4.43
5.44
6.30
7.00
7.55
7.92
8.12
8.16
8.09
7.98
7.85
7.75
7.65
7.53
7.30
6.83
6.04
4.95
3.73
2.63
1.90
1.63
1.65
1.65
1.33
0.50
-0.78
-2.35
-4.04
-5.78
-7.56
-9.43
-11.34
-13.23
-15.07
-16.86
-18.56
-20.00
-20.83
-20.62
-19.10
-16.30
-12.65
-8.80
-5.36
-2.64
-0.63
0.89
2.17
3.34
4.42
5.36
6.17
6.88
7.55
8.14
8.58
8.78
8.74
8.52
8.26
8.11
8.13
8.32
8.58
8.71
8.48
7.69
6.27
4.34
2.22
0.36
-0.91
-1.48
-1.50
-1.37
-1.49
-2.06
-3.10
-4.42
-5.81
-7.17
-8.52
-10.01
-11.75
-13.79
-16.06
-18.43
-20.64
-22.40
-23.35
-23.14
-21.60
-18.80
-15.10
-11.07
-7.31
-4.27
-2.07
-0.62
0.40
1.28
2.21
3.28
4.41
5.55
6.56
7.39
7.93
8.16
8.07
7.82
7.60
7.61
7.95
8.56
9.25
9.75
9.88
9.56
8.85
7.87
6.75
5.63
4.61
3.75
3.03
2.36
1.56
0.47
-0.98
-2.72
-4.55
-6.26
-7.70
-8.87
-9.92
-11.03
-12.39
-14.06
-15.98
-17.96
-19.66
-20.69
-20.68
-19.45
-17.04
-13.74
-10.02
-6.37
-3.17
-0.60
1.36
2.77
3.79
4.50
5.03
5.51
6.02
6.67
7.44
8.24
8.92
9.32
9.37
9.09
8.67
8.29
8.12
8.19
8.39
8.53
8.41
7.92
7.13
6.16
5.16
4.29
3.59
3.03
2.53
1.96
1.15
-0.01
-1.55
-3.35
-5.18
-6.82
-8.12
-9.09
-9.95
-10.96
-12.38
-14.29
-16.63
-19.11
-21.31
-22.76
-23.04
-21.95
-19.51
-16.06
-12.09
-8.16
-4.74
-2.12
-0.34
0.76
1.49
2.16
3.01
4.10
5.37
6.64
7.77
8.72
9.51
10.23
10.85
11.27
11.38
11.16
10.74
10.34
10.17
10.30
10.59
10.80
10.69
10.13
9.14
7.88
6.53
5.25
4.02
2.76
1.35
-0.28
-2.04
-3.75
-5.21
-6.35
-7.25
-8.14
-9.27
-10.80
-12.77
-15.08
-17.56
-19.94
-21.94
-23.23
-23.50
-22.54
-20.32
-17.08
-13.21
-9.25
-5.67
-2.81
-0.79
0.50
1.36
2.09
2.95
3.98
5.09
6.10
6.90
7.47
7.92
8.35
8.83
9.32
9.78
10.17
10.52
10.92
11.39
11.88
12.19
12.12
11.54
10.50
9.18
7.84
6.62
5.53
4.46
3.24
1.81
0.23
-1.38
-2.90
-4.32
-5.73
-7.24
-8.91
-10.74
-12.70
-14.75
-16.90
-19.13
-21.26
-22.92
-23.61
-22.92
-20.65
-17.02
-12.56
-7.96
-3.83
-0.54
1.82
3.37
4.33
4.88
5.22
5.50
5.87
6.43
7.21
8.16
9.10
9.84
10.24
10.27
10.07
9.78
9.58
9.52
9.59
9.72
9.82
9.76
9.44
8.76
7.66
6.13
4.28
2.29
0.34
-1.43
-2.98
-4.34
-5.64
-7.01
-8.64
-10.66
-13.15
-16.09
-19.21
-22.07
-24.10
-24.74
-23.69
-20.96
-16.93
-12.22
-7.49
-3.25
0.20
2.78
4.60
5.80
6.56
7.04
7.37
7.64
7.94
8.29
8.69
9.11
9.55
9.99
10.47
11.00
11.57
12.16
12.62
12.80
12.55
11.77
10.54
9.06
7.58
6.31
5.33
4.52
3.68
2.59
1.15
-0.58
-2.44
-4.26
-6.00
-7.69
-9.52
-11.59
-14.02
-16.78
-19.74
-22.63
-25.07
-26.56
-26.66
-25.15
-22.07
-17.84
-13.03
-8.23
-3.87
-0.11
3.04
5.70
7.98
9.93
11.58
12.98
14.12
15.06
15.80
16.38
16.82
17.17
17.49
17.83
18.20
18.60
18.97
19.22
19.25
18.95
18.24
17.12
15.64
13.97
12.30
10.75
9.34
7.95
6.46
4.76
2.89
0.94
-0.96
-2.75
-4.45
-6.17
-8.01
-10.11
-12.59
-15.52
-18.82
-22.22
-25.16
-27.01
-27.22
-25.58
-22.30
-17.98
-13.30
-8.86
-5.00
-1.86
0.61
2.47
3.83
4.90
5.92
7.10
8.55
10.17
11.73
12.98
13.82
14.30
14.63
14.99
15.46
15.92
16.23
16.24
15.92
15.36
14.67
13.93
13.17
12.37
11.48
10.45
9.23
7.76
6.00
4.02
1.91
-0.21
-2.28
-4.29
-6.30
-8.34
-10.49
-12.73
-15.10
-17.59
-20.06
-22.24
-23.70
-23.95
-22.65
-19.82
-15.84
-11.37
-7.06
-3.35
-0.38
1.97
3.94
5.71
7.28
8.55
9.40
9.81
9.92
9.94
10.11
10.54
11.14
11.74
12.12
12.22
12.13
12.03
12.05
12.18
12.18
11.75
10.70
9.07
7.16
5.38
4.05
3.22
2.66
2.02
1.04
-0.34
-1.91
-3.39
-4.60
-5.60
-6.66
-8.11
-10.17
-12.82
-15.73
-18.43
-20.39
-21.14
-20.43
-18.25
-14.84
-10.70
-6.43
-2.58
0.53
2.84
4.55
5.89
6.99
7.90
8.54
8.88
8.98
9.00
9.08
9.34
9.83
10.48
11.23
11.96
12.58
12.96
13.05
12.81
12.30
11.59
10.75
9.82
8.78
7.61
6.32
4.92
3.45
1.90
0.28
-1.34
-2.82
-4.05
-5.06
-6.06
-7.40
-9.40
-12.16
-15.39
-18.51
-20.80
-21.68
-20.90
-18.60
-15.28
-11.52
-7.87
-4.67
-2.03
0.19
2.17
4.07
5.94
7.67
9.11
10.05
10.40
10.18
9.57
8.82
8.20
7.88
7.91
8.20
8.59
8.95
9.24
9.47
9.69
9.87
9.89
9.59
8.88
7.78
6.45
5.08
3.86
2.88
2.11
1.42
0.69
-0.17
-1.18
-2.26
-3.31
-4.33
-5.42
-6.73
-8.44
-10.54
-12.79
-14.79
-16.02
-16.11
-14.89
-12.51
-9.30
-5.68
-2.09
1.10
3.59
5.22
6.02
6.19
6.07
6.01
6.21
6.63
7.08
7.29
7.16
6.78
6.37
6.14
6.12
6.17
6.05
5.65
4.97
4.24
3.68
3.39
3.32
3.23
2.93
2.34
1.57
0.81
0.20
-0.28
-0.76
-1.40
-2.26
-3.22
-4.11
-4.83
-5.46
-6.26
-7.53
-9.51
-12.11
-15.02
-17.69
-19.56
-20.24
-19.55
-17.64
-14.91
-11.84
-8.83
-6.10
-3.72
-1.62
0.22
1.80
3.04
3.94
4.62
5.25
5.99
6.87
7.79
8.61
9.22
9.65
9.95
10.22
10.48
10.69
10.85
10.98
11.14
11.33
11.41
11.18
10.46
9.22
7.69
6.20
5.07
4.41
4.05
3.64
2.82
1.41
-0.52
-2.70
-4.79
-6.54
-7.89
-8.92
-9.82
-10.78
-11.96
-13.48
-15.39
-17.65
-20.07
-22.30
-23.82
-24.20
-23.14
-20.68
-17.17
-13.19
-9.35
-6.09
-3.61
-1.85
-0.58
0.50
1.64
2.96
4.44
5.90
7.14
7.99
8.37
8.32
8.00
7.61
7.35
7.36
7.66
8.16
8.69
9.09
9.21
8.98
8.38
7.46
6.33
5.14
4.06
3.21
2.59
2.04
1.37
0.40
-0.87
-2.28
-3.58
-4.63
-5.43
-6.18
-7.11
-8.28
-9.65
-11.06
-12.41
-13.72
-15.00
-16.17
-16.94
-16.91
-15.80
-13.60
-10.63
-7.41
-4.45
-1.99
-0.04
1.57
3.02
4.32
5.41
6.18
6.56
6.62
6.44
6.17
5.93
5.85
5.95
6.23
6.58
6.86
6.98
6.91
6.78
6.71
6.77
6.84
6.74
6.28
5.36
4.13
2.84
1.74
0.95
0.45
0.10
-0.27
-0.80
-1.56
-2.59
-3.82
-5.19
-6.56
-7.81
-8.90
-9.89
-10.93
-12.21
-13.86
-15.83
-17.92
-19.76
-20.90
-20.94
-19.60
-16.92
-13.18
-8.97
-4.91
-1.51
0.98
2.63
3.73
4.64
5.55
6.45
7.18
7.57
7.55
7.28
7.03
7.03
7.34
7.83
8.20
8.27
8.02
7.70
7.63
8.05
8.94
9.99
10.78
10.95
10.41
9.28
7.81
6.26
4.81
3.50
2.34
1.29
0.29
-0.73
-1.88
-3.21
-4.70
-6.21
-7.54
-8.58
-9.37
-10.17
-11.22
-12.74
-14.73
-16.95
-19.06
-20.64
-21.38
-21.10
-19.82
-17.69
-15.01
-12.12
-9.34
-6.88
-4.76
-2.90
-1.21
0.37
1.80
2.99
3.88
4.54
5.10
5.68
6.39
7.17
7.97
8.70
9.30
9.74
9.98
10.04
9.97
9.92
9.99
10.23
10.52
10.61
10.23
9.27
7.82
6.21
4.76
3.69
2.99
2.50
1.98
1.28
0.36
-0.79
-2.17
-3.78
-5.62
-7.56
-9.39
-10.93
-12.07
-12.90
-13.76
-15.01
-16.86
-19.24
-21.71
-23.62
-24.37
-23.58
-21.32
-17.99
-14.15
-10.36
-7.04
-4.35
-2.33
-0.87
0.19
1.00
1.70
2.37
3.00
3.57
4.07
4.53
5.01
5.53
6.02
6.39
6.60
6.74
7.04
7.72
8.83
10.15
11.26
11.73
11.36
10.26
8.83
7.49
6.54
5.98
5.57
4.98
3.94
2.35
0.34
-1.80
-3.77
-5.32
-6.40
-7.13
-7.76
-8.55
-9.78
-11.63
-14.19
-17.35
-20.78
-23.94
-26.08
-26.54
-24.96
-21.47
-16.75
-11.75
-7.40
-4.21
-2.24
-1.12
-0.29
0.66
1.94
3.47
5.05
6.44
7.52
8.27
8.77
9.12
9.43
9.73
10.10
10.55
11.07
11.60
12.02
12.20
12.03
11.45
10.47
9.17
7.64
6.03
4.45
2.99
1.73
0.59
-0.54
-1.87
-3.55
-5.58
-7.83
-10.04
-12.02
-13.76
-15.46
-17.38
-19.66
-22.16
-24.37
-25.64
-25.37
-23.31
-19.67
-15.05
-10.16
-5.63
-1.82
1.22
3.55
5.30
6.50
7.18
7.37
7.19
6.85
6.58
6.59
7.00
7.79
8.84
9.91
10.73
11.12
11.03
10.57
10.00
9.59
9.49
9.67
9.88
9.88
9.44
8.53
7.22
5.69
4.08
2.46
0.82
-0.90
-2.75
-4.79
-7.13
-9.86
-13.05
-16.54
-19.98
-22.77
-24.30
-24.15
-22.20
-18.74
-14.32
-9.56
-5.02
-1.08
2.07
4.45
6.23
7.66
8.99
10.33
11.66
12.85
13.78
14.44
14.96
15.50
16.14
16.85
17.46
17.84
17.94
17.83
17.65
17.48
17.28
16.91
16.19
14.97
13.26
11.13
8.72
6.19
3.73
1.46
-0.53
-2.26
-3.86
-5.57
-7.65
-10.36
-13.78
-17.77
-21.91
-25.54
-27.95
-28.53
-27.04
-23.64
-18.93
-13.73
-8.79
-4.62
-1.32
1.30
3.62
5.91
8.29
10.64
12.72
14.30
15.34
15.94
16.32
16.69
17.12
17.55
17.92
18.18
18.39
18.65
18.99
19.34
19.51
19.28
18.51
17.19
15.42
13.35
11.11
8.83
6.61
4.53
2.67
1.06
-0.36
-1.74
-3.33
-5.39
-8.10
-11.50
-15.41
-19.44
-23.05
-25.66
-26.78
-26.14
-23.73
-19.88
-15.14
-10.15
-5.53
-1.66
1.30
3.49
5.20
6.78
8.49
10.46
12.66
14.92
17.05
18.86
20.22
21.09
21.55
21.78
21.98
22.27
22.68
23.08
23.29
23.15
22.63
21.75
20.63
19.31
17.81
16.18
14.54
13.08
11.95
11.07
10.15
8.77
6.66
3.88
0.83
-1.98
-4.21
-5.88
-7.37
-9.15
-11.59
-14.71
-18.25
-21.72
-24.54
-26.15
-26.12
-24.21
-20.54
-15.62
-10.27
-5.40
-1.69
0.65
1.92
2.72
3.71
5.28
7.43
9.86
12.17
14.00
15.23
15.91
16.20
16.24
16.07
15.73
15.25
14.74
14.40
14.46
14.97
15.85
16.79
17.42
17.46
16.81
15.62
14.17
12.75
11.54
10.54
9.61
8.55
7.19
5.50
3.60
1.69
-0.03
-1.49
-2.77
-4.04
-5.51
-7.33
-9.57
-12.21
-15.19
-18.37
-21.49
-24.13
-25.82
-26.11
-24.80
-22.07
-18.36
-14.31
-10.46
-7.15
-4.42
-2.16
-0.22
1.54
3.17
4.67
6.07
7.36
8.56
9.66
10.64
11.43
12.02
12.39
12.62
12.83
13.08
13.42
13.76
13.95
13.84
13.36
12.54
11.50
10.40
9.36
8.39
7.45
6.45
5.31
4.01
2.56
1.02
-0.57
-2.14
-3.62
-4.96
-6.11
-7.13
-8.16
-9.45
-11.21
-13.55
-16.37
-19.38
-22.27
-24.81
-26.94
-28.74
-30.25
-31.37
-31.85
-31.33
-29.54
-26.44
-22.31
-17.74
-13.58
-10.70
-9.89
-11.58
-15.73
-21.75
-28.64
-35.20
-40.27
-42.93
-42.66
-39.42
-33.67
-26.31
-18.46
-11.22
-5.32
-1.02
1.84
3.68
4.91
5.84
6.65
7.41
8.20
9.06
10.01
10.96
11.77
12.32
12.56
12.61
12.65
12.88
13.38
14.09
14.84
15.44
15.76
15.79
15.66
15.54
15.59
15.87
16.34
16.82
17.13
17.05
16.46
15.36
13.88
12.33
11.07
10.50
10.83
12.09
14.08
16.42
18.66
20.36
21.21
21.17
20.44
19.40
18.45
17.81
17.44
17.07
16.30
14.87
12.73
10.13
7.40
4.86
2.67
0.87
-0.57
-1.70
-2.55
-3.19
-3.72
-4.31
-5.10
-6.14
-7.31
-8.41
-9.13
-9.25
-8.70
-7.66
-6.42
-5.40
-4.82
-4.68
-4.68
-4.38
-3.46
-2.05
-0.69
-0.32
-1.92
-6.15
-13.11
-22.20
-32.18
-41.36
-47.96
-50.44
-47.96
-40.54
-29.19
-15.63
-1.89
10.16
19.20
24.73
26.94
26.66
24.96
22.90
21.30
20.56
20.76
21.67
22.92
24.12
24.95
25.21
24.87
24.08
23.14
22.43
22.24
22.58
23.16
23.44
22.84
21.02
18.01
14.26
10.46
7.28
5.10
3.87
3.17
2.41
1.09
-1.06
-4.01
-7.46
-10.96
-13.99
-16.02
-16.73
-16.15
-14.81
-13.79
-14.52
-18.31
-25.86
-36.73
-49.23
-60.75
-68.43
-70.11
-64.96
-53.77
-38.56
-21.95
-6.32
6.63
16.01
21.54
23.36
21.82
17.60
11.72
5.43
-0.07
-3.96
-6.05
-6.64
-6.29
-5.46
-4.36
-2.94
-1.06
1.37
4.32
7.70
11.38
15.22
19.03
22.60
25.63
27.94
29.47
30.39
30.98
31.56
32.39
33.64
35.41
37.69
40.35
43.09
45.39
46.66
46.38
44.35
40.77
36.29
31.74
27.86
25.11
23.49
22.71
22.29
21.81
21.01
19.80
18.26
16.48
14.57
12.58
10.54
8.45
