1520258542.00
64.000000
-0.00
-0.00
-0.00
-0.00
-0.00
-0.00
-0.00
-0.00
-0.00
-0.00
0.00
0.01
0.01
-0.00
-0.03
-0.05
-0.05
0.00
0.13
0.36
0.66
1.01
1.37
1.72
2.06
2.40
2.79
3.24
3.80
4.42
5.06
5.66
6.20
6.68
7.15
7.68
8.31
9.14
10.09
11.04
11.88
12.56
13.14
13.76
14.65
15.96
17.91
20.32
22.90
25.38
27.58
29.57
31.68
34.32
37.81
42.54
48.15
54.10
59.83
64.97
69.58
74.14
79.34
85.71
93.76
103.00
112.62
121.73
129.77
136.75
143.30
150.75
157.77
166.64
177.95
191.79
206.97
220.57
228.25
225.36
208.53
176.87
132.76
80.05
23.07
-34.94
-92.44
-149.16
-205.23
-260.37
-313.74
-363.88
-409.84
-450.91
-486.50
-515.74
-537.23
-549.21
-549.95
-538.34
-514.16
-478.60
-433.78
-382.32
-326.85
-269.62
-212.36
-156.33
-102.57
-51.93
-5.39
36.16
72.07
102.07
126.29
145.24
159.64
170.18
177.49
181.97
183.90
183.52
181.09
176.97
171.56
165.27
158.45
151.35
144.10
136.78
129.44
122.11
114.86
107.76
100.88
94.28
88.00
82.03
76.41
71.12
66.20
61.64
57.45
53.65
50.22
47.16
44.47
42.13
40.13
38.48
37.18
36.24
35.64
35.37
35.41
35.71
36.18
36.72
37.18
37.39
37.18
36.38
34.82
32.42
29.12
24.97
20.01
14.43
8.44
2.31
-3.68
-9.28
-14.24
-18.39
-21.60
-23.83
-25.07
-25.42
-24.97
-23.88
-22.28
-20.32
-18.13
-15.79
-13.39
-10.94
-8.51
-6.11
-3.74
-1.41
0.92
3.26
5.64
8.09
10.66
13.31
16.02
18.81
21.66
24.61
27.66
30.88
34.30
38.01
41.93
46.02
50.27
54.68
59.27
64.04
69.04
74.32
79.97
85.82
91.78
97.77
103.77
109.74
115.71
121.67
127.66
133.74
139.62
145.07
149.88
153.80
156.54
157.70
156.77
152.99
147.77
141.61
134.83
127.66
120.24
112.75
105.27
97.95
90.91
84.32
78.03
71.97
66.12
60.47
55.03
49.84
44.94
40.43
36.38
32.66
29.17
25.88
22.77
19.87
17.19
14.76
12.64
10.82
9.16
7.56
5.95
4.31
2.67
1.10
-0.34
-1.59
-2.65
-3.58
-4.45
-5.29
-6.08
-6.77
-7.31
-7.69
-7.94
-8.20
-8.66
-9.47
-10.71
-12.32
-14.10
-15.80
-17.23
-18.38
-19.45
-20.76
-22.66
-25.31
-28.62
-32.21
-35.62
-38.55
-41.04
-43.55
-46.84
-51.59
-58.12
-66.17
-74.93
-83.40
-90.85
-97.19
-103.09
-109.72
-118.22
-129.14
-142.15
-156.17
-169.88
-182.28
-193.18
-203.21
-213.59
-225.83
-241.45
-261.76
-287.25
-316.68
-346.46
-370.74
-382.88
-377.72
-353.86
-314.53
-266.53
-217.69
-174.10
-138.54
-110.75
-88.94
-71.50
-57.91
-48.39
-43.05
-41.12
-40.89
-40.37
-38.10
-33.66
-27.68
-21.41
-16.11
-12.50
-10.62
-9.97
-9.87
-9.87
-9.97
-10.61
-12.35
-15.59
-20.31
-26.30
-33.38
-41.67
-51.53
-63.01
-75.32
-86.33
-92.89
-91.60
-80.16
-58.32
-28.22
6.13
40.18
69.97
93.14
109.02
118.25
122.04
121.61
117.97
111.88
104.00
95.00
85.54
76.15
67.14
58.70
50.92
43.97
38.09
33.52
30.26
27.93
25.73
22.70
17.99
11.26
2.84
-6.41
-15.42
-23.42
-30.27
-36.58
-43.49
-52.29
-63.80
-77.80
-92.71
-105.65
-113.03
-111.53
-99.29
-76.54
-45.81
-11.17
22.88
52.60
75.73
91.56
100.61
103.97
102.94
98.70
92.30
84.56
76.19
67.69
59.37
51.44
44.04
37.35
31.55
26.78
23.01
20.02
17.36
14.46
10.77
5.95
-0.05
-6.99
-14.42
-21.85
-29.01
-36.01
-43.33
-51.80
-62.21
-74.84
-88.86
-102.15
-111.46
-113.20
-104.69
-85.17
-56.39
-22.19
12.62
43.70
68.26
85.34
95.51
99.97
99.95
96.34
89.82
81.09
70.99
60.45
50.36
41.36
33.86
28.02
23.81
21.02
19.25
17.87
16.20
13.63
9.74
4.36
-2.46
-10.45
-19.30
-28.60
-38.14
-48.04
-58.86
-71.40
-86.17
-102.64
-118.74
-131.04
-135.55
-129.09
-110.52
-81.33
-45.29
-7.33
27.90
57.05
78.58
92.50
99.84
101.87
99.80
94.52
86.80
77.34
66.95
56.49
46.85
38.71
32.47
28.16
25.39
23.57
21.92
19.68
16.25
11.24
4.59
-3.49
-12.54
-22.05
-31.64
-41.26
-51.25
-62.35
-75.39
-90.65
-107.34
-123.08
-134.22
-136.73
-127.51
-105.62
-72.85
-33.32
7.77
45.56
76.66
99.57
114.38
122.09
123.98
121.35
115.27
106.75
96.66
85.81
74.88
64.48
55.20
47.46
41.45
37.00
33.51
30.07
25.81
20.09
12.75
4.06
-5.54
-15.63
-26.07
-37.03
-48.91
-62.26
-77.63
-95.37
-115.12
-135.43
-153.52
-165.60
-167.83
-157.59
-134.59
-101.22
-61.95
-22.09
13.76
42.62
63.36
76.25
82.29
82.64
78.40
70.68
60.67
49.66
38.90
29.36
21.57
15.62
11.18
7.85
5.14
2.69
0.25
-2.45
-5.66
-9.61
-14.44
-20.10
-26.38
-33.06
-40.05
-47.59
-56.27
-66.73
-79.18
-92.82
-105.63
-114.50
-116.01
-107.53
-88.20
-59.39
-24.42
12.38
46.90
76.15
98.65
114.14
123.03
125.90
123.25
115.72
104.35
90.72
76.79
64.45
55.05
49.05
46.01
44.85
44.28
43.17
40.76
36.76
31.25
24.53
16.99
8.95
0.55
-8.25
-17.74
-28.39
-40.70
-54.92
-70.63
-86.41
-99.68
-107.15
-105.66
-93.26
-70.06
-38.44
-2.53
32.94
63.81
87.34
102.51
109.58
109.61
103.98
94.09
81.48
67.82
54.92
44.50
37.75
34.99
35.49
37.74
39.87
40.26
38.01
33.06
26.03
17.80
9.15
0.54
-8.00
-16.69
-25.92
-36.21
-48.10
-61.99
-77.77
-94.36
-109.51
-119.99
-122.36
-113.99
-94.11
-64.22
-27.79
10.66
46.73
77.07
99.82
114.38
121.17
121.10
115.40
105.60
93.42
80.70
69.08
59.73
53.16
49.25
47.37
46.69
46.33
45.51
43.51
39.84
34.20
26.59
17.39
7.27
-3.03
-12.96
-22.25
-31.18
-40.36
-50.70
-62.99
-77.42
-93.22
-108.36
-119.73
-123.86
-117.87
-100.49
-72.70
-37.54
0.74
37.74
70.03
95.55
113.55
124.21
128.15
126.29
119.80
110.24
99.36
88.89
80.11
73.64
69.22
66.18
63.67
61.13
58.43
55.74
53.24
50.84
48.03
44.01
38.00
29.64
19.20
7.58
-4.02
-14.54
-23.47
-31.02
-38.10
-45.98
-55.90
-68.62
-83.89
-100.19
-114.82
-124.43
-125.77
-116.83
-97.43
-69.41
-36.13
-1.58
30.61
57.79
78.62
92.78
100.65
103.02
100.82
95.15
87.31
78.72
70.73
64.35
60.03
57.53
56.15
55.04
53.64
51.81
49.76
47.81
45.98
43.95
40.97
36.24
29.27
20.15
9.57
-1.34
-11.46
-20.09
-27.17
-33.38
-39.85
-47.73
-57.77
-69.80
-82.67
-94.25
-101.88
-103.01
-95.95
-80.48
-57.99
-31.16
-3.28
22.62
44.33
60.71
71.55
77.22
78.33
75.62
69.95
62.37
54.11
46.37
40.12
35.89
33.67
33.02
33.26
33.69
33.76
33.14
31.80
29.84
27.37
24.36
20.62
15.80
9.63
2.11
-6.44
-15.37
-23.94
-31.56
-37.93
-43.16
-47.65
-52.07
-57.14
-63.50
-71.34
-80.14
-88.58
-94.68
-96.28
-91.67
-80.15
-62.33
-40.02
-15.77
7.73
28.22
44.16
54.92
60.54
61.55
58.69
52.85
45.00
36.23
27.67
20.39
15.19
12.40
11.78
12.69
14.30
15.87
16.95
17.39
17.25
16.59
15.35
13.40
10.55
6.67
1.87
-3.62
-9.46
-15.35
-21.10
-26.68
-32.12
-37.51
-42.89
-48.33
-53.96
-60.00
-66.69
-74.03
-81.50
-87.84
-91.23
-89.69
-81.81
-67.43
-47.81
-25.41
-3.15
16.42
31.67
42.02
47.67
49.20
47.31
42.76
36.45
29.49
23.01
17.97
14.87
13.70
14.02
15.15
16.47
17.46
17.87
17.61
16.71
15.24
13.31
10.96
8.19
4.88
0.85
-4.00
-9.68
-16.01
-22.63
-29.07
-34.95
-40.08
-44.45
-48.26
-51.78
-55.35
-59.38
-64.20
-70.01
-76.48
-82.53
-86.33
-85.75
-79.08
-65.81
-46.97
-24.89
-2.53
17.46
33.29
44.19
50.17
51.69
49.42
44.16
36.95
29.05
21.70
15.90
12.19
10.52
10.50
11.51
13.03
14.72
16.38
17.78
18.67
18.68
17.48
14.93
11.16
6.49
1.38
-3.88
-9.24
-14.80
-20.72
-26.99
-33.31
-39.20
-44.21
-48.19
-51.39
-54.41
-58.06
-63.08
-69.83
-78.04
-86.76
-94.30
-98.55
-97.49
-89.72
-75.03
-54.54
-30.53
-5.88
16.64
34.94
48.00
55.70
58.64
57.75
53.93
48.06
40.93
33.26
25.87
19.53
14.86
12.21
11.58
12.53
14.41
16.47
18.11
19.00
19.04
18.28
16.79
14.56
11.50
7.63
3.01
-2.19
-7.80
-13.72
-19.89
-26.27
-32.67
-38.83
-44.53
-49.79
-54.96
-60.83
-68.23
-77.59
-88.34
-98.79
-106.33
-108.11
-102.03
-87.41
-65.34
-38.39
-9.90
16.93
39.64
56.83
68.05
73.57
74.08
70.52
63.95
55.53
46.43
37.73
30.31
24.80
21.53
20.50
21.34
23.42
25.94
28.11
29.37
29.53
28.66
27.02
24.76
21.83
17.95
12.78
6.22
-1.52
-9.85
-18.04
-25.49
-31.91
-37.40
-42.43
-47.57
-53.51
-60.81
-69.83
-80.42
-91.65
-101.63
-107.76
-107.24
-98.07
-79.83
-54.03
-23.76
7.12
35.04
57.52
73.45
82.90
86.62
85.60
80.78
73.11
63.63
53.51
44.04
36.38
31.32
29.06
29.20
30.91
33.26
35.48
37.24
38.53
39.49
40.12
40.12
38.90
35.82
30.53
23.19
14.49
5.43
-3.10
-10.66
-17.39
-23.82
-30.65
-38.53
-47.92
-59.00
-71.56
-84.82
-97.19
-106.29
-109.46
-104.42
-90.10
-67.18
-38.04
-6.16
24.75
51.60
72.37
86.21
93.20
94.05
89.80
81.79
71.44
60.28
49.75
41.00
34.61
30.63
28.58
27.84
27.90
28.47
29.46
30.69
31.66
31.60
29.59
25.05
17.91
8.76
-1.45
-11.66
-21.10
-29.48
-37.04
-44.50
-52.85
-63.03
-75.46
-89.60
-103.67
-114.88
-119.99
-116.32
-102.62
-79.62
-49.84
-16.94
15.18
43.26
65.08
79.65
87.02
88.01
83.89
76.17
66.39
55.96
46.06
37.53
30.86
26.13
23.17
21.60
20.98
20.89
20.99
20.89
20.13
18.12
14.27
8.21
0.01
-9.76
-20.18
-30.36
-39.80
-48.65
-57.67
-67.88
-80.06
-94.21
-109.21
-122.77
-131.83
-133.33
-125.10
-106.69
-79.58
-46.98
-12.91
18.74
45.07
64.53
76.82
82.56
82.83
78.89
72.07
63.67
54.92
46.82
40.05
34.94
31.58
29.85
29.53
30.24
31.42
32.31
32.06
30.01
25.87
19.78
12.24
3.87
-4.86
-13.74
-22.91
-32.74
-43.77
-56.55
-71.31
-87.54
-103.64
-116.94
-124.06
-121.95
-108.95
-85.48
-54.17
-19.09
15.31
45.35
68.75
84.74
93.75
96.81
95.16
89.97
82.30
73.15
63.55
54.52
47.02
41.71
38.84
38.17
38.99
40.32
41.08
40.40
37.78
33.04
26.43
18.39
9.48
0.22
-9.04
-18.31
-27.98
-38.77
-51.54
-66.70
-83.80
-101.02
-115.38
-123.29
-121.60
-108.70
-85.08
-53.43
-17.81
17.39
48.46
73.10
90.45
100.79
104.98
104.20
99.63
92.56
84.31
76.15
69.08
63.61
59.74
57.07
55.12
53.47
51.94
50.42
48.77
46.66
43.47
38.54
31.32
21.69
10.06
-2.61
-15.13
-26.44
-36.08
-44.50
-53.00
-63.33
-76.88
-93.84
-112.60
-129.85
-141.26
-142.85
-132.25
-109.52
-77.23
-39.71
-1.73
32.65
60.90
82.06
96.34
104.49
107.32
105.58
100.11
92.10
83.13
74.92
68.91
65.82
65.42
66.72
68.36
69.17
68.54
66.45
63.33
59.68
55.80
51.58
46.56
40.12
31.81
21.54
9.78
-2.63
-14.69
-25.63
-35.16
-43.58
-51.64
-60.36
-70.73
-83.44
-98.49
-114.91
-130.60
-142.48
-147.17
-141.88
-125.46
-98.90
-65.22
-28.62
6.62
37.24
61.46
78.95
90.28
96.37
98.13
96.34
91.82
85.58
78.82
72.77
68.35
65.93
65.20
65.37
65.52
64.93
63.30
60.74
57.56
53.94
49.79
44.73
38.26
30.06
20.18
9.10
-2.36
-13.38
-23.33
-32.03
-39.83
-47.39
-55.55
-65.12
-76.67
-90.28
-105.20
-119.66
-130.86
-135.58
-131.00
-115.78
-90.71
-58.67
-23.76
9.85
38.97
61.99
78.56
89.12
94.34
94.85
91.38
84.94
76.88
68.76
62.01
57.57
55.64
55.73
56.85
57.90
58.04
56.86
54.43
51.14
47.39
43.37
38.94
33.69
27.13
19.02
9.44
-1.03
-11.56
-21.31
-29.76
-36.87
-43.18
-49.54
-56.96
-66.25
-77.79
-91.25
-105.34
-117.86
-125.90
-126.50
-117.61
-98.84
-71.93
-40.26
-7.93
21.35
45.19
62.68
73.94
79.62
80.43
77.09
70.56
62.17
53.56
46.35
41.69
39.95
40.72
43.10
45.99
48.45
49.91
50.20
49.42
47.76
45.33
42.08
37.81
32.32
25.49
17.50
8.66
-0.53
-9.62
-18.22
-26.13
-33.26
-39.79
-46.06
-52.61
-60.07
-69.04
-79.73
-91.60
-103.09
-111.76
-114.68
-109.37
-94.74
-71.64
-42.77
-11.96
16.94
41.10
59.10
70.82
76.91
78.28
75.84
70.48
63.21
55.12
47.41
41.12
36.96
35.20
35.65
37.64
40.22
42.38
43.33
42.74
40.74
37.75
34.17
30.19
25.66
20.25
13.75
6.21
-2.02
-10.37
-18.36
-25.69
-32.39
-38.73
-45.15
-52.06
-59.85
-68.85
-79.19
-90.51
-101.72
-110.89
-115.41
-112.70
-101.06
-80.57
-53.18
-22.36
7.97
34.47
55.08
69.16
77.01
79.41
77.15
70.95
61.58
50.11
37.89
26.45
17.14
10.85
7.68
7.06
7.91
9.05
9.61
9.24
8.09
6.61
5.14
3.66
1.81
-1.02
-5.30
-11.10
-18.00
-25.25
-32.08
-37.96
-42.84
-47.05
-51.25
-56.18
-62.56
-70.82
-80.82
-91.61
-101.27
-107.13
-106.49
-97.45
-79.73
-54.93
-26.17
2.93
29.16
50.35
65.54
74.65
78.07
76.43
70.62
61.79
51.47
41.34
32.79
26.72
23.26
21.92
21.88
22.43
23.12
23.85
24.65
25.38
25.57
24.49
21.46
16.18
8.93
0.54
-7.98
-15.77
-22.48
-28.33
-34.11
-40.92
-49.84
-61.51
-75.68
-90.83
-104.25
-112.54
-112.56
-102.51
-82.66
-55.38
-24.45
6.03
32.65
53.37
67.44
75.17
77.29
74.84
68.89
60.67
51.49
42.61
35.01
29.24
25.35
23.03
21.84
21.37
21.35
21.66
22.10
22.29
21.68
19.62
15.65
9.70
2.24
-5.92
-13.88
-21.08
-27.51
-33.81
-41.05
-50.34
-62.32
-76.69
-91.90
-105.30
-113.60
-113.81
-104.17
-84.87
-58.11
-27.50
2.86
29.50
50.23
64.21
71.73
73.65
71.05
64.99
56.60
47.07
37.63
29.44
23.27
19.44
17.74
17.67
18.55
19.74
20.68
20.82
19.68
16.82
12.06
5.57
-2.12
-10.28
-18.26
-25.69
-32.67
-39.66
-47.41
-56.62
-67.69
-80.29
-93.09
-103.73
-109.24
-106.84
-94.93
-73.86
-46.00
-15.18
14.41
39.34
57.68
68.98
73.91
73.66
69.47
62.50
53.85
44.63
36.03
29.00
24.18
21.68
21.18
21.98
23.36
24.62
25.18
24.65
22.74
19.31
14.40
8.26
1.33
-5.88
-12.99
-19.87
-26.80
-34.42
-43.57
-54.94
-68.56
-83.38
-97.20
-106.92
-109.40
-102.34
-85.26
-59.71
-28.95
2.84
31.76
54.95
71.02
79.94
82.59
80.29
74.43
66.33
57.14
47.98
39.85
33.62
29.79
28.43
29.09
30.98
33.08
34.39
34.18
32.01
27.85
22.04
15.13
7.77
0.42
-6.71
-13.82
-21.38
-30.08
-40.55
-53.09
-67.32
-82.02
-95.01
-103.48
-104.71
-96.80
-79.50
-54.41
-24.68
5.80
33.40
55.54
70.98
79.72
82.57
80.73
75.51
68.13
59.81
51.63
44.56
39.22
35.85
34.31
34.13
34.65
35.09
34.67
32.76
28.94
23.15
15.62
6.93
-2.27
-11.37
-20.03
-28.18
-36.13
-44.50
-54.14
-65.79
-79.70
-95.04
-109.67
-120.40
-123.74
-117.07
-99.67
-73.13
-41.07
-7.95
22.08
46.22
63.30
73.55
77.96
77.71
73.96
67.73
60.08
52.10
44.92
39.47
36.25
35.23
35.91
37.45
38.94
39.55
38.68
36.00
31.46
25.23
17.67
9.30
0.62
-7.95
-16.26
-24.60
-33.58
-44.02
-56.62
-71.35
-87.18
-101.81
-112.10
-114.82
-107.70
-90.28
-64.20
-32.85
-0.46
29.04
52.87
69.75
79.80
84.00
83.72
80.37
75.16
69.14
63.15
57.86
53.72
50.91
49.37
48.80
48.75
48.74
48.27
46.87
44.12
39.62
33.13
24.60
14.38
3.15
-8.22
-18.96
-28.71
-37.74
-46.91
-57.39
-70.09
-85.06
-101.00
-115.27
-124.41
-125.15
-115.50
-95.53
-67.45
-35.01
-2.31
27.18
51.27
69.05
80.52
86.22
86.90
83.55
77.45
70.05
62.89
57.14
53.45
51.81
51.67
52.24
52.80
52.92
52.39
51.18
49.16
46.01
41.24
34.36
25.23
14.23
2.30
-9.43
-20.00
-29.05
-36.87
-44.46
-53.09
-63.91
-77.43
-93.06
-109.00
-122.30
-129.50
-127.59
-115.04
-92.42
-62.40
-28.95
3.67
32.14
54.56
70.44
80.18
84.60
84.55
80.86
74.56
66.94
59.49
53.55
49.95
48.70
49.09
50.03
50.53
50.04
48.71
47.00
45.34
43.72
41.51
37.75
31.57
22.67
11.56
-0.60
-12.41
-22.83
-31.47
-38.71
-45.57
-53.28
-62.94
-75.06
-89.19
-103.77
-116.18
-123.22
-122.04
-111.01
-90.41
-62.47
-30.82
0.61
28.54
50.96
67.18
77.38
82.21
82.45
78.94
72.68
64.91
57.09
50.61
46.43
44.86
45.42
47.10
48.63
49.03
47.86
45.33
42.07
38.62
35.20
31.41
26.57
20.02
11.56
1.61
-8.97
-19.17
-28.22
-35.89
-42.48
-48.70
-55.50
-63.82
-74.33
-87.12
-101.28
-114.73
-124.52
-127.42
-121.05
-104.70
-79.79
-49.45
-17.69
11.86
36.70
55.66
68.66
76.20
78.90
77.40
72.57
65.57
57.92
51.20
46.60
44.68
45.15
47.06
49.16
50.47
50.43
49.08
46.84
44.13
41.21
37.88
33.71
28.17
20.95
12.18
2.39
-7.64
-17.15
-25.70
-33.28
-40.33
-47.48
-55.49
-65.01
-76.39
-89.53
-103.61
-116.93
-126.94
-130.68
-125.67
-110.82
-87.08
-57.29
-25.48
4.39
29.44
48.38
61.31
69.16
72.89
73.25
70.73
65.86
59.49
52.82
47.08
43.23
41.62
41.90
43.25
44.69
45.43
45.11
43.75
41.64
39.03
36.04
32.47
27.99
22.23
14.97
6.33
-3.26
-13.19
-22.82
-31.74
-39.87
-47.43
-54.88
-62.85
-71.99
-82.83
-95.48
-109.21
-122.20
-131.64
-134.35
-127.77
-111.01
-85.30
-53.82
-20.66
10.30
36.33
56.16
69.75
77.73
80.90
80.07
76.03
69.79
62.49
55.40
49.61
45.88
44.43
44.88
46.44
48.04
48.79
48.15
46.12
43.02
39.32
35.29
30.82
25.52
18.97
10.98
1.70
-8.38
-18.65
-28.51
-37.58
-45.73
-53.05
-59.93
-67.03
-75.21
-85.29
-97.56
-111.27
-124.34
-133.67
-135.88
-128.53
-110.98
-84.83
-53.43
-20.83
9.34
34.62
53.99
67.50
75.68
79.20
78.67
74.76
68.41
60.86
53.55
47.75
44.28
43.26
44.21
46.21
48.31
49.78
50.25
49.69
48.26
46.10
43.25
39.57
34.80
28.73
21.24
12.48
2.87
-7.02
-16.61
-25.54
-33.72
-41.38
-49.08
-57.51
-67.42
-79.34
-93.11
-107.64
-120.75
-129.38
-130.45
-121.86
-103.28
-76.57
-45.13
-13.00
16.32
40.58
58.84
71.17
78.02
79.95
77.55
71.69
63.66
55.10
47.62
42.36
39.66
39.05
39.58
40.24
40.36
39.80
38.84
37.89
37.14
36.39
34.96
32.03
26.88
19.29
9.64
-1.10
-11.72
-21.19
-28.98
-35.30
-40.95
-47.10
-54.90
-65.08
-77.66
-91.60
-104.79
-114.35
-117.23
-111.20
-95.55
-71.57
-42.22
-11.32
17.51
41.67
59.88
71.97
78.40
79.89
77.18
71.16
62.91
53.84
45.39
38.77
34.60
32.74
32.49
32.90
33.26
33.32
33.33
33.67
34.45
35.24
35.18
33.26
28.81
21.81
12.90
3.20
-6.13
-14.35
-21.31
-27.55
-34.07
-42.04
-52.40
-65.46
-80.52
-95.80
-108.57
-115.71
-114.62
-104.00
-84.44
-58.37
-29.41
-1.40
22.64
40.97
53.15
59.58
61.09
58.61
53.15
45.85
38.01
30.95
25.78
23.06
22.76
24.19
26.37
28.31
29.36
29.38
28.67
27.64
26.39
24.50
21.16
15.60
7.62
-2.17
-12.48
-21.93
-29.63
-35.55
-40.54
-45.91
-52.95
-62.42
-74.27
-87.50
-100.16
-109.62
-113.05
-108.18
-94.09
-71.68
-43.52
-13.26
15.43
39.70
57.99
69.92
75.87
76.61
73.03
66.14
57.21
47.70
39.05
32.40
28.29
26.55
26.51
27.36
28.41
29.34
30.09
30.62
30.60
29.40
26.27
20.73
12.84
3.36
-6.59
-15.89
-23.86
-30.48
-36.41
-42.73
-50.60
-60.84
-73.51
-87.60
-100.95
-110.49
-113.10
-106.56
-90.44
-66.32
-37.46
-7.72
19.49
41.90
58.55
69.43
74.95
75.70
72.35
65.91
57.70
49.22
41.80
36.27
32.82
31.15
30.69
30.86
31.31
31.80
32.10
31.84
30.49
27.46
22.33
15.10
6.28
-3.23
-12.43
-20.58
-27.52
-33.62
-39.69
-46.76
-55.70
-66.95
-80.16
-93.92
-105.73
-112.39
-110.92
-99.60
-78.74
-50.85
-19.91
9.83
35.03
53.96
66.41
73.11
75.05
73.10
68.00
60.61
52.00
43.51
36.28
31.04
27.89
26.38
25.93
26.01
26.39
26.95
27.48
27.48
26.22
22.96
17.32
9.50
0.22
-9.45
-18.59
-26.68
-33.78
-40.51
-47.85
-56.83
-68.04
-81.27
-95.19
-107.43
-115.00
-115.10
-106.11
-88.12
-63.09
-34.18
-4.95
21.58
43.37
59.44
69.59
74.16
73.81
69.54
62.71
54.91
47.63
42.03
38.62
37.25
37.30
37.99
38.68
39.09
39.21
39.07
38.59
37.31
34.62
29.97
23.21
14.76
5.45
-3.72
-12.08
-19.46
-26.38
-33.80
-42.82
-54.18
-67.86
-82.72
-96.53
-106.33
-109.23
-103.31
-88.23
-65.47
-37.87
-8.90
18.24
41.13
58.37
69.46
74.62
74.53
70.31
63.37
55.32
47.60
41.27
36.85
34.32
33.33
33.42
34.18
35.34
36.60
37.46
37.30
35.43
31.36
24.96
16.62
7.03
-2.90
-12.45
-21.22
-29.23
-36.98
-45.31
-55.18
-67.17
-81.01
-95.22
-107.11
-113.45
-111.38
-99.51
-78.45
-50.73
-20.04
9.75
35.54
55.48
68.91
76.13
77.96
75.51
70.05
62.89
55.34
48.48
43.07
39.37
37.32
36.50
36.49
36.88
37.34
37.47
36.90
35.13
31.74
26.49
19.41
10.88
1.48
-8.18
-17.66
-26.83
-35.98
-45.77
-56.96
-70.01
-84.66
-99.44
-111.75
-118.35
-116.31
-104.09
-82.21
-53.25
-21.12
10.02
36.95
57.86
72.38
81.08
84.87
84.70
81.45
76.01
69.34
62.47
56.29
51.41
48.00
45.85
44.53
43.56
42.53
41.19
39.27
36.44
32.28
26.43
18.78
9.63
-0.34
-10.26
-19.42
-27.53
-34.98
-42.72
-51.94
-63.67
-78.09
-94.13
-109.33
-120.19
-123.15
-115.72
-97.48
-70.32
-37.94
-4.68
25.64
50.55
69.00
81.07
87.45
89.05
86.87
82.00
75.71
69.32
63.94
60.25
58.33
57.68
57.51
57.00
55.68
53.52
50.81
47.85
44.64
40.75
35.41
28.02
18.38
7.01
-5.01
-16.41
-26.22
-34.13
-40.66
-47.03
-54.78
-65.32
-79.23
-95.83
-112.92
-127.03
-134.35
-131.84
-118.29
-94.79
-64.45
-31.40
0.37
27.96
49.88
65.82
76.19
81.59
82.65
80.11
74.99
68.59
62.38
57.62
54.98
54.40
55.18
56.24
56.63
55.86
53.95
51.28
48.28
45.07
41.36
36.55
29.99
21.40
10.99
-0.45
-11.87
-22.27
-31.11
-38.49
-45.14
-52.16
-60.71
-71.64
-85.15
-100.45
-115.57
-127.54
-133.04
-129.27
-115.09
-91.45
-61.31
-28.73
2.32
29.02
50.02
65.26
75.24
80.55
81.65
79.05
73.62
66.69
59.83
54.43
51.28
50.34
50.80
51.51
51.52
50.36
48.25
45.79
43.53
41.56
39.34
35.90
30.29
22.07
11.52
-0.36
-12.32
-23.27
-32.68
-40.75
-48.21
-56.05
-65.28
-76.54
-89.99
-104.81
-119.18
-130.28
-134.95
-130.51
-115.86
-91.94
-61.67
-29.04
2.07
28.87
50.03
65.40
75.44
80.72
81.71
78.98
73.42
66.30
59.10
53.14
49.12
47.09
46.48
46.46
46.27
45.49
44.12
42.45
40.77
39.10
37.07
33.95
28.92
21.51
11.80
0.52
-11.20
-22.21
-31.79
-39.91
-47.25
-54.97
-64.24
-75.98
-90.29
-106.24
-121.74
-133.77
-139.06
-135.03
-120.62
-96.78
-66.34
-33.12
-0.97
27.24
49.91
66.65
77.72
83.64
84.98
82.39
76.77
69.39
61.73
55.19
50.69
48.49
48.12
48.64
49.09
48.80
47.62
45.83
43.88
41.97
39.90
37.04
32.61
26.03
17.31
6.99
-3.92
-14.38
-23.67
-31.65
-38.76
-45.78
-53.67
-63.25
-75.01
-88.75
-103.29
-116.38
-124.94
-125.84
-116.95
-97.98
-70.82
-39.05
-6.82
22.22
45.80
63.10
74.34
80.26
81.65
79.24
73.84
66.49
58.45
51.01
45.25
41.70
40.27
40.31
40.89
41.15
40.59
39.18
37.31
35.39
33.54
31.41
28.31
23.43
16.36
7.31
-2.93
-13.24
-22.62
-30.58
-37.25
-43.34
-49.91
-58.00
-68.39
-81.25
-95.80
-110.24
-121.76
-127.16
-123.70
-110.11
-87.05
-57.24
-24.54
7.03
34.28
55.44
70.04
78.49
81.52
80.02
74.89
67.24
58.46
50.02
43.24
38.96
37.25
37.45
38.49
39.28
39.14
38.01
36.36
34.80
33.57
32.30
30.00
25.54
18.20
8.10
-3.78
-15.96
-26.99
-36.04
-43.09
-48.86
-54.49
-61.30
-70.38
-82.25
-96.46
-111.29
-123.80
-130.40
-127.92
-114.66
-91.21
-60.33
-26.14
6.98
35.66
57.92
73.19
81.80
84.51
82.20
75.89
66.87
56.66
46.83
38.75
33.24
30.43
29.77
30.33
31.10
31.44
31.17
30.55
29.99
29.64
29.13
27.60
24.05
17.80
8.96
-1.62
-12.55
-22.58
-31.00
-38.00
-44.45
-51.61
-60.64
-72.23
-86.35
-101.99
-117.16
-128.95
-134.13
-129.91
-115.00
-90.12
-58.08
-23.00
10.79
39.87
62.24
77.32
85.50
87.52
84.32
76.97
66.83
55.58
44.98
36.47
30.81
27.93
27.07
27.23
27.59
27.74
27.75
27.86
28.19
28.47
27.98
25.77
21.06
13.62
3.94
-6.87
-17.49
-26.87
-34.62
-41.12
-47.36
-54.62
-64.05
-76.26
-90.98
-106.78
-121.11
-130.61
-131.99
-123.02
-103.41
-75.02
-41.46
-7.08
24.23
49.75
68.23
79.54
84.21
83.11
77.34
68.26
57.50
46.72
37.33
30.18
25.52
23.05
22.21
22.52
23.66
25.39
27.48
29.50
30.76
30.55
28.19
23.34
16.07
6.93
-3.20
-13.38
-22.90
-31.51
-39.46
-47.63
-57.11
-68.88
-83.16
-98.93
-113.67
-123.87
-125.95
-117.50
-98.27
-70.33
-37.52
-4.19
25.94
50.51
68.52
79.89
85.02
84.53
79.30
70.65
60.28
49.97
41.25
35.04
31.49
30.20
30.49
31.66
33.15
34.57
35.53
35.58
34.18
30.83
25.26
17.57
8.26
-1.89
-12.07
-21.73
-30.75
-39.53
-48.83
-59.64
-72.78
-88.38
-105.46
-121.67
-133.66
-137.83
-131.53
-114.03
-86.97
-53.92
-19.36
12.56
38.92
58.31
70.64
76.52
76.91
72.88
65.64
56.57
47.13
38.66
32.17
28.13
26.42
26.50
27.65
29.17
30.53
31.29
31.07
29.52
26.21
20.95
13.80
5.19
-4.16
-13.50
-22.30
-30.53
-38.68
-47.61
-58.26
-71.10
-85.80
-100.82
-113.58
-120.88
-119.86
-108.97
-88.55
-60.91
-29.65
1.36
28.87
50.84
66.41
75.64
79.15
77.88
73.05
66.08
58.45
51.47
46.02
42.49
40.75
40.39
40.88
41.70
42.41
42.57
41.73
39.49
35.48
29.57
21.91
12.91
3.21
-6.54
-15.88
-24.70
-33.28
-42.29
-52.62
-64.94
-79.22
-94.36
-108.05
-117.16
-118.64
-110.43
-92.33
-66.17
-35.30
-3.69
25.11
48.67
65.81
76.46
81.22
81.01
76.95
70.28
62.39
54.65
48.22
43.84
41.69
41.42
42.37
43.81
45.08
45.70
45.25
43.42
39.96
34.69
27.71
19.31
10.00
0.38
-9.05
-18.01
-26.63
-35.55
-45.75
-58.21
-73.26
-90.04
-106.20
-118.25
-122.55
-116.55
-99.70
-73.80
-42.44
-9.86
20.16
45.07
63.78
76.22
82.93
84.69
82.40
77.10
70.03
62.53
55.80
50.74
47.73
46.69
47.11
48.29
49.51
50.08
49.38
46.95
42.45
35.78
27.04
16.65
5.21
-6.50
-17.82
-28.39
-38.41
-48.59
-60.03
-73.68
-89.69
-106.87
-122.57
-133.17
-135.17
-126.33
-106.58
-78.06
-44.58
-10.43
20.73
46.53
66.05
79.46
87.55
91.20
91.33
88.84
84.67
79.78
75.06
71.17
68.37
66.61
65.60
64.92
64.24
63.24
61.52
58.57
53.76
46.53
36.72
24.66
11.24
-2.41
-15.30
-26.92
-37.55
-48.07
-59.80
-73.82
-90.35
-108.34
-125.22
-137.55
-141.74
-135.27
-117.52
-90.16
-56.61
-21.10
12.50
41.48
64.56
81.59
93.01
99.49
101.67
100.34
96.48
91.27
85.94
81.40
78.04
75.71
73.89
72.05
69.82
67.16
64.14
60.78
56.86
51.85
45.10
36.08
24.72
11.59
-2.25
-15.51
-27.11
-36.72
-44.82
-52.74
-62.18
-74.55
-90.30
-108.32
-125.93
-139.36
-144.78
-139.46
-122.75
-96.36
-63.85
-29.57
2.58
30.02
51.78
68.16
79.97
87.96
92.49
93.72
91.95
87.94
82.89
78.23
74.97
73.41
73.06
72.95
72.19
70.31
67.46
64.17
60.89
57.65
53.90
48.73
41.30
31.23
18.90
5.30
-8.24
-20.57
-31.13
-40.05
-48.14
-56.55
-66.50
-78.97
-94.29
-111.82
-129.66
-144.75
-153.48
-152.64
-140.55
-117.82
-87.19
-52.88
-19.13
10.84
35.47
54.65
69.10
79.63
86.67
90.36
90.85
88.71
84.94
80.88
77.68
75.96
75.64
76.05
76.29
75.63
73.74
70.67
66.73
62.20
57.18
51.54
45.01
37.36
28.42
18.25
7.15
-4.44
-15.93
-26.81
-36.73
-45.67
-53.93
-62.16
-71.23
-82.01
-95.13
-110.49
-127.01
-142.36
-153.31
-156.46
-149.36
-131.41
-104.26
-71.41
-37.07
-5.05
22.21
43.81
59.96
71.36
78.64
82.22
82.48
80.04
75.84
71.11
67.01
64.31
63.15
63.12
63.41
63.22
62.06
59.77
56.59
52.87
48.83
44.50
39.60
33.73
26.49
17.74
7.71
-3.03
-13.71
-23.68
-32.64
-40.67
-48.19
-55.80
-64.12
-73.72
-85.02
-98.05
-112.05
-125.23
-134.76
-137.49
-130.87
-114.06
-88.37
-56.98
-24.04
6.62
32.39
52.12
65.89
74.38
78.35
78.49
75.41
69.95
63.21
56.49
50.99
47.46
46.02
46.17
47.08
47.87
47.95
47.17
45.63
43.60
41.18
38.25
34.45
29.32
22.53
14.01
4.08
-6.62
-17.34
-27.37
-36.32
-44.17
-51.27
-58.27
-65.90
-74.89
-85.75
-98.49
-112.38
-125.60
-135.48
-138.98
-133.57
-118.26
-94.01
-63.64
-30.98
0.19
27.09
48.27
63.45
72.98
77.39
77.27
73.35
66.72
58.86
51.39
45.76
42.75
42.32
43.74
45.83
47.49
48.01
47.15
45.07
42.13
38.57
34.42
29.45
23.32
15.75
6.69
-3.52
-14.24
-24.70
-34.21
-42.49
-49.68
-56.38
-63.42
-71.68
-81.81
-93.90
-107.24
-120.11
-129.91
-133.64
-128.70
-113.92
-90.03
-59.69
-26.70
5.03
32.45
53.94
69.09
78.24
82.02
81.09
76.26
68.65
59.77
51.32
44.71
40.70
39.13
39.16
39.65
39.67
38.86
37.42
35.81
34.35
32.87
30.69
26.90
20.72
12.02
1.39
-10.00
-20.90
-30.44
-38.46
-45.51
-52.60
-60.87
-71.22
-84.03
-98.94
-114.61
-128.64
-137.95
-139.36
-130.71
-111.52
-83.50
-50.01
-15.21
17.09
44.24
64.90
78.83
86.42
88.38
85.68
79.55
71.53
63.21
55.99
50.68
47.43
45.76
44.98
44.42
43.72
42.87
41.94
40.94
39.51
37.02
32.69
25.91
16.53
5.04
-7.46
-19.69
-30.58
-39.74
-47.59
-55.28
-64.36
-76.20
-91.41
-109.23
-127.39
-142.33
-149.97
-146.96
-131.81
-105.52
-71.41
-34.11
1.79
32.83
57.22
74.60
85.47
90.65
90.94
87.30
80.90
73.11
65.39
58.94
54.37
51.62
50.15
49.23
48.35
47.38
46.50
45.88
45.38
44.35
41.74
36.52
28.17
16.90
3.68
-10.13
-23.28
-34.98
-45.14
-54.33
-63.67
-74.51
-88.07
-104.76
-123.63
-142.11
-156.34
-162.13
-156.34
-137.97
-108.73
-72.40
-33.78
2.69
33.88
58.26
75.61
86.46
91.66
92.19
89.16
83.83
77.59
71.66
66.89
63.48
61.09
59.09
56.93
54.42
51.82
49.52
47.68
45.97
43.47
39.06
31.82
21.53
8.80
-5.07
-18.56
-30.47
-40.43
-48.94
-57.31
-67.20
-80.07
-96.52
-115.75
-135.33
-151.50
-159.95
-157.11
-141.33
-113.57
-77.21
-37.17
1.58
35.17
61.50
80.20
91.93
97.84
99.10
96.86
92.24
86.42
80.51
75.35
71.30
68.23
65.74
63.36
60.89
58.43
56.22
54.32
52.39
49.67
45.20
38.22
28.53
16.65
3.62
-9.33
-21.24
-31.75
-41.19
-50.49
-60.93
-73.67
-89.03
-106.04
-122.16
-133.68
-136.72
-128.59
-108.75
-79.27
-44.11
-7.93
25.19
52.58
73.11
86.75
94.02
95.67
92.66
86.26
78.11
69.94
63.20
58.68
56.34
55.51
55.29
54.95
54.23
53.23
52.18
51.02
49.22
45.93
40.27
31.88
21.10
8.95
-3.29
-14.55
-24.41
-33.21
-41.90
-51.63
-63.42
-77.66
-93.79
-110.02
-123.49
-130.79
-128.84
-115.94
-92.51
-61.15
-25.94
8.62
38.80
62.31
78.37
87.29
90.03
87.74
81.68
73.28
64.08
55.61
49.03
44.91
43.11
42.93
43.51
44.15
44.52
44.55
44.22
43.29
41.24
37.41
31.29
22.82
12.51
1.32
-9.62
-19.40
-27.69
-34.88
-42.02
-50.52
-61.66
-76.01
-92.87
-110.09
-124.30
-131.72
-129.24
-115.50
-91.39
-59.88
-25.15
8.57
37.92
60.92
76.85
85.89
88.71
86.34
80.10
71.56
62.42
54.16
47.80
43.69
41.59
40.89
40.89
41.09
41.19
41.05
40.48
39.07
36.21
31.25
23.77
13.89
2.33
-9.78
-21.26
-31.31
-39.81
-47.41
-55.30
-64.86
-77.09
-92.06
-108.54
-123.88
-134.51
-136.92
-128.66
-109.34
-80.92
-47.15
-12.55
18.81
44.22
62.49
73.69
78.65
78.39
74.06
66.85
58.14
49.36
41.85
36.54
33.69
32.97
33.61
34.78
35.89
36.61
36.79
36.22
34.42
30.86
25.13
17.23
7.73
-2.42
-12.21
-20.99
-28.69
-35.82
-43.34
-52.41
-63.86
-77.81
-93.14
-107.44
-117.22
-118.98
-110.25
-90.74
-62.56
-29.80
2.79
31.16
52.80
67.05
74.44
76.10
73.18
66.72
57.80
47.67
37.72
29.20
23.03
19.51
18.40
19.05
20.61
22.22
23.05
22.41
19.81
15.09
8.45
0.44
-8.26
-16.98
-25.26
-33.00
-40.51
-48.48
-57.83
-69.41
-83.42
-98.93
-113.64
-124.11
-126.71
-118.82
-99.87
-71.70
-38.12
-3.76
27.20
51.94
69.35
79.62
83.76
82.97
78.44
71.26
62.51
53.31
44.73
37.68
32.71
29.94
29.08
29.50
30.44
31.02
30.46
28.14
23.68
17.02
8.43
-1.61
-12.48
-23.56
-34.39
-44.86
-55.28
-66.43
-79.28
-94.38
-111.18
-127.57
-140.00
-144.48
-137.86
-119.18
-90.16
-54.79
-18.01
15.66
43.24
63.55
76.86
84.21
86.76
85.54
81.43
75.34
68.28
61.23
55.05
50.25
46.95
45.01
44.09
43.82
43.79
43.39
41.91
38.58
32.81
24.50
14.13
2.64
-9.03
-20.17
-30.66
-40.92
-51.90
-64.69
-80.11
-98.12
-117.33
-134.87
-146.75
-149.07
-139.25
-117.19
-85.47
-48.58
-11.50
21.64
48.46
68.31
81.66
89.44
92.55
91.80
88.07
82.42
76.04
70.02
65.11
61.56
59.25
57.84
57.04
56.60
56.24
55.53
53.75
50.07
43.76
34.59
22.98
9.92
-3.37
-15.93
-27.32
-37.89
-48.58
-60.67
-75.26
-92.80
-112.46
-131.93
-147.66
-155.62
-152.49
-136.82
-109.64
-74.33
-35.56
2.00
34.80
60.93
79.96
92.39
99.13
101.08
99.19
94.55
88.42
82.11
76.64
72.60
69.94
68.26
66.95
65.63
64.12
62.44
60.56
58.17
54.67
49.27
41.39
30.86
18.18
4.39
-9.27
-21.83
-32.86
-42.79
-52.74
-64.14
-78.19
-95.11
-113.61
-130.83
-142.78
-145.53
-136.50
-115.47
-84.78
-48.71
-12.08
21.08
48.32
68.84
83.01
91.59
95.34
94.99
91.43
85.85
79.71
74.31
70.44
68.10
66.66
65.23
63.13
60.20
56.86
53.65
50.86
48.23
44.91
39.80
32.13
21.80
9.52
-3.44
-15.70
-26.32
-35.07
-42.51
-49.80
-58.31
-69.26
-83.22
-99.71
-116.89
-131.69
-140.41
-139.73
-127.83
-105.10
-74.14
-38.93
-3.70
28.07
54.22
73.83
86.80
93.49
94.50
90.75
83.67
75.01
66.61
59.93
55.64
53.53
52.77
52.31
51.40
49.90
48.10
46.47
45.12
43.64
41.13
36.62
29.49
19.83
8.41
-3.56
-14.94
-25.01
-33.76
-41.81
-50.25
-60.27
-72.71
-87.57
-103.64
-118.34
-128.19
-129.66
-120.36
-99.94
-70.41
-35.60
-0.01
32.32
58.67
77.83
89.68
94.79
93.95
88.24
79.05
68.16
57.49
48.66
42.65
39.52
38.64
39.02
39.80
40.49
40.90
40.90
40.22
38.28
34.39
28.01
19.06
8.05
-4.07
-16.14
-27.23
-36.93
-45.48
-53.83
-63.31
-75.21
-90.10
-107.25
-124.37
-137.90
-143.83
-139.06
-122.36
-95.05
-60.56
-23.44
11.94
42.39
66.22
83.04
93.14
97.13
95.78
90.11
81.63
72.15
63.44
56.80
52.68
50.76
50.11
49.77
49.03
47.67
45.85
43.77
41.41
38.26
33.52
26.29
16.22
3.66
-10.25
-23.96
-36.11
-46.05
-54.07
-61.26
-69.18
-79.26
-92.42
-108.47
-125.96
-142.05
-153.04
-155.29
-146.22
-125.38
-94.69
-58.03
-20.08
14.95
44.20
66.44
81.63
90.45
93.76
92.46
87.63
80.58
72.90
66.06
61.07
58.18
56.87
56.21
55.31
53.76
51.67
49.51
47.58
45.73
43.18
38.76
31.53
21.19
8.30
-5.79
-19.48
-31.52
-41.42
-49.60
-57.27
-66.03
-77.35
-92.06
-109.76
-128.50
-144.90
-154.83
-154.56
-141.99
-117.57
-84.21
-46.47
-9.15
23.96
50.77
70.76
84.39
92.38
95.37
93.99
89.08
81.85
73.84
66.53
60.96
57.41
55.46
54.32
53.20
51.68
49.81
47.88
46.12
44.39
42.02
38.07
31.65
22.41
10.71
-2.48
-15.88
-28.39
-39.45
-49.17
-58.26
-67.78
-78.83
-92.21
-107.95
-124.95
-140.81
-152.05
-154.99
-146.86
-126.94
-96.89
-60.46
-22.30
13.25
43.23
66.26
82.22
91.69
95.44
94.31
89.31
81.71
73.03
64.79
58.17
53.74
51.34
50.26
49.57
48.56
47.00
45.07
43.11
41.23
38.97
35.43
29.57
20.78
9.29
-3.78
-16.84
-28.49
-38.05
-45.81
-52.93
-60.95
-71.23
-84.45
-100.29
-117.14
-132.25
-142.11
-143.29
-133.48
-112.37
-81.93
-45.96
-9.06
24.68
52.48
73.09
86.43
93.06
93.78
89.50
81.50
71.40
61.02
52.01
45.45
41.55
39.83
39.41
39.43
39.39
39.17
38.88
38.52
37.78
35.98
32.30
26.16
17.53
7.09
-4.03
-14.64
-23.99
-32.05
-39.55
-47.68
-57.76
-70.70
-86.46
-103.75
-120.02
-131.80
-135.62
-129.04
-111.43
-84.43
-51.45
-16.70
15.84
43.26
63.94
77.35
83.69
83.66
78.40
69.46
58.69
47.97
38.85
32.20
28.17
26.31
25.97
26.54
27.61
28.88
29.93
30.26
29.19
26.04
20.48
12.60
3.00
-7.39
-17.61
-27.05
-35.61
-43.78
-52.59
-63.21
-76.56
-92.62
-110.00
-125.90
-136.57
-138.31
-128.73
-107.63
-77.23
-41.65
-5.62
26.68
52.50
70.71
81.52
85.84
84.88
79.88
72.07
62.73
53.15
44.43
37.44
32.61
29.96
29.16
29.66
30.79
31.80
31.95
30.52
26.98
21.14
13.19
3.70
-6.49
-16.59
-26.05
-34.81
-43.42
-52.83
-64.20
-78.25
-94.67
-111.79
-126.54
-135.16
-134.24
-121.90
-98.56
-66.96
-31.36
3.69
34.45
58.66
75.59
85.58
89.56
88.63
83.94
76.67
68.11
59.54
52.07
46.45
42.95
41.37
41.16
41.62
42.03
41.75
40.24
37.12
32.15
25.33
16.86
7.20
-3.11
-13.52
-23.71
-33.71
-43.96
-55.27
-68.56
-84.27
-101.75
-118.90
-132.34
-138.26
-133.64
-117.37
-90.76
-57.19
-21.09
13.32
43.00
66.37
83.12
93.59
98.49
98.59
94.88
88.66
81.40
74.56
69.16
65.59
63.55
62.34
61.27
59.87
58.06
55.89
53.32
49.99
45.32
38.69
29.78
18.83
6.62
-5.77
-17.34
-27.61
-36.88
-46.07
-56.53
-69.46
-85.32
-103.36
-121.42
-136.18
-143.89
-141.47
-127.56
-103.01
-70.87
-35.34
-0.68
29.87
54.64
73.24
86.02
93.51
96.19
94.65
89.82
83.06
75.98
69.98
65.83
63.49
62.37
61.63
60.71
59.45
58.05
56.70
55.21
52.89
48.79
42.14
32.70
21.09
8.45
-3.92
-15.13
-25.01
-34.08
-43.34
-53.94
-66.83
-82.36
-100.02
-118.11
-133.73
-143.35
-143.69
-132.84
-111.10
-80.99
-46.54
-12.05
19.06
44.83
64.74
79.10
88.46
93.24
93.80
90.72
85.03
78.22
71.89
67.27
64.85
64.23
64.46
64.47
63.54
61.52
58.74
55.61
52.28
48.43
43.36
36.33
26.96
15.45
2.56
-10.58
-22.90
-33.70
-42.86
-50.88
-58.74
-67.71
-78.92
-93.01
-109.62
-127.05
-142.33
-151.77
-151.93
-140.82
-118.62
-87.78
-52.31
-16.57
15.92
43.08
64.25
79.67
89.86
95.28
96.37
93.81
88.71
82.57
76.93
72.93
71.00
70.79
71.44
71.87
71.27
69.27
66.00
61.88
57.40
52.77
47.80
41.94
34.55
25.21
14.01
1.58
-11.08
-22.97
-33.46
-42.49
-50.59
-58.64
-67.68
-78.58
-91.71
-106.68
-122.08
-135.42
-143.56
-143.45
-133.10
-112.39
-83.31
-49.36
-14.69
17.12
43.71
64.08
78.30
86.90
90.54
89.89
85.77
79.28
71.84
64.93
59.79
57.03
56.55
57.56
58.94
59.63
59.02
57.02
54.03
50.53
46.77
42.58
37.35
30.41
21.34
10.34
-1.79
-13.85
-24.73
-33.82
-41.25
-47.73
-54.39
-62.42
-72.76
-85.81
-101.07
-116.84
-130.33
-138.03
-136.76
-124.69
-102.18
-71.77
-37.47
-3.57
26.56
50.96
69.04
81.05
87.49
88.84
85.75
79.12
70.40
61.35
53.65
48.48
46.13
46.04
47.13
48.26
48.67
48.14
46.90
45.34
43.59
41.38
38.05
32.84
25.27
15.42
3.95
-8.02
-19.35
-29.24
-37.52
-44.66
-51.61
-59.50
-69.33
-81.62
-96.08
-111.34
-125.02
-133.98
-135.13
-126.35
-107.29
-79.71
-47.04
-13.45
17.27
42.60
61.46
73.98
80.80
82.63
80.15
74.17
65.88
56.90
48.97
43.47
40.91
40.88
42.24
43.69
44.33
43.92
42.76
41.39
40.15
38.88
36.91
33.32
27.29
18.50
7.38
-5.04
-17.41
-28.58
-38.06
-46.12
-53.72
-62.14
-72.50
-85.43
-100.61
-116.64
-130.95
-140.23
-141.17
-131.47
-110.75
-80.95
-45.86
-10.04
22.40
48.77
67.94
80.04
85.77
85.99
81.63
73.83
64.06
54.04
45.33
38.94
35.06
33.14
32.27
31.61
30.78
29.89
29.27
29.11
29.08
28.34
25.80
20.54
12.28
1.59
-10.27
-21.85
-32.02
-40.38
-47.40
-54.23
-62.25
-72.68
-86.04
-101.78
-118.03
-131.76
-139.36
-137.64
-124.88
-101.58
-70.41
-35.50
-1.25
28.79
52.48
69.05
78.73
82.17
80.27
74.18
65.38
55.59
46.46
39.24
34.52
32.14
31.47
31.72
32.26
32.73
33.01
32.96
32.31
30.50
26.83
20.74
12.09
1.30
-10.62
-22.51
-33.34
-42.66
-50.81
-58.75
-67.83
-79.30
-93.65
-110.15
-126.64
-139.72
-145.56
-141.12
-125.18
-98.92
-65.71
-30.05
3.67
32.27
54.10
68.85
77.01
79.40
76.95
70.76
62.16
52.69
43.86
36.77
31.99
29.41
28.52
28.70
29.39
30.22
30.87
30.95
29.92
27.17
22.21
15.04
6.08
-3.84
-13.81
-23.20
-31.84
-40.07
-48.67
-58.61
-70.69
-84.97
-100.37
-114.45
-123.84
-125.08
-115.85
-95.98
-67.63
-34.76
-1.89
27.17
50.11
66.21
75.82
79.79
78.98
74.17
66.33
56.64
46.66
37.97
31.80
28.72
28.51
30.31
32.97
35.34
36.57
36.16
33.91
29.82
24.07
16.93
8.79
0.11
-8.66
-17.36
-26.15
-35.71
-47.02
-60.98
-77.79
-96.38
-114.24
-127.79
-133.35
-128.26
-111.93
-86.05
-54.19
-20.73
10.25
35.92
54.95
67.28
73.62
74.98
72.38
66.83
59.39
51.22
43.54
37.46
33.69
32.40
33.13
34.91
36.53
36.85
35.03
30.71
23.96
15.18
4.95
-6.08
-17.35
-28.45
-39.28
-50.03
-61.41
-74.29
-89.35
-106.42
-123.99
-139.18
-148.24
-147.77
-135.91
-113.17
-82.37
-47.80
-13.87
16.04
40.13
58.10
70.44
77.94
81.25
81.00
77.89
72.87
67.10
61.68
57.44
54.74
53.48
53.17
53.16
52.72
51.22
48.19
43.46
37.10
29.40
20.75
11.49
1.77
-8.48
-19.56
-31.90
-46.00
-62.11
-79.87
-97.96
-114.01
-124.92
-127.58
-119.92
-101.75
-74.96
-43.09
-10.20
20.21
45.99
66.37
81.61
92.31
98.95
101.89
101.47
98.32
93.45
88.05
83.16
79.40
76.79
74.91
73.16
70.98
67.99
63.93
58.64
52.04
44.12
35.07
25.25
15.07
4.78
-5.72
-16.88
-29.44
-44.03
-60.81
-79.10
-97.22
-112.56
-122.09
-123.09
-113.92
-94.68
-67.30
-35.13
-2.03
28.55
54.28
74.16
88.24
97.18
101.74
102.64
100.53
96.16
90.46
84.39
78.80
74.22
70.80
68.30
66.33
64.45
62.22
59.21
55.01
49.26
41.77
32.62
22.23
11.16
-0.03
-11.06
-22.06
-33.61
-46.53
-61.53
-78.78
-97.42
-115.36
-129.45
-136.24
-133.00
-118.71
-94.51
-63.49
-29.72
2.91
31.62
55.03
72.87
85.51
93.48
97.30
97.58
95.07
90.69
85.36
79.86
74.66
69.95
65.74
61.97
58.51
55.18
51.65
47.46
42.12
35.23
26.65
16.57
5.49
-5.96
-17.19
-27.93
-38.33
-49.01
-60.90
-74.90
-91.26
-109.18
-126.37
-139.45
-144.74
-139.46
-122.77
-96.21
-63.26
-28.24
4.97
33.75
56.99
74.66
87.20
95.05
98.46
97.72
93.39
86.44
78.20
70.09
63.27
58.32
55.20
53.31
51.74
49.60
46.28
41.57
35.57
28.52
20.59
11.86
2.32
-8.02
-19.16
-31.20
-44.46
-59.41
-76.25
-94.43
-112.14
-126.35
-133.54
-130.79
-116.91
-93.02
-62.22
-28.66
3.67
31.92
54.67
71.70
83.46
90.57
93.53
92.78
88.93
82.81
75.44
67.88
61.03
55.35
50.89
47.36
44.22
40.99
37.19
32.47
26.62
19.56
11.42
2.44
-7.05
-16.78
-26.68
-36.92
-48.00
-60.55
-75.17
-91.91
-109.87
-126.88
-139.78
-145.12
-140.23
-124.21
-98.38
-66.01
-31.33
1.68
30.17
52.82
69.56
80.96
87.69
90.32
89.32
85.33
79.25
72.16
65.05
58.64
53.19
48.67
44.93
41.85
39.35
37.21
34.98
31.97
27.40
20.72
11.88
1.39
-9.88
-21.04
-31.52
-41.27
-50.87
-61.32
-73.72
-88.68
-105.69
-122.81
-136.73
-143.66
-140.40
-125.59
-100.36
-68.04
-33.16
-0.11
27.97
49.62
64.80
74.24
78.92
79.74
77.54
73.16
67.54
61.51
55.76
50.73
46.63
43.49
41.24
39.76
38.72
37.65
35.86
32.62
27.30
19.62
9.72
-1.78
-13.91
-25.66
-36.32
-45.75
-54.55
-63.93
-75.32
-89.62
-106.56
-124.15
-138.93
-146.81
-144.30
-129.80
-104.27
-71.09
-34.93
-0.49
28.76
51.11
66.47
75.77
80.24
80.99
78.85
74.57
68.91
62.72
56.82
51.83
48.02
45.29
43.36
41.81
40.25
38.28
35.46
31.33
25.51
17.85
8.44
-2.27
-13.70
-25.23
-36.40
-47.05
-57.52
-68.63
-81.44
-96.68
-114.02
-131.58
-145.92
-152.93
-149.17
-133.11
-105.85
-70.89
-32.96
3.31
34.52
59.00
76.49
87.62
93.32
94.55
92.25
87.42
81.07
74.16
67.45
61.39
56.16
51.80
48.33
45.71
43.75
42.03
39.79
36.11
30.22
21.77
11.01
-1.30
-14.11
-26.39
-37.52
-47.41
-56.66
-66.42
-78.04
-92.43
-109.46
-127.45
-143.14
-152.42
-151.47
-138.18
-112.90
-78.53
-39.70
-1.37
32.42
59.33
78.73
91.19
97.81
99.75
97.99
93.44
87.01
79.64
72.23
65.49
59.83
55.39
52.08
49.75
48.08
46.64
44.85
42.03
37.50
30.77
21.73
10.71
-1.58
-14.22
-26.39
-37.65
-48.12
-58.57
-70.26
-84.44
-101.56
-120.56
-138.60
-151.46
-154.76
-145.48
-123.17
-90.22
-51.24
-11.52
24.39
53.64
75.23
89.47
97.37
100.08
98.72
94.35
88.07
80.93
73.83
67.39
61.98
57.69
54.48
52.26
50.90
50.13
49.47
48.21
45.46
40.40
32.54
21.96
9.41
-3.95
-16.89
-28.57
-38.84
-48.32
-58.31
-70.30
-85.35
-103.39
-122.63
-139.62
-149.95
-149.47
-135.82
-109.40
-73.39
-32.81
7.02
41.88
69.42
89.08
101.41
107.36
107.93
104.09
96.98
87.99
78.57
69.98
62.99
57.77
54.12
51.65
50.03
49.05
48.45
47.80
46.45
43.54
38.27
30.25
19.63
7.17
-5.98
-18.66
-30.13
-40.30
-49.87
-60.06
-72.27
-87.42
-105.29
-124.06
-140.31
-149.73
-148.31
-133.84
-106.85
-70.59
-30.07
9.37
43.63
70.47
89.37
100.88
105.84
105.06
99.49
90.42
79.68
69.32
60.96
55.38
52.32
50.81
49.76
48.47
46.93
45.47
44.43
43.61
42.20
38.98
32.83
23.30
10.87
-3.18
-17.20
-29.76
-40.20
-48.88
-57.05
-66.49
-78.88
-95.08
-114.56
-135.06
-152.75
-163.09
-161.98
-147.18
-119.20
-81.30
-38.60
3.39
40.22
69.34
90.04
102.83
108.74
108.72
103.77
95.05
84.16
72.97
63.16
55.75
50.86
47.79
45.56
43.37
40.99
38.68
36.83
35.48
34.00
31.21
25.81
16.95
4.77
-9.55
-24.21
-37.45
-48.29
-56.93
-64.59
-73.16
-84.44
-99.53
-118.22
-138.72
-157.62
-170.46
-172.82
-161.59
-136.30
-99.46
-55.96
-11.66
28.34
60.78
84.56
100.05
108.26
110.17
106.70
98.96
88.55
77.44
67.54
60.14
55.49
52.97
51.45
49.96
48.02
45.79
43.67
41.87
40.05
37.30
32.43
24.56
13.53
0.10
-14.32
-28.17
-40.34
-50.57
-59.55
-68.68
-79.70
-94.01
-112.06
-132.72
-153.06
-168.65
-174.65
-167.33
-145.42
-110.86
-68.26
-23.49
18.04
52.66
78.82
96.60
106.83
110.53
108.68
102.39
93.14
82.69
72.80
64.70
58.84
54.83
51.84
49.00
45.90
42.60
39.50
36.94
34.78
32.31
28.36
21.87
12.38
0.39
-12.79
-25.60
-36.85
-46.30
-54.79
-63.90
-75.37
-90.48
-109.43
-130.94
-152.17
-168.95
-176.69
-171.65
-152.22
-119.78
-78.44
-33.95
8.08
43.58
70.73
89.58
101.20
106.78
107.17
103.19
95.84
86.66
77.37
69.52
63.91
60.49
58.48
56.90
55.04
52.71
50.16
47.71
45.35
42.51
38.17
31.23
21.02
7.79
-7.35
-22.68
-36.61
-48.24
-57.73
-66.22
-75.37
-86.87
-101.68
-119.62
-138.92
-156.21
-167.14
-167.46
-154.43
-127.98
-91.01
-48.58
-6.38
30.95
60.75
82.42
96.68
104.65
107.29
105.39
99.92
92.24
84.03
76.89
71.84
68.98
67.57
66.50
64.78
62.02
58.49
54.86
51.70
49.02
46.05
41.51
34.18
23.50
9.97
-5.00
-19.58
-32.34
-42.81
-51.61
-60.18
-70.25
-83.16
-99.41
-118.31
-137.79
-154.57
-164.71
-164.53
-151.85
-126.83
-92.10
-52.13
-11.94
24.25
53.82
75.84
90.52
98.57
100.77
97.98
91.33
82.34
72.86
64.55
58.51
54.97
53.29
52.42
51.37
49.63
47.30
44.90
42.88
41.11
38.74
34.43
26.94
15.74
1.42
-14.42
-29.70
-42.64
-52.38
-59.26
-64.66
-70.44
-78.40
-89.62
-103.92
-119.65
-133.75
-142.42
-142.17
-131.02
-109.20
-79.24
-45.10
-10.99
19.88
45.75
66.22
81.55
92.09
98.03
99.62
97.55
93.17
88.22
84.28
82.27
82.10
82.98
83.83
83.90
83.03
81.67
80.38
79.40
78.29
75.92
70.89
62.16
49.48
33.73
16.55
-0.20
-15.15
-27.99
-39.40
-50.77
-63.60
-78.96
-97.09
-117.09
-136.85
-153.19
-162.39
-161.15
-147.68
-122.50
-88.52
-50.26
-12.62
20.53
47.00
66.30
79.00
86.05
88.27
86.43
81.42
74.48
67.21
61.08
57.05
55.26
54.99
55.10
54.60
53.09
50.77
48.18
45.61
42.79
38.83
32.64
23.58
11.81
-1.57
-15.02
-27.15
-37.34
-45.95
-54.10
-63.35
-75.05
-89.87
-107.35
-125.70
-141.91
-152.24
-153.25
-142.84
-121.07
-90.28
-54.53
-18.32
14.56
41.79
62.57
77.09
85.98
89.87
89.41
85.44
79.16
72.01
65.38
60.22
56.82
54.85
53.68
52.76
51.72
50.44
48.83
46.63
43.33
38.29
31.02
21.43
9.89
-2.75
-15.47
-27.38
-38.04
-47.61
-56.97
-67.39
-80.19
-96.01
-114.20
-132.49
-147.22
-154.32
-150.48
-134.48
-107.55
-73.19
-36.01
-0.45
30.29
54.65
72.45
84.35
91.20
93.77
92.80
89.11
83.71
77.63
71.77
66.68
62.52
59.14
56.30
53.88
51.80
49.95
47.97
45.23
40.92
34.37
25.31
14.08
1.53
-11.25
-23.26
-34.04
-43.77
-53.29
-63.89
-76.88
-92.93
-111.49
-130.45
-146.25
-154.77
-152.49
-137.83
-111.73
-77.49
-39.78
-3.24
28.69
54.29
73.35
86.52
94.72
98.67
98.98
96.29
91.49
85.64
79.79
74.67
70.49
67.08
64.08
61.25
58.59
56.20
54.04
51.64
48.15
42.55
34.13
22.88
9.57
-4.53
-18.11
-30.44
-41.57
-52.35
-64.16
-78.28
-95.30
-114.57
-133.93
-149.98
-158.83
-157.24
-143.74
-119.11
-86.29
-49.47
-12.91
20.02
47.41
68.65
84.05
94.25
99.95
101.83
100.63
97.26
92.75
88.06
83.92
80.59
77.96
75.64
73.26
70.58
67.48
63.82
59.28
53.27
45.21
34.70
21.90
7.52
-7.35
-21.59
-34.47
-45.91
-56.54
-67.49
-80.06
-95.15
-112.70
-131.22
-147.74
-158.35
-159.37
-148.53
-125.98
-94.31
-57.79
-21.03
12.28
40.06
61.79
77.77
88.61
94.82
96.89
95.50
91.64
86.49
81.14
76.33
72.27
68.84
65.74
62.77
59.92
57.28
54.84
52.34
49.13
44.40
37.47
28.10
16.65
4.08
-8.52
-20.28
-30.91
-40.89
-51.27
-63.36
-78.18
-95.93
-115.50
-134.34
-148.73
-154.75
-149.44
-131.91
-103.78
-68.80
-31.71
3.21
33.06
56.73
74.42
86.86
94.69
98.31
98.12
94.88
89.81
84.33
79.62
76.19
73.75
71.57
68.87
65.35
61.29
57.32
53.89
50.87
47.42
42.26
34.34
23.29
9.75
-4.83
-18.75
-30.76
-40.47
-48.52
-56.27
-65.34
-77.10
-92.16
-109.94
-128.45
-144.49
-154.23
-154.21
-142.49
-119.44
-87.72
-51.59
-15.58
16.74
43.48
64.26
79.65
90.36
96.84
99.32
98.15
94.08
88.38
82.55
77.85
74.92
73.57
72.99
72.20
70.46
67.55
63.81
59.84
55.96
52.02
47.29
40.77
31.69
19.94
6.24
-8.11
-21.71
-33.62
-43.68
-52.51
-61.27
-71.24
-83.48
-98.53
-116.04
-134.54
-151.37
-162.97
-165.74
-157.15
-136.70
-106.30
-69.81
-31.95
3.11
32.68
55.82
72.81
84.46
91.48
94.32
93.39
89.48
83.86
78.06
73.40
70.47
69.04
68.30
67.32
65.55
63.00
60.05
57.12
54.36
51.46
47.72
42.28
34.42
23.90
11.06
-3.13
-17.43
-30.64
-42.15
-52.11
-61.42
-71.40
-83.36
-98.09
-115.49
-134.19
-151.54
-163.90
-167.51
-159.57
-139.38
-108.76
-71.65
-32.91
3.16
33.76
57.89
75.77
88.09
95.39
97.98
96.30
91.21
84.14
76.75
70.52
66.23
63.84
62.62
61.51
59.63
56.65
52.88
48.97
45.57
42.75
39.89
35.86
29.48
20.11
8.00
-5.75
-19.61
-32.20
-42.80
-51.58
-59.46
-67.88
-78.29
-91.80
-108.63
-127.70
-146.51
-161.32
-168.01
-163.25
-145.67
-116.49
-79.33
-39.14
-0.73
32.38
58.55
77.71
90.63
98.16
100.92
99.44
94.51
87.42
79.81
73.25
68.67
66.02
64.46
62.85
60.30
56.62
52.23
47.87
44.09
40.85
37.42
32.68
25.60
15.72
3.46
-9.98
-23.07
-34.51
-43.75
-51.20
-58.06
-65.96
-76.41
-90.32
-107.57
-126.68
-144.81
-158.12
-162.66
-155.50
-135.92
-105.74
-68.90
-30.32
5.61
36.01
59.76
77.02
88.45
94.60
95.90
92.92
86.74
78.99
71.49
65.68
62.13
60.48
59.70
58.71
56.87
54.20
51.22
48.52
46.25
43.92
40.49
34.83
26.25
14.89
1.65
-12.05
-24.89
-36.06
-45.57
-54.21
-63.32
-74.39
-88.53
-105.96
-125.55
-144.59
-159.19
-165.22
-159.51
-141.01
-111.35
-74.30
-34.80
2.56
34.57
59.77
78.12
90.29
97.08
99.12
97.13
92.05
85.24
78.27
72.44
68.45
66.18
64.80
63.32
61.00
57.80
54.23
50.94
48.20
45.57
41.99
36.22
27.42
15.65
1.88
-12.40
-25.70
-37.13
-46.65
-55.01
-63.48
-73.50
-86.26
-102.24
-120.75
-139.71
-155.72
-164.74
-163.17
-149.13
-123.16
-88.28
-49.09
-10.35
24.07
52.06
73.01
87.30
95.62
98.63
96.99
91.68
84.14
76.04
68.92
63.66
60.29
58.05
55.99
53.38
50.07
46.45
43.10
40.28
37.69
34.45
29.50
22.02
11.96
-0.00
-12.56
-24.41
-34.70
-43.42
-51.34
-59.79
-70.17
-83.48
-99.90
-118.33
-136.34
-150.42
-156.75
-152.27
-135.80
-108.53
-73.80
-36.12
0.04
31.40
56.20
74.06
85.38
90.83
91.22
87.49
80.90
72.92
65.08
58.52
53.81
50.83
48.98
47.57
46.10
44.41
42.55
40.52
38.04
34.50
29.18
21.53
11.57
-0.08
-12.33
-24.03
-34.44
-43.48
-51.89
-60.88
-71.88
-85.90
-102.94
-121.65
-139.12
-151.44
-154.65
-146.07
-125.32
-94.63
-58.20
-20.90
13.09
41.11
62.23
76.70
85.29
88.83
88.13
84.07
77.78
70.56
63.61
57.70
53.18
49.89
47.53
45.85
44.65
43.82
43.07
41.85
39.38
34.90
27.95
18.58
7.39
-4.74
-16.86
-28.36
-39.09
-49.52
-60.63
-73.63
-89.38
-107.77
-127.13
-144.25
-154.96
-155.39
-143.36
-119.27
-86.10
-48.50
-11.32
21.59
48.09
67.68
80.90
88.69
92.01
91.67
88.46
83.29
77.14
71.00
65.61
61.43
58.52
56.69
55.51
54.51
53.14
50.90
47.28
41.91
34.62
25.50
14.95
3.58
-7.98
-19.27
-30.21
-41.22
-53.12
-66.92
-83.25
-101.82
-120.93
-137.50
-147.66
-147.77
-135.83
-112.15
-79.54
-42.43
-5.54
27.30
53.95
73.95
87.87
96.67
101.18
102.04
99.85
95.33
89.41
83.02
76.97
71.70
67.31
63.73
60.81
58.35
56.07
53.50
49.96
44.73
37.31
27.71
16.44
4.37
-7.62
-18.96
-29.63
-40.12
-51.34
-64.37
-79.96
-98.05
-117.27
-134.87
-147.10
-150.28
-142.01
-122.17
-93.02
-58.61
-23.36
9.14
36.78
59.02
76.17
88.75
97.11
101.41
101.95
99.43
94.95
89.74
84.84
80.74
77.39
74.42
71.41
68.15
64.66
60.96
56.88
51.96
45.53
37.06
26.43
14.12
1.09
-11.60
-23.13
-33.38
-42.88
-52.79
-64.43
-78.71
-95.59
-113.64
-130.04
-141.10
-143.29
-134.35
-114.13
-84.72
-49.87
-13.80
19.88
48.85
72.16
89.75
101.99
109.27
112.05
110.99
107.04
101.44
95.43
89.96
85.43
81.75
78.48
75.21
71.74
68.13
64.60
61.22
57.66
53.20
46.96
38.25
26.99
13.79
-0.24
-13.87
-26.24
-37.22
-47.43
-58.01
-70.25
-84.99
-102.19
-120.51
-137.35
-149.21
-152.59
-145.04
-126.14
-97.78
-63.64
-28.09
5.05
33.47
56.37
73.99
86.88
95.38
99.64
99.91
96.95
92.00
86.64
82.13
79.10
77.38
76.20
74.67
72.18
68.62
64.34
59.88
55.55
51.13
45.87
38.79
29.20
17.12
3.42
-10.46
-23.11
-33.78
-42.61
-50.52
-58.84
-68.83
-81.31
-96.40
-113.29
-130.12
-143.96
-151.41
-149.42
-136.40
-112.92
-81.76
-47.04
-12.96
17.30
42.24
61.70
76.27
86.51
92.70
94.91
93.44
89.13
83.31
77.53
73.04
70.39
69.30
68.96
68.40
66.95
64.41
61.04
57.32
53.51
49.51
44.76
38.49
30.03
19.16
6.34
-7.39
-20.78
-32.80
-43.02
-51.71
-59.73
-68.25
-78.37
-90.83
-105.72
-122.15
-138.13
-150.65
-156.33
-152.24
-137.11
-111.80
-79.30
-43.82
-9.53
20.52
44.88
63.45
76.84
85.76
90.69
91.98
90.08
85.81
80.28
74.68
70.01
66.81
65.07
64.36
63.98
63.29
61.84
59.51
56.43
52.75
48.50
43.38
36.88
28.46
17.87
5.37
-8.20
-21.66
-33.86
-44.13
-52.52
-59.73
-66.92
-75.31
-85.85
-98.91
-114.13
-130.15
-144.61
-154.38
-156.22
-147.84
-128.74
-100.65
-67.10
-32.36
-0.22
27.00
48.52
64.69
76.25
83.73
87.39
87.45
84.43
79.33
73.54
68.37
64.76
62.92
62.43
62.45
62.20
61.14
59.18
56.48
53.24
49.48
45.06
39.64
32.89
24.56
14.58
3.16
-9.21
-21.80
-33.72
-44.29
-53.20
-60.76
-67.74
-75.23
-84.32
-95.73
-109.54
-124.88
-139.76
-151.22
-155.85
-150.69
-134.34
-107.66
-73.73
-37.00
-1.95
28.10
51.60
68.58
79.94
86.62
89.29
88.35
84.31
78.16
71.27
65.15
60.92
58.95
58.80
59.48
59.92
59.33
57.42
54.39
50.64
46.54
42.17
37.21
31.06
23.17
13.25
1.57
-11.10
-23.75
-35.47
-45.80
-54.82
-63.09
-71.41
-80.60
-91.43
-104.38
-119.27
-134.87
-148.70
-157.24
-156.87
-145.14
-121.80
-89.18
-51.62
-14.10
19.17
45.76
65.17
78.19
86.00
89.63
89.64
86.50
80.88
73.83
66.69
60.73
56.72
54.73
54.21
54.25
54.01
53.00
51.13
48.62
45.72
42.45
38.50
33.30
26.19
16.77
5.14
-8.04
-21.72
-34.76
-46.28
-56.00
-64.27
-71.97
-80.18
-89.95
-102.01
-116.51
-132.75
-148.91
-162.02
-168.37
-164.51
-148.46
-120.70
-84.27
-44.01
-5.07
28.58
54.97
73.99
86.57
93.71
96.07
94.03
88.19
79.75
70.45
62.11
56.09
52.86
51.95
52.23
52.56
52.08
50.55
48.24
45.70
43.33
41.04
38.13
33.53
26.27
15.96
3.10
-11.05
-24.93
-37.35
-47.84
-56.81
-65.25
-74.35
-85.16
-98.35
-113.99
-131.27
-148.22
-161.72
-167.92
-163.37
-146.27
-117.42
-80.20
-39.62
-0.80
32.46
58.35
76.80
88.67
94.94
96.34
93.52
87.33
79.11
70.59
63.43
58.74
56.69
56.66
57.48
57.98
57.36
55.40
52.42
48.96
45.44
41.80
37.48
31.58
23.29
12.34
-0.78
-14.95
-28.76
-41.11
-51.59
-60.58
-69.12
-78.54
-90.09
-104.49
-121.59
-140.08
-157.34
-169.76
-173.50
-165.68
-145.33
-113.98
-75.33
-34.27
4.47
37.43
62.86
80.52
91.06
95.47
94.76
90.00
82.49
73.81
65.65
59.40
55.70
54.36
54.53
55.07
55.12
54.34
52.93
51.38
49.96
48.45
46.08
41.83
34.87
25.01
12.85
-0.34
-13.17
-24.63
-34.53
-43.49
-52.69
-63.43
-76.69
-92.82
-111.24
-130.18
-146.75
-157.27
-158.25
-147.42
-124.74
-92.57
-55.14
-17.27
16.96
44.97
65.90
80.03
88.14
91.04
89.57
84.75
77.96
70.78
64.74
60.82
59.20
59.27
60.02
60.49
60.18
59.09
57.50
55.60
53.20
49.59
43.93
35.58
24.50
11.39
-2.58
-16.07
-28.21
-38.82
-48.55
-58.63
-70.45
-85.04
-102.49
-121.61
-139.84
-153.66
-159.38
-154.21
-137.23
-109.71
-74.95
-37.25
-0.85
31.05
56.74
75.85
88.90
96.71
100.08
99.79
96.73
91.97
86.64
81.71
77.72
74.69
72.20
69.73
66.96
63.87
60.63
57.36
53.84
49.46
43.39
35.00
24.19
11.52
-1.87
-14.72
-26.14
-35.97
-44.86
-54.08
-65.14
-79.21
-96.55
-116.12
-135.44
-150.90
-158.63
-155.59
-140.58
-114.73
-81.20
-44.26
-8.06
24.27
51.06
71.84
86.86
96.62
101.67
102.71
100.65
96.66
91.94
87.46
83.70
80.65
77.97
75.31
72.55
69.78
67.16
64.59
61.52
57.11
50.42
40.95
28.85
14.99
0.66
-12.93
-25.04
-35.63
-45.41
-55.57
-67.50
-82.24
-99.97
-119.51
-138.17
-152.13
-157.46
-151.35
-133.17
-104.76
-69.90
-33.08
1.72
31.95
56.58
75.64
89.62
99.05
104.30
105.82
104.28
100.66
96.08
91.46
87.35
83.79
80.48
77.13
73.63
70.18
67.06
64.36
61.63
57.92
52.12
43.41
31.73
17.87
3.24
-10.67
-22.89
-33.27
-42.61
-52.34
-64.02
-78.75
-96.59
-116.26
-135.07
-149.40
-155.49
-150.65
-134.06
-107.23
-73.51
-37.10
-1.92
29.31
55.27
75.73
90.96
101.31
107.05
108.58
106.67
102.49
97.41
92.61
88.78
85.92
83.59
81.11
78.01
74.15
69.82
65.38
60.97
56.28
50.58
43.01
33.00
20.71
6.97
-6.89
-19.62
-30.57
-39.93
-48.71
-58.37
-70.36
-85.52
-103.68
-123.27
-141.32
-154.04
-157.66
-149.69
-129.83
-100.18
-64.73
-28.07
5.94
35.00
58.50
76.87
90.83
100.74
106.62
108.41
106.51
101.92
96.15
90.73
86.67
84.23
82.90
81.82
80.22
77.76
74.59
71.11
67.59
63.85
59.25
52.90
44.08
32.65
19.13
4.61
-9.68
-22.72
-34.08
-44.03
-53.35
-63.10
-74.38
-87.97
-104.12
-122.16
-140.34
-155.82
-165.12
-165.02
-153.57
-130.87
-99.30
-62.84
-25.94
7.68
35.88
58.10
74.85
86.99
95.16
99.65
100.70
98.77
94.73
89.80
85.27
82.05
80.50
80.31
80.74
80.86
79.94
77.61
73.88
69.01
63.25
56.69
49.26
40.73
30.89
19.71
7.39
-5.67
-18.90
-31.66
-43.39
-53.74
-62.72
-70.74
-78.56
-87.21
-97.65
-110.43
-125.34
-140.96
-154.70
-163.15
-162.86
-151.58
-129.08
-97.49
-60.83
-23.77
9.66
37.06
57.87
72.81
83.08
89.66
93.01
93.32
90.89
86.41
80.98
75.81
71.85
69.49
68.55
68.47
68.53
68.13
66.88
64.53
60.96
56.14
50.13
43.08
35.18
26.55
17.19
7.01
-4.03
-15.77
-27.81
-39.53
-50.37
-60.02
-68.60
-76.63
-85.00
-94.75
-106.79
-121.43
-137.90
-154.07
-166.50
-171.27
-165.15
-146.79
-117.47
-80.77
-41.53
-4.41
27.33
52.25
70.50
83.06
91.06
95.33
96.45
94.96
91.54
87.03
82.32
78.13
74.83
72.44
70.72
69.34
68.02
66.54
64.69
62.16
58.60
53.67
47.25
39.45
30.65
21.22
11.43
1.29
-9.22
-20.07
-31.08
-41.84
-51.95
-61.15
-69.46
-77.28
-85.31
-94.43
-105.62
-119.52
-135.86
-152.94
-167.53
-175.40
-172.62
-156.93
-128.83
-91.54
-50.13
-9.89
25.07
52.62
72.55
85.84
93.90
97.89
98.67
96.92
93.31
88.63
83.66
79.14
75.56
73.10
71.69
71.07
70.86
70.66
70.06
68.63
66.03
62.04
56.59
49.82
41.95
33.18
23.60
13.17
1.80
-10.47
-23.40
-36.43
-48.88
-60.13
-69.92
-78.47
-86.53
-95.20
-105.71
-118.95
-134.98
-152.62
-169.16
-180.67
-182.94
-172.76
-149.16
-114.06
-71.84
-28.12
11.90
44.72
69.02
85.38
95.31
100.44
101.93
100.52
96.70
91.12
84.66
78.38
73.18
69.58
67.59
66.82
66.60
66.29
65.38
63.55
60.67
56.70
51.65
45.52
38.34
30.17
21.01
10.87
-0.22
-12.10
-24.39
-36.58
-48.15
-58.75
-68.35
-77.29
-86.27
-96.22
-108.08
-122.43
-139.00
-156.12
-170.59
-178.16
-174.69
-157.66
-127.32
-86.96
-42.04
1.51
38.93
67.74
87.72
100.08
106.52
108.35
106.43
101.38
93.98
85.40
77.05
70.21
65.65
63.49
63.23
64.01
64.90
65.20
64.47
62.54
59.41
55.12
49.68
42.97
34.86
25.21
14.01
1.51
-11.77
-25.17
-38.07
-50.00
-60.85
-70.81
-80.33
-90.08
-100.88
-113.64
-128.88
-146.23
-163.92
-178.55
-185.74
-181.30
-162.81
-130.77
-88.70
-42.22
2.63
41.09
70.68
91.11
103.54
109.51
110.33
106.85
99.88
90.52
80.27
70.86
63.71
59.51
57.99
58.17
58.72
58.57
57.13
54.41
50.79
46.69
42.27
37.25
31.03
22.89
12.34
-0.62
-15.49
-31.30
-46.98
-61.66
-74.91
-86.81
-97.87
-108.82
-120.53
-133.78
-148.98
-165.74
-182.34
-195.77
-202.05
-197.45
-179.77
-149.35
-109.21
-64.10
-19.18
21.47
55.43
81.97
101.27
113.87
120.27
121.08
117.34
110.58
102.69
95.54
90.41
87.75
87.09
87.40
87.52
86.58
84.35
81.14
77.49
73.82
69.95
65.07
58.05
47.94
34.52
18.52
1.49
-14.78
-28.90
-40.26
-49.23
-56.91
-64.77
-74.29
-86.60
-102.02
-119.69
-137.35
-151.45
-157.99
-153.63
-136.93
-108.99
-73.21
-34.23
3.34
36.12
62.25
81.23
93.31
99.04
99.14
94.66
87.12
78.45
70.56
64.90
61.99
61.39
62.04
62.72
62.56
61.24
58.95
56.02
52.60
48.42
42.87
35.33
25.53
13.82
1.11
-11.37
-22.60
-32.13
-40.29
-48.07
-56.82
-67.80
-81.86
-98.99
-118.07
-136.75
-151.61
-158.84
-155.24
-139.26
-111.79
-75.98
-36.47
1.93
35.39
61.71
80.36
91.79
96.91
96.63
91.98
84.21
74.91
65.83
58.41
53.35
50.52
49.09
48.14
47.09
45.87
44.69
43.61
42.19
39.53
34.64
26.95
16.72
4.93
-7.09
-18.19
-27.92
-36.66
-45.49
-55.80
-68.87
-85.33
-104.66
-124.94
-142.83
-154.25
-155.37
-143.88
-119.82
-85.78
-46.18
-6.08
30.20
59.89
81.95
96.72
105.19
108.49
107.61
103.47
97.04
89.37
81.51
74.32
68.28
63.50
59.82
57.00
54.84
53.05
51.19
48.60
44.47
38.14
29.38
18.46
6.13
-6.74
-19.43
-31.64
-43.56
-55.90
-69.69
-85.83
-104.54
-124.73
-143.71
-157.55
-162.09
-154.35
-133.69
-102.17
-63.95
-24.06
13.04
44.39
68.81
86.52
98.44
105.62
108.98
109.22
106.99
102.99
97.92
92.43
87.02
81.93
77.22
72.88
68.94
65.38
62.04
58.49
53.96
47.63
38.86
27.57
14.24
-0.19
-14.68
-28.45
-41.26
-53.60
-66.48
-81.22
-98.85
-119.37
-141.18
-160.95
-174.22
-176.68
-165.72
-141.59
-107.53
-68.80
-30.98
1.66
27.18
45.87
59.32
69.28
76.77
81.94
84.31
83.44
79.38
72.90
65.34
58.30
53.39
51.82
54.16
60.07
68.14
75.74
79.22
74.58
58.40
29.09
-12.37
-62.29
-115.07
-164.68
-206.22
-237.02
-256.92
-267.81
-272.54
-274.16
-275.25
-277.85
-283.40
-292.52
-304.66
-317.68
-328.24
-332.53
-327.55
-312.19
-287.62
-256.76
-223.11
-189.50
-157.45
-127.21
-98.41
-70.76
-44.32
-19.32
4.15
26.59
49.04
72.78
