1520863953.00
64.000000
-0.00
-0.00
-0.00
-0.00
-0.00
-0.00
-0.00
-0.00
-0.00
-0.00
0.00
0.01
0.01
-0.00
-0.03
-0.05
-0.05
0.00
0.13
0.36
0.66
1.01
1.37
1.72
2.06
2.40
2.79
3.24
3.80
4.42
5.06
5.66
6.20
6.68
7.15
7.68
8.31
9.14
10.09
11.04
11.88
12.56
13.14
13.76
14.65
15.96
17.91
20.32
22.90
25.38
27.58
29.57
31.68
34.32
37.81
42.54
48.15
54.10
59.83
64.97
69.58
74.14
79.34
85.71
93.76
103.00
112.62
121.73
129.77
136.75
143.30
150.75
157.77
166.64
177.95
191.79
206.97
220.57
228.25
225.36
208.53
176.87
132.76
80.05
23.07
-34.94
-92.44
-149.16
-205.23
-260.37
-313.74
-363.87
-409.83
-450.91
-486.50
-515.74
-537.23
-549.22
-549.96
-538.37
-514.21
-478.67
-433.88
-382.45
-327.02
-269.84
-212.63
-156.66
-102.95
-52.37
-5.90
35.58
71.43
101.35
125.50
144.38
158.69
169.15
176.37
180.75
182.57
182.07
179.51
175.23
169.65
163.18
156.15
148.81
141.30
133.69
126.02
118.33
110.69
103.16
95.80
88.68
81.83
75.25
68.95
62.95
57.25
51.86
46.78
42.03
37.59
33.45
29.61
26.07
22.81
19.83
17.11
14.67
12.48
10.54
8.83
7.35
6.07
4.97
4.05
3.27
2.62
2.09
1.65
1.30
1.01
0.79
0.61
0.47
0.37
0.28
0.22
0.18
0.14
0.12
0.11
0.11
0.12
0.13
0.15
0.17
0.20
0.24
0.28
0.32
0.36
0.41
0.45
0.50
0.55
0.60
0.65
0.71
0.77
0.83
0.90
0.98
1.07
1.16
1.27
1.39
1.52
1.67
1.84
2.03
2.24
2.46
2.72
3.00
3.32
3.65
4.03
4.44
4.88
5.36
5.88
6.43
7.03
7.67
8.35
9.08
9.85
10.66
11.52
12.42
13.37
14.37
15.44
16.56
17.75
19.00
20.27
21.54
22.72
23.75
24.49
24.84
24.64
23.81
22.26
19.96
16.93
13.22
9.00
4.44
-0.26
-4.85
-9.13
-12.88
-15.96
-18.27
-19.78
-20.48
-20.46
-19.83
-18.71
-17.23
-15.51
-13.66
-11.75
-9.81
-7.87
-5.93
-4.01
-2.11
-0.21
1.70
3.63
5.60
7.67
9.91
12.26
14.70
17.19
19.70
22.21
24.71
27.24
29.90
32.89
36.10
39.54
43.17
47.02
51.02
55.18
59.49
64.13
69.32
74.85
80.65
86.60
92.55
98.31
103.71
108.71
113.51
118.50
123.47
128.33
132.82
136.46
138.48
137.97
133.83
124.64
113.44
101.30
88.89
76.40
63.55
49.84
34.74
18.07
0.12
-18.31
-36.90
-55.25
-73.21
-90.95
-108.93
-127.79
-148.29
-171.07
-196.25
-223.43
-250.68
-274.68
-291.60
-298.42
-294.04
-279.81
-258.88
-234.95
-211.24
-189.39
-169.58
-151.37
-134.37
-118.60
-104.31
-91.62
-80.25
-69.83
-60.07
-50.98
-42.96
-36.64
-32.51
-30.76
-31.06
-32.70
-34.91
-36.90
-38.09
-38.07
-36.54
-33.20
-27.76
-20.03
-10.10
1.52
13.80
25.50
35.35
42.48
46.69
48.39
48.39
47.66
46.92
46.61
46.84
47.55
48.64
50.04
51.62
53.17
54.27
54.45
53.29
50.65
46.78
42.31
38.04
34.67
32.52
31.31
30.36
28.78
25.93
21.75
16.93
12.70
10.40
11.03
14.92
21.70
30.49
40.16
49.37
56.74
61.02
61.56
58.62
53.54
48.21
44.27
42.37
41.80
40.99
38.40
33.33
26.31
18.66
11.78
6.49
2.79
0.19
-1.89
-3.72
-5.25
-6.21
-6.47
-6.08
-5.35
-4.71
-4.53
-5.03
-6.30
-8.31
-11.03
-14.30
-17.85
-21.16
-23.56
-24.43
-23.33
-20.22
-15.51
-9.90
-4.22
0.79
4.61
7.04
8.18
8.36
7.99
7.51
7.28
7.50
8.18
9.10
9.92
10.30
10.03
9.30
8.49
8.10
8.48
9.63
11.21
12.76
13.86
14.32
14.06
13.09
11.36
8.90
5.89
2.73
-0.17
-2.52
-4.43
-6.33
-8.80
-12.21
-16.46
-21.04
-25.14
-28.05
-29.20
-28.42
-25.69
-21.19
-15.23
-8.27
-1.00
5.77
11.29
15.10
17.11
17.63
17.15
16.32
15.67
15.63
16.39
17.86
19.66
21.23
22.04
21.85
20.84
19.51
18.34
17.62
17.19
16.72
15.81
14.31
12.35
10.16
7.99
5.94
4.03
2.21
0.45
-1.34
-3.34
-5.93
-9.43
-13.94
-19.16
-24.27
-28.23
-30.02
-29.07
-25.36
-19.40
-12.12
-4.56
2.37
8.08
12.31
15.25
17.23
18.62
19.60
20.15
20.19
19.78
19.23
19.02
19.63
21.21
23.72
26.81
30.14
33.38
36.30
38.75
40.51
41.41
41.35
40.37
38.59
36.12
33.00
29.19
24.68
19.63
14.39
9.34
4.82
0.86
-2.80
-6.53
-10.72
-15.40
-20.19
-24.41
-27.28
-28.29
-27.37
-24.89
-21.40
-17.47
-13.54
-9.92
-6.88
-4.71
-3.59
-3.47
-4.04
-4.81
-5.36
-5.51
-5.34
-5.06
-4.86
-4.73
-4.60
-4.47
-4.48
-4.87
-5.77
-7.02
-8.26
-9.08
-9.35
-9.30
-9.44
-10.33
-12.26
-15.11
-18.43
-21.62
-24.19
-25.97
-27.05
-27.82
-28.73
-30.26
-32.66
-35.82
-39.29
-42.24
-43.71
-42.93
-39.61
-34.08
-27.23
-20.11
-13.63
-8.22
-3.96
-0.73
1.47
2.50
2.22
0.70
-1.59
-3.96
-5.69
-6.36
-5.93
-4.67
-2.96
-0.97
1.13
3.27
5.24
6.66
7.21
6.69
5.20
3.09
0.72
-1.61
-3.90
-6.24
-8.82
-11.72
-14.94
-18.42
-22.18
-26.28
-30.83
-35.88
-41.33
-46.96
-52.42
-57.26
-60.92
-62.91
-62.70
-59.97
-54.65
-46.89
-37.18
-26.24
-15.11
-4.85
3.44
8.98
11.57
11.62
10.10
8.17
6.88
6.92
8.50
11.43
15.27
19.44
23.36
26.50
28.50
29.28
29.02
28.02
26.49
24.40
21.51
17.53
12.38
6.41
0.36
-4.91
-8.67
-10.51
-10.50
-9.12
-7.17
-5.63
-5.50
-7.41
-11.44
-16.83
-22.27
-26.27
-27.71
-26.26
-22.40
-17.15
-11.63
-6.67
-2.65
0.35
2.43
3.63
3.85
3.00
1.20
-1.14
-3.38
-4.87
-5.34
-5.10
-4.86
-5.50
-7.43
-10.48
-13.89
-16.80
-18.67
-19.56
-19.99
-20.57
-21.73
-23.62
-26.20
-29.42
-33.29
-37.86
-43.03
-48.60
-54.26
-59.70
-64.76
-69.45
-73.90
-78.19
-82.38
-86.38
-90.29
-94.36
-99.04
-104.67
-111.20
-117.95
-123.60
-126.64
-125.79
-120.50
-110.94
-97.89
-82.26
-64.76
-45.73
-25.35
-3.86
18.13
39.65
59.52
76.67
90.52
101.02
108.71
114.38
118.69
122.02
124.28
125.25
124.75
122.79
119.61
115.46
110.49
104.61
97.63
89.34
79.75
69.09
57.79
46.36
35.18
24.45
14.15
4.13
-5.83
-15.94
-26.40
-37.45
-49.18
-61.44
-73.57
-84.42
-92.43
-96.18
-94.84
-88.55
-78.40
-66.01
-52.96
-40.33
-28.72
-18.43
-9.73
-3.02
1.33
3.27
3.30
2.39
1.68
2.10
4.10
7.60
12.08
16.83
21.13
24.48
26.59
27.45
27.21
26.07
24.15
21.44
17.93
13.65
8.85
3.86
-1.03
-5.75
-10.55
-15.98
-22.56
-30.60
-39.86
-49.50
-58.14
-64.17
-66.17
-63.31
-55.68
-44.28
-30.71
-16.77
-3.96
6.77
15.13
21.31
25.72
28.91
31.26
33.03
34.40
35.46
36.35
37.14
37.98
38.89
39.88
40.82
41.49
41.64
41.05
39.51
36.90
33.09
28.01
21.70
14.41
6.61
-1.09
-8.25
-14.81
-21.25
-28.42
-37.08
-47.46
-58.91
-70.13
-79.43
-85.29
-86.62
-82.87
-74.08
-60.84
-44.33
-26.22
-8.46
7.24
19.76
28.91
35.23
39.62
42.95
45.75
48.25
50.53
52.70
54.92
57.30
59.87
62.41
64.64
66.29
67.16
67.17
66.32
64.48
61.48
57.14
51.33
44.18
36.02
27.28
18.36
9.45
0.40
-9.11
-19.40
-30.45
-41.86
-52.75
-61.98
-68.25
-70.35
-67.35
-58.97
-45.72
-29.07
-11.07
6.08
20.69
31.89
39.74
44.90
48.22
50.45
52.07
53.50
55.10
57.17
59.78
62.67
65.37
67.39
68.51
68.84
68.66
68.18
67.23
65.42
62.28
57.55
51.35
44.14
36.51
28.89
21.48
14.13
6.57
-1.56
-10.55
-20.55
-31.46
-42.81
-53.58
-62.33
-67.54
-68.08
-63.68
-55.06
-43.61
-30.89
-18.07
-5.72
6.06
17.24
27.60
36.68
43.97
49.20
52.57
54.70
56.35
58.26
60.72
63.71
66.84
69.56
71.48
72.45
72.66
72.41
71.84
70.82
68.93
65.74
61.06
55.07
48.28
41.22
34.28
27.55
20.86
14.04
6.96
-0.44
-8.20
-16.45
-25.39
-35.07
-45.28
-55.33
-64.15
-70.46
-73.13
-71.42
-65.26
-55.19
-42.25
-27.76
-13.04
0.73
12.72
22.39
29.60
34.46
37.40
38.97
39.87
40.73
42.04
44.03
46.59
49.35
51.83
53.62
54.53
54.59
54.03
53.09
51.87
50.23
47.84
44.33
39.51
33.54
26.90
20.22
13.96
8.30
2.99
-2.42
-8.38
-15.19
-22.91
-31.33
-40.05
-48.39
-55.43
-60.09
-61.34
-58.59
-51.87
-41.95
-30.08
-17.66
-5.85
4.62
13.38
20.32
25.45
28.90
30.98
32.20
33.19
34.51
36.39
38.70
41.06
43.00
44.29
44.95
45.23
45.34
45.27
44.73
43.27
40.52
36.33
30.92
24.71
18.24
11.90
5.84
-0.03
-6.07
-12.61
-19.89
-27.85
-36.01
-43.50
-49.18
-51.96
-51.06
-46.29
-38.09
-27.44
-15.52
-3.52
7.61
17.22
24.90
30.43
33.81
35.15
34.79
33.25
31.25
29.67
29.25
30.45
33.10
36.53
39.73
41.80
42.35
41.55
39.91
37.91
35.67
32.92
29.30
24.60
18.99
12.92
6.89
1.28
-3.84
-8.60
-13.37
-18.59
-24.67
-31.89
-40.15
-48.94
-57.34
-64.08
-67.92
-67.94
-63.72
-55.56
-44.45
-31.83
-19.31
-8.20
0.73
7.34
11.97
15.12
17.29
18.87
20.20
21.61
23.31
25.35
27.52
29.46
30.88
31.68
32.01
32.14
32.21
32.17
31.83
30.99
29.45
27.07
23.72
19.28
13.85
7.76
1.59
-4.03
-8.70
-12.46
-15.75
-19.25
-23.60
-29.24
-36.19
-44.00
-51.69
-57.98
-61.47
-61.13
-56.67
-48.69
-38.50
-27.64
-17.37
-8.35
-0.75
5.48
10.39
13.88
15.90
16.62
16.52
16.24
16.40
17.35
19.03
21.11
23.18
24.94
26.31
27.38
28.27
28.95
29.27
28.91
27.55
25.00
21.42
17.18
12.82
8.74
5.07
1.69
-1.74
-5.51
-9.81
-14.65
-20.00
-25.75
-31.87
-38.26
-44.65
-50.46
-54.76
-56.53
-54.88
-49.51
-40.93
-30.38
-19.44
-9.54
-1.52
4.50
8.92
12.27
14.91
16.85
17.92
18.05
17.47
16.69
16.27
16.50
17.28
18.15
18.62
18.39
17.57
16.51
15.59
14.94
14.43
13.67
12.36
10.40
7.90
5.05
1.95
-1.43
-5.20
-9.34
-13.65
-17.81
-21.52
-24.83
-28.15
-32.14
-37.34
-43.80
-50.93
-57.45
-61.79
-62.63
-59.37
-52.32
-42.56
-31.60
-20.85
-11.40
-3.88
1.47
4.72
6.15
6.29
5.76
5.22
5.12
5.64
6.72
8.13
9.68
11.27
12.88
14.46
15.88
17.02
17.80
18.13
17.95
17.10
15.41
12.82
9.48
5.82
2.36
-0.54
-2.88
-4.98
-7.35
-10.39
-14.25
-18.77
-23.75
-28.89
-33.95
-38.61
-42.40
-44.73
-45.08
-43.17
-39.08
-33.26
-26.34
-19.03
-11.95
-5.63
-0.38
3.58
6.29
7.87
8.43
8.16
7.27
6.05
4.92
4.34
4.61
5.70
7.19
8.47
8.97
8.45
7.12
5.51
4.13
3.22
2.58
1.73
0.16
-2.36
-5.68
-9.41
-13.16
-16.83
-20.54
-24.61
-29.24
-34.40
-39.76
-44.85
-49.07
-51.86
-52.74
-51.29
-47.34
-40.93
-32.47
-22.73
-12.74
-3.59
3.79
8.89
11.71
12.69
12.50
11.81
11.11
10.60
10.35
10.37
10.73
11.52
12.69
13.95
14.94
15.25
14.73
13.50
11.95
10.45
9.13
7.81
6.09
3.66
0.48
-3.15
-6.87
-10.36
-13.60
-16.66
-19.74
-22.91
-26.24
-29.93
-34.13
-38.92
-43.96
-48.58
-51.75
-52.48
-50.21
-45.00
-37.50
-28.68
-19.60
-11.22
-4.16
1.32
5.25
7.90
9.57
10.51
10.88
10.83
10.66
10.78
11.56
13.06
14.97
16.68
17.61
17.47
16.50
15.18
14.12
13.53
13.23
12.69
11.24
8.48
4.34
-0.75
-6.07
-10.85
-14.49
-16.81
-18.07
-18.99
-20.44
-23.19
-27.61
-33.47
-40.02
-46.11
-50.51
-52.23
-50.78
-46.18
-38.97
-30.06
-20.47
-11.22
-3.14
3.21
7.66
10.30
11.57
11.91
11.74
11.42
11.24
11.50
12.48
14.29
16.74
19.28
21.24
22.16
22.02
21.24
20.41
19.81
19.27
18.26
16.20
12.90
8.61
3.94
-0.54
-4.52
-8.01
-11.25
-14.50
-18.05
-22.06
-26.72
-32.07
-37.98
-43.91
-49.08
-52.53
-53.40
-51.28
-46.21
-38.75
-29.75
-20.12
-10.71
-2.18
5.01
10.51
14.04
15.53
15.22
13.71
11.79
10.32
9.90
10.72
12.58
14.99
17.42
19.50
21.00
21.85
22.05
21.62
20.56
18.96
16.86
14.28
11.20
7.57
3.48
-0.88
-5.24
-9.42
-13.32
-17.04
-20.87
-25.07
-29.85
-35.15
-40.63
-45.64
-49.31
-50.74
-49.26
-44.66
-37.20
-27.66
-17.09
-6.61
2.83
10.57
16.28
19.89
21.68
22.20
22.06
21.86
21.92
22.31
22.81
23.13
23.15
22.87
22.49
22.20
22.08
22.13
22.20
22.03
21.25
19.49
16.42
11.97
6.45
0.52
-5.04
-9.75
-13.65
-17.27
-21.49
-27.02
-34.04
-41.96
-49.60
-55.50
-58.42
-57.67
-53.28
-45.96
-36.76
-26.76
-16.85
-7.62
0.60
7.51
12.87
16.50
18.43
18.98
18.73
18.25
17.98
18.03
18.33
18.69
19.05
19.45
20.02
20.76
21.51
22.00
21.91
21.10
19.53
17.26
14.35
10.77
6.48
1.55
-3.87
-9.41
-14.71
-19.56
-24.10
-28.82
-34.37
-41.24
-49.33
-57.83
-65.26
-69.96
-70.63
-66.83
-59.09
-48.72
-37.25
-26.00
-15.75
-6.78
0.93
7.48
12.87
17.05
20.00
21.88
23.09
24.08
25.26
26.85
28.86
31.17
33.58
35.85
37.67
38.82
39.11
38.58
37.38
35.74
33.78
31.41
28.39
24.49
19.70
14.20
8.35
2.47
-3.26
-8.88
-14.54
-20.48
-26.90
-33.86
-41.30
-48.78
-55.58
-60.65
-62.95
-61.63
-56.44
-47.75
-36.53
-24.05
-11.52
0.07
10.12
18.28
24.41
28.47
30.60
31.23
31.01
30.83
31.41
33.10
35.73
38.70
41.24
42.83
43.37
43.21
42.82
42.57
42.43
42.10
41.09
39.04
35.90
31.91
27.44
22.76
17.95
12.95
7.71
2.24
-3.34
-8.94
-14.69
-20.93
-27.96
-35.80
-43.92
-51.28
-56.57
-58.68
-57.00
-51.56
-42.96
-32.12
-20.09
-7.91
3.46
13.21
20.81
26.10
29.30
30.85
31.35
31.30
31.12
31.21
31.89
33.40
35.71
38.55
41.40
43.75
45.22
45.75
45.53
44.81
43.71
42.11
39.69
36.09
31.22
25.32
18.96
12.81
7.42
2.97
-0.68
-3.98
-7.51
-11.83
-17.40
-24.33
-32.23
-40.27
-47.11
-51.33
-51.86
-48.28
-41.04
-31.26
-20.34
-9.56
0.21
8.50
15.12
19.92
22.85
24.00
23.67
22.48
21.21
20.57
20.92
22.18
23.84
25.34
26.33
26.77
26.95
27.17
27.53
27.83
27.67
26.64
24.62
21.73
18.34
14.80
11.30
7.76
4.04
-0.01
-4.45
-9.25
-14.47
-20.22
-26.55
-33.22
-39.60
-44.61
-47.14
-46.32
-41.98
-34.66
-25.41
-15.41
-5.62
3.34
11.18
17.66
22.55
25.65
26.95
26.76
25.66
24.32
23.26
22.65
22.37
22.30
22.37
22.66
23.33
24.36
25.60
26.73
27.44
27.50
26.77
25.17
22.65
19.24
15.10
10.50
5.73
0.95
-3.90
-9.06
-14.80
-21.29
-28.39
-35.69
-42.46
-47.78
-50.67
-50.29
-46.27
-38.88
-29.12
-18.39
-8.18
0.50
7.28
12.37
16.21
19.14
21.22
22.33
22.43
21.81
21.04
20.74
21.28
22.53
24.06
25.31
26.04
26.40
26.80
27.58
28.71
29.68
29.68
28.04
24.57
19.64
14.03
8.48
3.46
-1.03
-5.33
-9.82
-14.78
-20.32
-26.44
-33.00
-39.71
-45.98
-50.89
-53.34
-52.40
-47.71
-39.70
-29.44
-18.37
-7.82
1.31
8.61
14.11
18.08
20.81
22.59
23.70
24.33
24.69
24.93
25.23
25.74
26.58
27.70
28.86
29.71
29.95
29.49
28.50
27.26
25.90
24.30
22.11
18.97
14.79
9.87
4.76
-0.01
-4.23
-8.03
-11.85
-16.12
-21.16
-27.07
-33.63
-40.25
-46.06
-49.90
-50.60
-47.49
-40.57
-30.75
-19.52
-8.48
1.20
8.99
15.02
19.66
23.22
25.86
27.59
28.42
28.51
28.14
27.51
26.69
25.62
24.25
22.69
21.21
20.13
19.71
19.94
20.58
21.27
21.54
21.02
19.48
16.94
13.55
9.67
5.59
1.46
-2.75
-7.25
-12.24
-17.85
-24.03
-30.44
-36.57
-41.74
-45.12
-45.91
-43.55
-37.93
-29.62
-19.69
-9.47
-0.15
7.56
13.44
17.66
20.45
22.03
22.52
22.02
20.77
19.09
17.37
15.90
14.82
14.10
13.61
13.22
12.83
12.43
12.08
11.82
11.61
11.29
10.60
9.31
7.27
4.56
1.39
-2.02
-5.57
-9.28
-13.19
-17.37
-21.81
-26.48
-31.41
-36.45
-41.28
-45.22
-47.34
-46.82
-43.30
-37.07
-29.01
-20.23
-11.68
-3.92
2.77
8.22
12.30
14.80
15.73
15.23
13.64
11.38
8.91
6.68
5.14
4.63
5.24
6.73
8.54
9.98
10.55
10.15
9.08
7.75
6.43
5.02
3.21
0.71
-2.53
-6.27
-10.17
-14.04
-18.05
-22.54
-27.76
-33.49
-38.96
-43.01
-44.53
-42.89
-38.23
-31.40
-23.57
-15.76
-8.61
-2.31
3.12
7.56
10.81
12.62
12.88
11.84
9.93
7.65
5.42
3.51
2.09
1.29
1.18
1.74
2.73
3.79
4.49
4.61
4.13
3.14
1.66
-0.34
-2.91
-5.99
-9.37
-12.83
-16.30
-20.09
-24.65
-30.26
-36.72
-43.20
-48.40
-51.06
-50.37
-46.17
-39.01
-29.87
-19.83
-9.98
-1.28
5.57
10.16
12.50
12.99
12.29
11.03
9.70
8.44
7.28
6.26
5.57
5.48
6.18
7.57
9.29
10.81
11.74
11.91
11.37
10.22
8.45
5.96
2.63
-1.47
-6.05
-10.71
-15.15
-19.43
-23.98
-29.31
-35.72
-42.88
-49.78
-54.93
-56.96
-55.02
-49.15
-40.19
-29.45
-18.35
-8.02
0.75
7.53
12.11
14.51
14.87
13.57
11.21
8.51
6.21
4.74
4.19
4.28
4.54
4.54
4.15
3.53
3.01
2.88
3.13
3.49
3.56
3.04
1.82
-0.00
-2.19
-4.52
-6.83
-9.07
-11.40
-14.11
-17.60
-22.18
-27.74
-33.60
-38.63
-41.43
-40.98
-36.96
-29.86
-20.75
-10.79
-0.94
8.23
16.34
23.02
27.87
30.53
30.89
29.29
26.51
23.54
21.32
20.30
20.50
21.41
22.42
23.03
23.10
22.92
22.93
23.44
24.37
25.24
25.34
24.17
21.65
18.16
14.27
10.46
6.84
3.15
-1.04
-6.15
-12.34
-19.40
-26.82
-33.84
-39.60
-43.31
-44.34
-42.36
-37.49
-30.33
-21.78
-12.89
-4.52
2.87
9.24
14.76
19.58
23.62
26.55
28.09
28.17
27.18
25.81
24.78
24.53
25.11
26.23
27.52
28.81
30.04
31.23
32.27
32.77
32.25
30.35
27.04
22.66
17.83
13.18
9.19
6.01
3.47
1.12
-1.67
-5.58
-11.09
-18.20
-26.36
-34.44
-41.04
-44.99
-45.63
-42.96
-37.44
-29.79
-20.80
-11.27
-1.98
6.30
12.95
17.65
20.46
21.75
22.02
21.71
21.06
20.20
19.30
18.54
18.15
18.30
18.93
19.86
20.78
21.50
21.87
21.82
21.28
20.15
18.27
15.55
12.13
8.31
4.45
0.81
-2.66
-6.36
-10.79
-16.29
-22.83
-29.84
-36.37
-41.31
-43.71
-43.10
-39.52
-33.48
-25.70
-17.00
-8.09
0.37
7.79
13.66
17.66
19.72
20.10
19.25
17.64
15.66
13.51
11.36
9.45
8.16
7.87
8.78
10.67
12.98
14.94
15.87
15.40
13.52
10.49
6.67
2.38
-2.09
-6.58
-11.09
-15.80
-21.01
-26.96
-33.54
-40.18
-45.92
-49.62
-50.36
-47.68
-41.76
-33.29
-23.33
-13.03
-3.44
4.72
11.11
15.69
18.67
20.23
20.50
19.55
17.59
15.04
12.53
10.73
10.12
10.80
12.50
14.74
16.99
18.81
19.93
20.18
19.46
17.76
15.09
11.60
7.45
2.88
-1.84
-6.56
-11.29
-16.28
-21.84
-28.17
-34.99
-41.46
-46.27
-48.11
-46.21
-40.64
-32.28
-22.46
-12.43
-3.02
5.38
12.63
18.66
23.19
25.94
26.79
25.99
24.12
22.07
20.58
20.10
20.66
21.93
23.53
25.13
26.54
27.76
28.62
28.83
27.91
25.47
21.43
16.21
10.53
5.09
0.27
-4.05
-8.37
-13.26
-19.11
-25.90
-33.25
-40.42
-46.48
-50.44
-51.45
-48.98
-43.06
-34.30
-23.83
-12.89
-2.66
6.09
13.04
18.16
21.61
23.60
24.40
24.44
24.27
24.41
25.18
26.46
27.78
28.62
28.67
28.06
27.25
26.73
26.65
26.82
26.69
25.74
23.68
20.53
16.57
12.11
7.31
2.27
-3.01
-8.61
-14.56
-20.88
-27.55
-34.25
-40.34
-44.84
-46.68
-45.05
-39.70
-31.11
-20.36
-8.89
1.86
10.82
17.43
21.74
24.21
25.56
26.45
27.28
28.15
28.89
29.39
29.63
29.88
30.37
31.20
32.17
32.83
32.77
31.87
30.35
28.59
26.84
24.99
22.69
19.54
15.46
10.76
5.95
1.47
-2.57
-6.44
-10.70
-15.89
-22.16
-29.14
-35.96
-41.46
-44.54
-44.48
-41.10
-34.81
-26.47
-17.15
-7.89
0.58
7.81
13.69
18.34
21.91
24.50
26.15
26.81
26.54
25.59
24.37
23.41
23.05
23.41
24.29
25.36
26.23
26.54
26.06
24.67
22.38
19.33
15.79
12.12
8.67
5.63
2.92
0.23
-2.97
-7.24
-12.98
-20.17
-28.31
-36.45
-43.39
-48.07
-49.72
-48.15
-43.60
-36.66
-28.02
-18.51
-8.99
-0.27
6.91
12.06
14.96
15.85
15.27
14.06
13.01
12.74
13.47
15.01
16.84
18.34
19.12
19.10
18.50
17.75
17.19
16.93
16.78
16.46
15.67
14.38
12.71
10.74
8.41
5.38
1.16
-4.69
-12.16
-20.82
-29.73
-37.82
-44.02
-47.39
-47.35
-43.68
-36.70
-27.28
-16.75
-6.62
1.92
8.24
12.47
15.18
17.07
18.54
19.68
20.29
20.21
19.45
18.27
17.09
16.31
16.21
16.83
17.96
19.18
20.08
20.39
20.00
19.00
17.43
15.26
12.40
8.80
4.61
0.12
-4.36
-8.72
-13.17
-18.08
-23.78
-30.23
-36.94
-43.05
-47.50
-49.37
-47.99
-43.21
-35.37
-25.36
-14.35
-3.53
6.19
14.30
20.73
25.65
29.28
31.80
33.31
33.99
34.11
33.96
33.81
33.80
33.93
34.10
34.31
34.58
34.94
35.36
35.56
35.18
33.85
31.38
27.83
23.51
18.80
13.93
9.05
4.14
-0.83
-5.84
-10.89
-16.14
-21.84
-28.16
-35.03
-41.69
-46.93
-49.28
-47.74
-42.19
-33.58
-23.52
-13.68
-5.13
1.94
7.85
12.93
17.15
20.05
21.19
20.54
18.77
17.06
16.51
17.65
20.26
23.45
26.22
27.91
28.36
27.88
26.93
25.87
24.82
23.70
22.37
20.61
18.29
15.38
12.00
8.37
4.72
1.14
-2.49
-6.48
-11.12
-16.52
-22.53
-28.82
-34.99
-40.69
-45.49
-48.83
-49.98
-48.26
-43.38
-35.70
-26.24
-16.35
-7.33
0.06
5.59
9.47
12.02
13.47
13.92
13.43
12.27
10.89
9.85
9.61
10.32
11.83
13.71
15.58
17.19
18.57
19.88
21.22
22.50
23.42
23.58
22.63
20.39
16.91
12.51
7.69
3.05
-0.90
-3.97
-6.32
-8.47
-11.08
-14.67
-19.36
-24.92
-30.85
-36.58
-41.63
-45.51
-47.73
-47.70
-45.01
-39.62
-32.11
-23.55
-15.21
-8.15
-2.87
0.71
3.11
4.84
6.23
7.29
7.85
7.87
7.52
7.23
7.43
8.37
9.89
11.54
12.80
13.34
13.20
12.73
12.36
12.26
12.30
12.02
10.96
8.83
5.69
1.93
-1.96
-5.47
-8.39
-10.84
-13.16
-15.78
-19.05
-22.99
-27.41
-31.83
-35.69
-38.46
-39.62
-38.84
-35.92
-30.99
-24.42
-16.82
-8.94
-1.55
4.71
9.39
12.34
13.66
13.67
12.82
11.50
9.97
8.36
6.73
5.26
4.34
4.47
5.97
8.77
12.22
15.38
17.38
17.81
16.79
14.79
12.25
9.32
5.93
2.02
-2.17
-6.17
-9.45
-11.80
-13.50
-15.19
-17.51
-20.84
-25.19
-30.23
-35.58
-40.86
-45.69
-49.58
-51.92
-52.05
-49.54
-44.42
-37.15
-28.61
-19.73
-11.43
-4.29
1.34
5.42
8.14
9.71
10.45
10.61
10.47
10.22
10.03
10.04
10.31
10.83
11.53
12.35
13.18
13.96
14.61
15.07
15.29
15.17
14.61
13.49
11.76
9.40
6.61
3.68
1.01
-1.16
-2.82
-4.29
-6.12
-8.89
-13.04
-18.57
-25.10
-31.85
-37.70
-41.68
-43.01
-41.46
-37.33
-31.29
-24.20
-16.96
-10.34
-4.87
-0.90
1.61
2.93
3.51
3.83
4.22
4.73
5.31
5.84
6.31
6.89
7.72
8.82
10.15
11.52
12.78
13.76
14.36
14.44
13.83
12.44
10.26
7.47
4.35
1.13
-2.03
-5.15
-8.37
-11.86
-15.68
-19.84
-24.28
-29.03
-34.12
-39.49
-44.82
-49.53
-52.77
-53.64
-51.61
-46.58
-39.09
-30.07
-20.65
-11.84
-4.30
1.77
6.53
10.24
13.04
14.82
15.36
14.59
12.80
10.70
9.13
8.65
9.34
10.80
12.45
13.91
15.00
15.82
16.46
16.89
16.94
16.41
15.17
13.18
10.43
6.94
2.77
-1.94
-6.91
-11.80
-16.36
-20.54
-24.56
-28.71
-33.21
-38.10
-43.04
-47.40
-50.28
-50.85
-48.61
-43.65
-36.59
-28.40
-19.97
-11.95
-4.63
1.75
6.93
10.58
12.43
12.60
11.60
10.20
9.15
8.87
9.34
10.23
11.19
11.94
12.38
12.63
12.79
12.97
13.10
12.91
12.05
10.25
7.48
4.09
0.60
-2.53
-5.28
-8.06
-11.56
-16.35
-22.52
-29.59
-36.66
-42.60
-46.31
-47.05
-44.54
-39.05
-31.31
-22.28
-12.90
-3.86
4.36
11.44
16.97
20.55
21.87
21.09
18.90
16.38
14.59
14.15
14.97
16.48
17.96
18.92
19.31
19.35
19.31
19.18
18.63
17.23
14.59
10.70
5.91
0.78
-4.08
-8.26
-11.71
-14.65
-17.55
-21.01
-25.56
-31.49
-38.75
-46.69
-54.13
-59.55
-61.55
-59.31
-52.91
-43.38
-32.24
-21.04
-10.84
-2.10
5.22
11.27
16.04
19.43
21.40
22.15
22.10
21.74
21.36
20.99
20.56
20.03
19.60
19.62
20.34
21.65
23.16
24.31
24.56
23.67
21.70
18.84
15.31
11.20
6.57
1.43
-4.13
-10.10
-16.47
-23.36
-30.76
-38.42
-45.67
-51.43
-54.59
-54.37
-50.52
-43.47
-34.04
-23.19
-11.87
-1.00
8.68
16.47
21.97
25.20
26.61
26.89
26.80
26.86
27.33
28.21
29.42
30.86
32.48
34.21
35.96
37.55
38.78
39.42
39.28
38.27
36.35
33.55
29.98
25.78
21.18
16.35
11.46
6.48
1.17
-4.86
-11.95
-20.20
-29.21
-38.13
-45.73
-50.80
-52.42
-50.14
-44.12
-34.92
-23.55
-11.25
0.77
11.49
20.28
26.93
31.55
34.34
35.61
35.73
35.16
34.52
34.41
35.22
36.94
39.12
41.09
42.23
42.37
41.72
40.77
39.83
38.87
37.53
35.32
31.96
27.52
22.35
16.97
11.77
6.84
1.92
-3.47
-9.86
-17.58
-26.51
-36.13
-45.50
-53.56
-59.37
-62.29
-61.98
-58.39
-51.58
-41.82
-29.69
-16.16
-2.57
9.63
19.21
25.59
28.91
29.89
29.56
28.86
28.41
28.53
29.25
30.52
32.32
34.71
37.71
41.14
44.58
47.48
49.34
49.90
49.20
47.47
44.93
41.77
38.01
33.65
28.71
23.17
16.93
9.82
1.62
-7.70
-17.83
-28.04
-37.22
-44.17
-47.85
-47.72
-43.77
-36.57
-27.15
-16.67
-6.22
3.38
11.69
18.54
23.92
27.85
30.35
31.47
31.39
30.47
29.29
28.46
28.52
29.71
31.94
34.78
37.67
40.04
41.48
41.69
40.45
37.63
33.17
27.37
20.87
14.60
9.36
5.42
2.27
-1.20
-6.19
-13.40
-22.53
-32.44
-41.50
-48.28
-51.98
-52.49
-50.19
-45.53
-38.84
-30.43
-20.72
-10.44
-0.54
8.05
14.74
19.51
22.74
24.98
26.71
28.17
29.46
30.75
32.27
34.25
36.67
39.22
41.30
42.45
42.46
41.56
40.20
38.67
36.97
34.82
31.86
27.92
23.19
18.03
12.82
7.75
2.85
-2.04
-7.13
-12.64
-18.71
-25.35
-32.35
-39.10
-44.71
-48.11
-48.42
-45.23
-38.73
-29.63
-18.91
-7.69
3.02
12.41
19.80
24.89
27.75
28.82
28.79
28.47
28.46
29.15
30.61
32.67
34.99
37.19
38.86
39.67
39.58
38.79
37.73
36.71
35.73
34.41
32.17
28.60
23.77
18.24
12.87
8.30
4.74
1.91
-0.77
-3.91
-7.99
-13.22
-19.62
-26.91
-34.43
-41.14
-45.77
-47.26
-45.15
-39.83
-32.33
-23.94
-15.70
-8.18
-1.38
4.83
10.48
15.33
18.95
21.04
21.68
21.37
20.87
20.81
21.33
22.14
22.71
22.66
22.07
21.40
21.23
21.81
22.95
24.07
24.52
23.85
22.04
19.28
15.83
11.86
7.48
2.78
-1.98
-6.44
-10.34
-13.65
-16.66
-19.91
-23.88
-28.86
-34.65
-40.59
-45.65
-48.69
-48.91
-46.12
-40.84
-34.09
-26.98
-20.29
-14.24
-8.70
-3.42
1.52
5.74
8.78
10.38
10.74
10.41
9.96
9.69
9.60
9.56
9.57
9.87
10.80
12.50
14.72
16.85
18.20
18.34
17.24
15.20
12.65
9.89
7.02
4.10
1.18
-1.62
-4.25
-6.83
-9.63
-13.07
-17.37
-22.50
-28.03
-33.20
-37.07
-38.82
-37.96
-34.53
-29.11
-22.61
-16.02
-10.05
-5.09
-1.11
2.03
4.42
6.03
6.81
6.84
6.39
5.89
5.75
6.16
7.06
8.27
9.59
10.92
12.24
13.47
14.35
14.41
13.22
10.55
6.67
2.26
-1.83
-5.01
-7.15
-8.71
-10.35
-12.54
-15.41
-18.72
-22.22
-25.89
-29.91
-34.46
-39.36
-43.92
-47.15
-48.13
-46.37
-42.04
-35.78
-28.43
-20.78
-13.32
-6.43
-0.47
4.12
6.90
7.73
6.88
5.04
3.14
1.99
1.98
2.98
4.45
5.81
6.72
7.24
7.65
8.23
9.03
9.77
10.12
9.90
9.15
8.05
6.69
4.96
2.66
-0.32
-3.80
-7.32
-10.40
-12.82
-14.86
-17.18
-20.46
-25.07
-30.84
-37.05
-42.73
-46.92
-48.98
-48.56
-45.72
-40.78
-34.31
-27.06
-19.76
-13.15
-7.76
-3.73
-0.91
1.12
2.80
4.37
5.82
7.04
7.91
8.55
9.26
10.32
11.83
13.69
15.59
17.30
18.77
19.96
20.81
21.10
20.50
18.85
16.26
13.12
9.92
6.96
4.27
1.63
-1.18
-4.32
-7.69
-11.28
-15.11
-19.48
-24.69
-30.83
-37.64
-44.30
-49.74
-52.92
-53.15
-50.31
-44.85
-37.61
-29.62
-21.74
-14.54
-8.32
-3.11
1.11
4.35
6.60
7.89
8.43
8.57
8.73
9.26
10.30
11.82
13.50
15.01
15.99
16.33
16.02
15.32
14.48
13.67
12.94
12.04
10.68
8.63
5.85
2.49
-1.07
-4.44
-7.37
-9.93
-12.46
-15.42
-19.20
-23.76
-28.71
-33.36
-36.94
-38.79
-38.48
-35.81
-30.75
-23.52
-14.65
-5.00
4.30
12.22
18.06
21.56
23.00
22.89
21.88
20.69
19.94
20.09
21.32
23.42
25.85
27.94
29.17
29.21
28.02
25.63
22.25
18.11
13.59
9.18
5.31
2.08
-0.71
-3.49
-6.67
-10.42
-14.65
-19.12
-23.63
-28.16
-32.89
-37.96
-43.32
-48.69
-53.49
-57.15
-59.15
-59.05
-56.49
-51.34
-43.74
-34.29
-23.99
-13.93
-5.09
2.01
7.30
10.96
13.31
14.61
15.13
15.23
15.34
15.82
16.81
18.13
19.49
20.64
21.60
22.47
23.31
23.86
23.68
22.34
19.78
16.38
12.73
9.32
6.22
3.19
-0.03
-3.52
-7.06
-10.38
-13.41
-16.52
-20.38
-25.57
-32.22
-39.67
-46.58
-51.31
-52.48
-49.49
-42.74
-33.47
-23.31
-13.71
-5.46
1.25
6.67
11.01
14.26
16.13
16.34
14.96
12.52
9.86
7.79
6.82
6.95
7.93
9.44
11.29
13.45
15.81
18.07
19.63
19.93
18.62
15.88
12.21
8.22
4.36
0.64
-3.08
-7.09
-11.50
-16.33
-21.58
-27.20
-33.08
-38.87
-43.85
-47.01
-47.41
-44.43
-38.09
-29.15
-18.73
-8.27
1.05
8.34
13.32
16.21
17.54
17.91
17.74
17.29
16.66
16.05
15.71
15.95
16.84
18.20
19.63
20.60
20.83
20.31
19.21
17.76
16.10
14.13
11.65
8.42
4.30
-0.68
-6.48
-12.95
-20.00
-27.47
-35.13
-42.53
-48.96
-53.55
-55.44
-54.05
-49.25
-41.47
-31.54
-20.61
-9.79
-0.08
7.85
13.73
17.63
19.94
21.15
21.70
21.87
21.86
21.82
21.92
22.36
23.22
24.39
25.56
26.42
26.76
26.61
26.03
25.07
23.61
21.43
18.44
14.76
10.72
6.62
2.48
-2.03
-7.45
-14.22
-22.34
-31.22
-39.80
-46.77
-50.98
-51.72
-48.93
-43.12
-35.07
-25.70
-15.83
-6.24
2.37
9.46
14.67
18.03
19.96
21.09
22.02
23.08
24.25
25.36
26.30
27.15
28.10
29.18
30.16
30.66
30.36
29.24
27.54
25.66
23.87
22.16
20.24
17.73
14.36
10.04
4.91
-0.77
-6.77
-13.03
-19.54
-26.35
-33.48
-40.69
-47.47
-53.10
-56.82
-58.07
-56.58
-52.39
-45.71
-36.99
-26.76
-15.69
-4.65
5.49
14.04
20.67
25.45
28.75
31.04
32.66
33.86
34.83
35.82
37.08
38.81
40.95
43.23
45.20
46.44
46.68
45.98
44.60
42.92
41.13
39.22
36.90
33.78
29.59
24.35
18.45
12.54
7.15
2.44
-1.88
-6.42
-11.82
-18.37
-25.94
-34.01
-41.73
-48.14
-52.24
-53.21
-50.63
-44.61
-35.78
-25.17
-13.97
-3.11
6.77
15.29
22.21
27.45
30.91
32.72
33.11
32.58
31.76
31.28
31.70
33.25
35.80
38.81
41.55
43.37
44.01
43.63
42.70
41.65
40.68
39.54
37.82
35.16
31.53
27.24
22.80
18.66
15.01
11.69
8.25
4.23
-0.82
-7.10
-14.61
-23.00
-31.72
-39.93
-46.67
-51.06
-52.40
-50.49
-45.61
-38.46
-29.86
-20.61
-11.42
-2.82
4.80
11.16
16.10
19.64
21.88
23.10
23.59
23.74
23.94
24.45
25.40
26.70
28.19
29.72
31.23
32.82
34.55
36.30
37.66
38.06
37.01
34.38
30.48
25.89
21.26
16.99
13.21
9.84
6.67
3.45
-0.10
-4.26
-9.34
-15.55
-22.87
-30.89
-38.77
-45.39
-49.59
-50.52
-47.89
-42.07
-33.99
-24.89
-15.88
-7.67
-0.57
5.48
10.58
14.67
17.57
19.19
19.62
19.25
18.58
18.13
18.27
19.17
20.84
23.18
25.94
28.65
30.75
31.74
31.40
29.90
27.64
25.01
22.26
19.41
16.35
13.02
9.47
5.72
1.74
-2.63
-7.53
-12.97
-18.82
-24.83
-30.75
-36.31
-41.19
-44.86
-46.60
-45.73
-41.91
-35.43
-27.04
-17.83
-8.89
-1.04
5.31
10.10
13.50
15.81
17.27
18.11
18.53
18.72
18.92
19.34
20.13
21.32
22.82
24.41
25.87
27.04
27.88
28.46
28.85
29.02
28.75
27.75
25.73
22.53
18.25
13.33
8.38
3.97
0.42
-2.36
-4.77
-7.41
-10.87
-15.57
-21.74
-29.22
-37.42
-45.35
-51.77
-55.53
-55.91
-52.85
-46.93
-39.16
-30.68
-22.43
-14.99
-8.56
-3.03
1.86
6.34
10.50
14.18
17.05
18.85
19.52
19.39
19.05
19.09
19.89
21.44
23.53
25.80
28.01
30.01
31.57
32.38
32.08
30.43
27.53
23.86
20.11
16.90
14.45
12.56
10.80
8.68
5.93
2.49
-1.55
-6.06
-10.91
-16.02
-21.38
-26.97
-32.83
-38.91
-44.88
-50.07
-53.54
-54.31
-51.77
-45.95
-37.52
-27.70
-17.76
-8.68
-0.99
5.16
9.92
13.33
15.45
16.26
15.86
14.63
13.26
12.49
12.86
14.46
16.82
19.23
21.05
22.05
22.37
22.37
22.29
22.10
21.61
20.61
19.08
17.18
15.08
12.84
10.37
7.56
4.45
1.20
-1.97
-4.95
-7.80
-10.73
-13.91
-17.41
-21.30
-25.61
-30.37
-35.53
-40.83
-45.64
-49.11
-50.34
-48.80
-44.45
-37.86
-29.98
-21.78
-14.02
-7.04
-0.93
4.33
8.66
11.87
13.75
14.28
13.71
12.53
11.30
10.49
10.33
10.87
12.07
13.81
15.98
18.35
20.54
22.11
22.62
21.97
20.37
18.34
16.46
15.01
13.86
12.57
10.64
7.88
4.39
0.59
-3.13
-6.56
-9.72
-12.80
-15.96
-19.33
-22.99
-27.01
-31.43
-36.16
-40.90
-45.13
-48.11
-49.17
-47.89
-44.26
-38.73
-31.98
-24.79
-17.77
-11.25
-5.38
-0.28
3.89
6.88
8.58
9.05
8.68
7.99
7.50
7.50
8.02
8.81
9.63
10.35
11.07
11.99
13.23
14.66
15.94
16.62
16.40
15.18
13.05
10.21
6.85
3.13
-0.66
-4.22
-7.28
-9.70
-11.67
-13.63
-16.03
-19.19
-23.14
-27.68
-32.46
-37.03
-40.84
-43.28
-43.73
-41.75
-37.33
-30.95
-23.44
-15.75
-8.65
-2.55
2.37
6.11
8.66
9.95
10.00
8.99
7.33
5.58
4.34
3.95
4.52
5.87
7.64
9.47
11.05
12.24
12.97
13.21
13.01
12.30
10.98
9.00
6.41
3.30
-0.08
-3.59
-7.11
-10.71
-14.49
-18.58
-23.06
-27.93
-33.10
-38.29
-43.05
-46.75
-48.67
-48.22
-45.15
-39.77
-32.85
-25.45
-18.48
-12.54
-7.68
-3.65
-0.11
3.13
5.97
8.12
9.38
9.81
9.69
9.48
9.53
10.01
10.88
12.02
13.37
14.93
16.68
18.47
19.99
20.89
20.88
19.87
17.95
15.31
12.07
8.39
4.38
0.19
-4.02
-8.11
-12.03
-15.89
-19.91
-24.40
-29.59
-35.52
-41.95
-48.37
-54.11
-58.37
-60.41
-59.69
-56.06
-49.73
-41.38
-31.92
-22.38
-13.60
-6.10
-0.11
4.45
7.71
9.81
10.88
11.17
11.19
11.53
12.70
14.77
17.46
20.16
22.40
24.10
25.45
26.74
27.93
28.61
28.15
26.17
22.75
18.52
14.25
10.51
7.33
4.34
1.10
-2.61
-6.68
-10.87
-15.06
-19.35
-24.16
-29.88
-36.69
-44.28
-51.86
-58.30
-62.46
-63.45
-60.87
-55.00
-46.54
-36.55
-26.03
-15.80
-6.42
1.71
8.28
13.01
15.83
16.97
17.00
16.65
16.62
17.36
18.97
21.23
23.79
26.29
28.49
30.29
31.75
33.02
34.27
35.49
36.49
36.83
36.03
33.77
30.15
25.66
21.04
16.83
13.31
10.24
7.16
3.56
-0.83
-6.05
-11.92
-18.30
-25.03
-31.95
-38.84
-45.20
-50.35
-53.46
-53.80
-50.92
-44.94
-36.51
-26.80
-17.12
-8.63
-1.97
2.83
6.10
8.31
9.81
10.73
11.11
11.17
11.31
12.11
13.96
16.96
20.79
24.95
28.97
32.56
35.68
38.29
40.19
41.08
40.59
38.60
35.32
31.23
26.87
22.56
18.30
13.92
9.21
4.12
-1.22
-6.66
-12.15
-17.79
-23.77
-30.08
-36.32
-41.71
-45.18
-45.76
-42.85
-36.48
-27.35
-16.61
-5.65
4.32
12.42
18.26
21.92
23.75
24.25
23.99
23.52
23.25
23.49
24.33
25.70
27.38
29.10
30.65
32.00
33.17
34.26
35.17
35.69
35.50
34.29
31.91
28.45
24.26
19.74
15.27
11.06
7.06
2.97
-1.60
-7.07
-13.66
-21.24
-29.37
-37.19
-43.62
-47.51
-47.93
-44.43
-37.31
-27.51
-16.38
-5.34
4.60
12.84
19.15
23.43
25.57
25.56
23.69
20.70
17.69
15.75
15.48
16.75
18.89
21.16
23.13
24.83
26.52
28.28
29.79
30.38
29.45
26.77
22.64
17.72
12.66
7.80
3.13
-1.55
-6.42
-11.50
-16.79
-22.34
-28.30
-34.79
-41.62
-48.09
-53.12
-55.61
-54.80
-50.53
-43.26
-33.80
-23.04
-11.83
-0.91
9.04
17.40
23.68
27.70
29.64
29.99
29.47
28.81
28.56
28.98
30.11
31.82
33.90
36.14
38.36
40.31
41.73
42.32
41.80
40.06
37.21
33.54
29.46
25.26
21.00
16.57
11.71
6.26
0.19
-6.40
-13.39
-20.72
-28.50
-36.78
-45.41
-53.82
-61.08
-66.08
-67.89
-66.06
-60.74
-52.66
-42.82
-32.29
-21.96
-12.49
-4.26
2.62
8.23
12.75
16.35
19.18
21.37
23.16
24.82
26.70
29.02
31.79
34.70
37.32
39.26
40.37
40.80
40.84
40.74
40.48
39.82
38.40
35.86
32.13
27.34
21.84
16.09
10.44
5.14
0.10
-4.97
-10.50
-16.91
-24.46
-33.04
-42.15
-50.81
-57.78
-61.71
-61.57
-56.98
-48.37
-36.93
-24.31
-12.10
-1.54
6.72
12.62
16.48
18.87
20.50
22.02
23.93
26.43
29.33
32.14
34.36
35.67
36.07
35.85
35.37
34.93
34.62
34.43
34.26
33.94
33.21
31.76
29.31
25.77
21.33
16.45
11.60
7.03
2.63
-2.01
-7.33
-13.61
-20.76
-28.45
-36.18
-43.40
-49.57
-54.00
-56.03
-55.09
-50.92
-43.73
-34.13
-23.02
-11.44
-0.37
9.45
17.50
23.58
27.81
30.57
32.44
34.03
35.79
37.83
39.96
41.83
43.06
43.49
43.18
42.39
41.45
40.70
40.30
40.17
39.98
39.26
37.53
34.57
30.47
25.60
20.42
15.30
10.33
5.49
0.67
-4.25
-9.39
-14.95
-21.18
-28.25
-35.85
-43.19
-48.96
-51.83
-50.96
-46.25
-38.48
-28.87
-18.80
-9.31
-1.04
5.79
11.21
15.36
18.48
20.80
22.60
24.25
25.99
27.99
30.24
32.61
34.98
37.32
39.68
42.13
44.60
46.71
47.95
47.85
46.31
43.59
40.36
37.23
34.58
32.33
30.05
27.24
23.64
19.32
14.54
9.62
4.69
-0.24
-5.29
-10.58
-16.23
-22.38
-29.22
-36.76
-44.61
-51.87
-57.28
-59.57
-57.92
-52.39
-43.82
-33.57
-22.95
-12.96
-4.17
3.23
9.17
13.70
17.00
19.40
21.30
23.06
24.86
26.68
28.40
29.90
31.24
32.56
34.09
35.95
37.98
39.93
41.40
42.15
42.13
41.46
40.40
39.10
37.65
35.93
33.83
31.24
28.19
24.78
21.10
17.18
12.96
8.37
3.45
-1.66
-6.75
-11.74
-16.66
-21.76
-27.35
-33.63
-40.45
-47.22
-52.95
-56.55
-57.14
-54.44
-48.86
-41.26
-32.69
-24.05
-15.91
-8.65
-2.46
2.49
6.10
8.38
9.54
9.88
9.78
9.54
9.34
9.30
9.49
10.00
10.94
12.30
13.95
15.64
17.08
17.99
18.28
18.04
17.50
16.84
16.12
15.06
13.30
10.57
6.88
2.65
-1.49
-5.08
-7.96
-10.37
-12.70
-15.26
-18.17
-21.33
-24.61
-28.03
-31.83
-36.33
-41.67
-47.54
-53.07
-57.00
-58.13
-55.71
-49.91
-41.74
-32.70
-24.22
-17.21
-11.76
-7.44
-3.73
-0.37
2.48
4.48
5.47
5.59
5.24
4.92
4.94
5.46
6.50
7.95
9.72
11.64
13.52
15.09
16.10
16.36
15.72
14.11
11.56
8.16
4.15
-0.14
-4.39
-8.31
-11.79
-14.84
-17.52
-19.92
-22.10
-24.21
-26.52
-29.35
-32.91
-37.03
-41.07
-44.06
-45.02
-43.37
-39.25
-33.37
-26.68
-20.02
-13.85
-8.21
-3.04
1.63
5.62
8.61
10.32
10.76
10.18
9.06
7.97
7.37
7.51
8.41
9.81
11.37
12.72
13.66
14.18
14.33
14.09
13.34
11.92
9.72
6.94
3.83
0.71
-2.34
-5.44
-8.79
-12.46
-16.12
-19.26
-21.42
-22.64
-23.56
-25.11
-28.13
-32.84
-38.74
-44.83
-50.01
-53.36
-54.37
-52.81
-48.74
-42.55
-34.85
-26.56
-18.74
-12.21
-7.31
-3.90
-1.45
0.54
2.33
3.87
5.02
5.74
6.14
6.54
7.22
8.29
9.64
11.03
12.25
13.25
14.12
14.96
15.79
16.41
16.46
15.68
13.86
11.10
7.63
3.75
-0.28
-4.37
-8.53
-12.68
-16.71
-20.39
-23.59
-26.37
-29.05
-32.11
-35.94
-40.53
-45.40
-49.66
-52.26
-52.34
-49.61
-44.33
-37.16
-29.03
-20.80
-13.15
-6.49
-0.99
3.36
6.56
8.68
9.78
10.04
9.74
9.30
9.09
9.42
10.35
11.70
13.27
14.92
16.59
18.28
19.90
21.14
21.65
21.19
19.75
17.53
14.80
11.76
8.51
5.05
1.39
-2.48
-6.50
-10.58
-14.52
-18.18
-21.53
-24.72
-28.25
-32.72
-38.50
-45.32
-52.25
-57.79
-60.55
-59.69
-55.19
-47.77
-38.47
-28.41
-18.50
-9.59
-2.28
3.09
6.49
8.23
8.83
8.74
8.27
7.62
6.96
6.49
6.52
7.24
8.68
10.67
12.97
15.36
17.65
19.65
21.21
22.07
22.03
20.94
18.81
15.72
11.90
7.65
3.33
-0.69
-4.15
-7.05
-9.71
-12.61
-16.24
-20.83
-26.34
-32.40
-38.40
-43.61
-47.33
-48.99
-48.21
-44.95
-39.39
-31.98
-23.36
-14.32
-5.67
1.89
7.85
11.98
14.31
15.06
14.60
13.38
12.00
11.13
11.35
12.97
15.85
19.42
22.85
25.47
26.87
27.14
26.60
25.74
24.87
24.08
23.27
22.13
20.28
17.43
13.54
8.80
3.70
-1.23
-5.66
-9.57
-13.28
-17.28
-21.92
-27.37
-33.53
-40.19
-47.05
-53.63
-59.24
-62.89
-63.58
-60.62
-54.01
-44.58
-33.68
-22.77
-13.03
-5.07
1.03
5.52
8.77
11.17
13.09
14.86
16.72
18.80
21.03
23.33
25.60
27.86
30.18
32.64
35.24
37.80
40.04
41.53
41.89
40.88
38.60
35.47
32.12
29.14
26.80
24.98
23.23
20.96
17.81
13.67
8.75
3.49
-1.78
-6.78
-11.52
-16.14
-20.95
-26.35
-32.55
-39.46
-46.65
-53.25
-58.27
-60.78
-60.17
-56.27
-49.37
-40.18
-29.75
-19.27
-9.74
-1.87
4.16
8.56
11.84
14.43
16.60
18.42
19.96
21.42
23.13
25.46
28.55
32.23
36.09
39.65
42.60
44.93
46.73
48.02
48.63
48.22
46.51
43.48
39.51
35.16
30.99
27.25
23.84
20.50
16.94
13.08
9.03
4.88
0.63
-3.86
-8.73
-14.14
-20.09
-26.56
-33.50
-40.75
-47.91
-54.28
-58.88
-60.73
-59.19
-54.24
-46.47
-36.93
-26.82
-17.15
-8.58
-1.42
4.31
8.82
12.38
15.26
17.66
19.82
21.97
24.41
27.31
30.73
34.42
37.98
41.01
43.29
44.81
45.76
46.23
46.19
45.46
43.91
41.52
38.49
35.20
31.96
28.93
26.01
22.98
19.58
15.63
11.12
6.23
1.26
-3.46
-7.68
-11.36
-14.66
-18.06
-22.09
-27.20
-33.52
-40.63
-47.56
-52.99
-55.63
-54.67
-49.97
-42.17
-32.38
-21.91
-11.90
-3.21
3.76
8.95
12.48
14.69
15.98
16.78
17.53
18.65
20.37
22.72
25.48
28.25
30.63
32.40
33.64
34.55
35.37
36.19
36.86
37.05
36.47
34.93
32.48
29.30
25.68
21.88
18.15
14.62
11.36
8.30
5.39
2.46
-0.70
-4.30
-8.60
-13.85
-20.16
-27.47
-35.48
-43.67
-51.31
-57.53
-61.49
-62.51
-60.24
-54.78
-46.68
-36.89
-26.50
-16.54
-7.70
-0.28
5.71
10.41
13.84
15.94
16.66
16.15
14.93
13.82
13.66
15.02
17.91
21.74
25.59
28.61
30.39
31.03
30.98
30.66
30.13
29.12
27.17
24.02
19.79
15.03
10.43
6.47
3.19
0.22
-3.01
-7.02
-12.11
-18.25
-25.22
-32.63
-40.04
-46.92
-52.63
-56.42
-57.50
-55.28
-49.70
-41.30
-31.24
-20.89
-11.44
-3.48
2.96
8.26
12.76
16.55
19.47
21.30
22.08
22.19
22.19
22.60
23.69
25.41
27.55
29.80
31.90
33.69
35.04
35.84
35.97
35.32
33.85
31.61
28.74
25.42
21.73
17.72
13.41
8.89
4.33
-0.08
-4.22
-8.15
-12.04
-16.04
-20.19
-24.52
-29.01
-33.75
-38.78
-43.84
-48.29
-51.04
-51.03
-47.60
-40.91
-31.88
-21.89
-12.28
-3.93
2.75
7.72
11.06
12.95
13.56
13.19
12.26
11.25
10.63
10.79
11.93
14.07
17.01
20.37
23.67
26.59
28.87
30.53
31.62
32.19
32.18
31.44
29.92
27.71
25.08
22.34
19.69
17.16
14.56
11.66
8.29
4.45
0.24
-4.22
-8.97
-14.16
-20.05
-26.80
-34.30
-41.95
-48.84
-53.78
-55.70
-53.97
-48.54
-39.97
-29.26
-17.57
-6.00
4.50
13.28
20.01
24.62
27.39
28.79
29.34
29.56
29.82
30.37
31.29
32.65
34.38
36.39
38.53
40.56
42.32
43.59
44.18
43.81
42.23
39.23
34.91
29.63
23.99
18.59
13.81
9.63
5.81
1.99
-2.17
-6.78
-11.86
-17.43
-23.53
-30.21
-37.28
-44.26
-50.32
-54.48
-55.84
-53.96
-49.07
-41.97
-33.78
-25.57
-18.02
-11.32
-5.38
-0.09
4.44
7.86
9.85
10.35
9.78
8.87
8.35
8.62
9.67
11.25
13.02
14.83
16.65
18.35
19.55
19.59
17.91
14.27
9.12
3.40
-1.87
-6.00
-9.02
-11.57
-14.51
-18.56
-23.97
-30.53
-37.69
-44.88
-51.52
-57.07
-60.84
-62.00
-59.78
-53.81
-44.42
-32.74
-20.45
-9.24
-0.38
5.74
9.50
11.77
13.54
15.51
17.99
20.90
24.04
27.15
30.07
32.75
35.13
37.18
38.89
40.32
41.53
42.58
43.48
44.08
44.16
43.37
41.46
38.40
34.51
30.29
26.30
22.80
19.66
16.37
12.39
7.46
1.75
-4.09
-9.11
-12.43
-13.45
-11.94
-8.02
-2.13
5.09
12.76
19.95
25.87
29.99
32.24
32.85
32.29
31.04
29.48
27.91
26.49
25.39
24.78
24.75
25.28
26.20
27.20
27.88
27.93
27.15
25.48
23.03
20.07
16.86
13.62
10.47
7.40
4.29
0.95
-2.90
-7.55
-13.21
-19.92
-27.32
-34.68
-40.96
-45.04
-46.03
-43.58
-37.94
-29.90
-20.53
-10.92
-1.98
5.64
11.61
15.85
18.50
19.89
20.42
20.40
20.05
19.45
18.59
17.52
16.41
15.45
14.83
14.60
14.63
14.67
14.38
13.54
11.98
9.69
6.81
3.46
-0.21
-4.08
-8.07
-12.20
-16.55
-21.24
-26.38
-31.93
-37.54
-42.50
-45.83
-46.49
-43.90
-38.11
-29.93
-20.62
-11.47
-3.37
3.29
8.44
12.06
14.03
14.32
13.14
11.12
9.18
8.13
8.35
9.64
11.46
13.25
14.66
15.65
16.32
16.68
16.66
16.07
14.85
13.10
11.02
8.76
6.35
3.63
0.37
-3.63
-8.41
-13.90
-19.95
-26.30
-32.61
-38.29
-42.58
-44.65
-43.93
-40.28
-34.15
-26.44
-18.22
-10.43
-3.67
1.88
6.31
9.80
12.51
14.57
16.13
17.33
18.32
19.16
19.89
20.48
20.91
21.15
21.21
21.10
20.89
20.59
20.16
19.40
18.10
16.05
13.19
9.63
5.70
1.77
-1.91
-5.31
-8.68
-12.35
-16.68
-21.66
-27.07
-32.37
-36.86
-39.93
-41.11
-40.23
-37.38
-32.86
-27.17
-20.85
-14.44
-8.33
-2.79
2.05
6.18
9.48
11.82
13.03
13.14
12.50
11.71
11.43
12.08
13.58
15.44
16.92
17.47
16.95
15.67
14.16
12.94
12.23
11.95
11.77
11.34
10.32
8.48
5.78
2.42
-1.26
-4.91
-8.30
-11.48
-14.71
-18.37
-22.79
-28.00
-33.63
-38.98
-43.12
-45.22
-44.76
-41.63
-36.19
-29.09
-21.09
-12.89
-5.14
1.61
6.79
9.89
10.71
9.52
7.22
5.05
4.16
5.13
7.79
11.36
14.84
17.53
19.24
20.18
20.73
21.03
20.96
20.24
18.68
16.36
13.64
10.90
8.35
5.93
3.42
0.72
-2.04
-4.57
-6.61
-8.28
-10.04
-12.60
-16.52
-21.84
-27.94
-33.80
-38.36
-40.90
-41.17
-39.38
-36.02
-31.64
-26.68
-21.43
-16.02
-10.52
-5.09
-0.02
4.26
7.37
9.12
9.69
9.53
9.17
9.01
9.13
9.39
9.63
9.74
9.86
10.27
11.14
12.47
13.99
15.22
15.65
14.90
12.98
10.18
7.05
4.10
1.56
-0.67
-2.93
-5.55
-8.72
-12.52
-16.98
-22.14
-27.98
-34.17
-39.88
-44.05
-45.59
-44.00
-39.57
-33.18
-25.99
-18.94
-12.55
-6.97
-2.19
1.78
4.80
6.72
7.55
7.52
7.02
6.45
6.14
6.21
6.72
7.60
8.78
10.18
11.61
12.85
13.57
13.59
12.79
11.31
9.27
6.81
3.97
0.78
-2.70
-6.23
-9.56
-12.59
-15.51
-18.82
-23.07
-28.43
-34.52
-40.33
-44.60
-46.27
-44.81
-40.42
-33.80
-25.85
-17.43
-9.23
-1.73
4.58
9.35
12.33
13.56
13.45
12.65
11.90
11.74
12.39
13.70
15.35
16.93
18.15
18.88
19.14
19.03
18.60
17.85
16.62
14.78
12.25
9.12
5.59
1.92
-1.82
-5.73
-10.09
-15.21
-21.23
-27.98
-35.07
-42.03
-48.45
-54.11
-58.77
-62.11
-63.60
-62.70
-59.05
-52.84
-44.77
-35.84
-27.06
-19.09
-12.17
-6.34
-1.62
1.87
3.89
4.38
3.66
2.43
1.56
1.78
3.36
6.03
9.11
11.84
13.66
14.47
14.51
14.20
13.88
13.56
13.03
11.91
9.99
7.22
3.80
-0.01
-3.94
-7.73
-11.28
-14.56
-17.77
-21.34
-25.74
-31.23
-37.60
-44.10
-49.55
-52.75
-52.88
-49.72
-43.74
-35.92
-27.39
-19.21
-12.09
-6.34
-1.84
1.84
5.21
8.68
12.42
16.35
20.21
23.72
26.71
29.11
31.00
32.59
34.07
35.60
37.19
38.73
39.94
40.50
40.21
39.00
37.00
34.37
31.24
27.64
23.58
19.15
14.62
10.27
6.33
2.77
-0.60
-4.06
-7.82
-11.98
-16.62
-21.86
-27.85
-34.59
-41.73
-48.47
-53.55
-55.73
-54.25
-49.12
-41.17
-31.77
-22.21
-13.42
-5.82
0.61
5.93
10.26
13.65
16.21
18.24
20.10
22.22
24.77
27.67
30.69
33.56
36.15
38.52
40.78
42.88
44.63
45.68
45.72
44.58
42.44
39.72
36.94
34.46
32.32
30.25
27.82
24.75
21.00
16.84
12.55
8.34
4.16
-0.15
-4.65
-9.33
-14.00
-18.58
-23.26
-28.44
-34.48
-41.34
-48.22
-53.74
-56.33
-54.89
-49.26
-40.29
-29.52
-18.58
-8.68
-0.42
6.13
11.18
15.05
17.99
20.23
22.04
23.71
25.47
27.42
29.61
32.01
34.62
37.38
40.12
42.57
44.40
45.39
45.49
44.82
43.64
42.13
40.35
38.27
35.79
32.91
29.70
26.33
22.88
19.40
15.81
12.03
8.05
3.97
-0.03
-3.81
-7.37
-10.96
-15.04
-20.06
-26.22
-33.27
-40.51
-46.92
-51.44
-53.21
-51.76
-47.10
-39.76
-30.57
-20.59
-10.87
-2.22
4.92
10.50
14.72
17.87
20.13
21.58
22.26
22.29
21.91
21.56
21.68
22.61
24.45
27.01
29.90
32.67
34.95
36.55
37.46
37.74
37.49
36.75
35.53
33.91
32.04
30.15
28.48
27.05
25.64
23.83
21.23
17.66
13.32
8.67
4.20
0.21
-3.36
-6.93
-10.93
-15.67
-21.19
-27.19
-33.25
-38.83
-43.43
-46.51
-47.57
-46.18
-42.13
-35.62
-27.23
-17.88
-8.57
-0.13
6.80
11.97
15.36
17.20
17.85
17.76
17.33
16.87
16.67
16.98
18.01
19.80
22.20
24.86
27.44
29.58
31.21
32.31
32.93
32.99
32.32
30.79
28.51
25.83
23.16
20.75
18.49
16.01
12.98
9.28
5.10
0.83
-3.20
-6.76
-9.83
-12.61
-15.35
-18.35
-21.89
-26.21
-31.41
-37.33
-43.52
-49.20
-53.41
-55.18
-53.83
-49.26
-41.96
-33.05
-23.94
-15.87
-9.55
-5.12
-2.14
0.02
1.89
3.78
5.77
7.80
9.83
11.86
13.95
16.13
18.35
20.43
22.12
23.26
23.86
24.19
24.66
25.52
26.73
27.83
28.07
26.92
24.29
20.63
16.74
13.28
10.51
8.29
6.21
3.88
1.21
-1.72
-4.74
-7.76
-10.81
-14.04
-17.61
-21.69
-26.43
-31.84
-37.74
-43.62
-48.65
-51.87
-52.48
-50.10
-44.98
-37.92
-29.93
-21.96
-14.62
-8.11
-2.39
2.70
7.13
10.77
13.45
15.12
15.91
16.06
15.89
15.68
15.60
15.84
16.50
17.61
19.06
20.63
22.01
22.91
23.19
22.86
21.96
20.62
18.75
16.28
13.22
9.80
6.48
3.77
1.94
0.81
-0.16
-1.74
-4.45
-8.30
-12.74
-16.92
-20.26
-22.69
-24.86
-27.68
-31.87
-37.51
-43.90
-49.83
-53.96
-55.37
-53.69
-49.14
-42.26
-33.79
-24.49
-15.13
-6.62
0.26
4.87
7.04
7.13
5.96
4.59
3.89
4.25
5.51
7.14
8.57
9.52
10.16
10.99
12.51
14.83
17.57
19.94
21.14
20.75
18.92
16.22
13.36
10.82
8.67
6.70
4.60
2.23
-0.39
-3.08
-5.68
-8.14
-10.48
-12.79
-15.08
-17.38
-19.76
-22.45
-25.75
-29.91
-34.95
-40.42
-45.51
-49.18
-50.47
-48.88
-44.51
-38.03
-30.41
-22.66
-15.55
-9.47
-4.48
-0.64
2.05
3.49
3.63
2.56
0.63
-1.57
-3.38
-4.27
-3.94
-2.41
0.07
3.17
6.57
10.08
13.53
16.65
19.16
20.67
20.92
19.87
17.73
14.86
11.75
8.76
6.09
3.76
1.60
-0.59
-3.01
-5.74
-8.76
-12.08
-15.73
-19.85
-24.64
-30.11
-35.99
-41.56
-45.83
-47.87
-47.01
-43.18
-36.78
-28.62
-19.71
-11.06
-3.43
2.70
7.35
10.82
13.48
15.56
17.06
17.85
17.94
17.57
17.28
17.66
19.03
21.28
23.96
26.51
28.57
30.05
31.12
31.94
32.50
32.58
31.88
30.21
27.53
23.98
19.84
15.35
10.67
5.93
1.14
-3.71
-8.68
-13.85
-19.38
-25.36
-31.71
-38.08
-43.94
-48.59
-51.32
-51.54
-48.93
-43.56
-35.90
-26.82
-17.39
-8.67
-1.47
3.79
7.05
8.55
8.64
7.73
6.14
4.23
2.30
0.65
-0.43
-0.74
-0.21
1.08
2.89
4.80
6.37
7.25
7.23
6.40
5.02
3.36
1.53
-0.57
-3.20
-6.55
-10.62
-15.18
-19.96
-24.88
-30.10
-35.87
-42.21
-48.54
-53.77
-56.57
-55.95
-51.64
-44.21
-34.78
-24.68
-14.94
-6.33
0.74
6.02
9.50
11.37
11.95
11.70
11.02
10.33
9.92
10.00
10.71
12.07
13.90
15.94
17.81
19.17
19.73
19.34
18.02
15.90
13.17
10.11
6.87
3.51
-0.08
-4.12
-8.86
-14.47
-21.02
-28.39
-36.23
-43.78
-49.99
-53.64
-53.81
-50.16
-43.16
-33.86
-23.55
-13.34
-3.99
4.08
10.62
15.54
18.90
20.92
22.02
22.69
23.32
24.16
25.23
26.47
27.77
29.12
30.44
31.74
33.05
34.27
35.31
35.87
35.52
33.90
30.83
26.51
21.44
16.21
11.28
6.78
2.37
-2.51
-8.48
-15.80
-24.22
-32.91
-40.64
-46.05
-48.11
-46.37
-41.06
-32.96
-23.17
-12.78
-2.69
6.45
14.24
20.56
25.42
29.00
31.48
33.07
33.91
34.25
34.38
34.59
35.14
36.08
37.33
38.61
39.67
40.29
40.37
39.90
38.82
37.05
34.44
30.90
26.48
21.38
15.94
10.51
5.46
0.88
-3.37
-7.73
-12.75
-18.85
-26.16
-34.33
-42.60
-49.95
-55.42
-58.24
-57.93
-54.37
-47.77
-38.60
-27.57
-15.55
-3.52
7.63
17.12
24.50
29.64
32.78
34.46
35.35
36.02
36.85
37.98
39.47
41.31
43.44
45.70
47.78
49.23
49.71
49.06
47.53
45.61
43.78
42.30
41.05
39.70
37.86
35.20
31.66
27.21
21.97
16.10
9.93
3.84
-1.80
-6.87
-11.53
-16.33
-21.92
-28.85
-37.14
-46.13
-54.45
-60.42
-62.48
-59.80
-52.57
-42.03
-29.96
-18.12
-7.69
0.81
7.47
12.56
16.23
18.63
19.95
20.68
21.58
23.41
26.63
31.13
36.28
41.16
45.02
47.54
48.89
49.60
50.18
50.77
51.09
50.61
48.85
45.69
41.56
37.21
33.33
30.33
28.02
25.86
23.25
19.84
15.76
11.34
6.91
2.54
-1.95
-6.78
-12.03
-17.58
-23.29
-29.22
-35.56
-42.45
-49.53
-55.81
-59.99
-60.86
-57.94
-51.61
-42.98
-33.28
-23.50
-14.22
-5.73
1.76
7.98
12.70
15.81
17.55
18.40
18.99
19.91
21.55
23.98
27.00
30.20
33.15
35.56
37.39
38.69
39.58
40.11
40.16
39.55
38.23
36.29
33.95
31.54
29.33
27.40
25.66
23.76
21.30
18.01
13.96
9.46
5.04
1.07
-2.32
-5.27
-8.07
-11.02
-14.35
-18.39
-23.53
-30.09
-38.03
-46.68
-54.62
-60.19
-61.97
-59.42
-53.03
-44.07
-34.06
-24.38
-15.91
-9.02
-3.70
0.36
3.55
6.23
8.69
11.05
13.33
15.51
17.61
19.61
21.44
23.01
24.29
25.36
26.51
28.00
29.94
32.16
34.16
35.37
35.38
34.02
31.45
28.16
24.69
21.55
19.11
17.38
16.08
14.63
12.53
9.48
5.57
1.15
-3.38
-7.74
-11.87
-15.93
-20.07
-24.55
-29.54
-35.02
-40.79
-46.29
-50.66
-53.08
-52.96
-50.18
-45.11
-38.41
-30.80
-22.94
-15.33
-8.36
-2.37
2.40
5.92
8.16
9.30
9.58
9.38
9.20
9.53
10.69
12.62
14.97
17.29
19.28
21.01
22.65
24.35
25.95
27.00
27.10
26.17
24.43
22.42
20.53
18.83
17.09
14.93
12.07
8.43
4.14
-0.62
-5.64
-10.59
-15.08
-18.67
-21.15
-22.72
-24.00
-25.90
-29.13
-33.89
-39.57
-44.84
-48.17
-48.31
-44.91
-38.48
-30.29
-21.78
-14.10
-7.76
-2.84
0.91
3.65
5.46
6.37
6.53
6.28
6.10
6.45
7.58
9.45
11.78
14.13
16.14
17.64
18.68
19.41
19.98
20.30
20.08
18.99
16.94
14.15
11.16
8.52
6.48
4.92
3.40
1.55
-0.76
-3.39
-6.05
-8.57
-10.99
-13.62
-16.84
-20.97
-26.15
-32.27
-38.87
-45.30
-50.62
-53.92
-54.46
-51.90
-46.43
-38.76
-29.96
-21.13
-13.22
-6.73
-1.77
1.81
4.32
6.01
7.06
7.53
7.59
7.43
7.28
7.32
7.61
8.21
9.18
10.53
12.17
13.80
15.03
15.54
15.24
14.26
13.00
11.75
10.55
9.21
7.43
5.01
2.02
-1.23
-4.41
-7.34
-10.17
-13.20
-16.70
-20.83
-25.54
-30.69
-36.11
-41.67
-47.07
-51.81
-55.11
-56.03
-53.87
-48.48
-40.49
-31.15
-21.90
-13.76
-7.12
-1.77
2.73
6.59
9.68
11.76
12.74
12.86
12.67
12.68
13.08
13.77
14.45
15.02
15.61
16.54
18.02
19.96
22.00
23.67
24.57
24.41
23.06
20.56
17.08
13.03
8.95
5.33
2.40
0.02
-2.23
-4.81
-7.93
-11.54
-15.43
-19.42
-23.62
-28.28
-33.74
-40.04
-46.88
-53.40
-58.48
-60.98
-60.15
-55.94
-48.97
-40.28
-31.03
-22.07
-13.87
-6.62
-0.37
4.80
8.82
11.72
13.66
14.88
15.60
16.00
16.23
16.45
17.00
18.12
19.88
22.04
24.18
25.87
26.84
27.08
26.68
25.79
24.40
22.53
20.18
17.50
14.67
11.85
9.14
6.47
3.68
0.59
-2.97
-7.07
-11.63
-16.58
-21.85
-27.40
-33.28
-39.56
-46.19
-52.94
-59.20
-64.10
-66.66
-66.03
-61.84
-54.45
-44.79
-34.25
-24.10
-15.25
-8.03
-2.34
2.07
5.32
7.35
8.17
8.08
7.81
8.24
10.05
13.27
17.36
21.40
24.61
26.76
28.06
28.99
29.87
30.79
31.50
31.72
31.31
30.33
29.03
27.52
25.79
23.64
20.81
17.20
13.01
8.65
4.63
1.24
-1.56
-4.22
-7.32
-11.37
-16.60
-22.86
-29.74
-36.69
-42.95
-47.73
-50.15
-49.50
-45.46
-38.31
-28.91
-18.53
-8.48
0.23
7.04
11.91
15.11
17.14
18.52
19.59
20.65
21.82
23.24
25.10
27.58
30.69
34.18
37.57
40.27
41.87
42.21
41.52
40.23
38.72
37.21
35.72
34.18
32.57
30.87
29.03
27.01
24.69
21.94
18.71
15.06
11.11
7.01
2.97
-0.92
-4.63
-8.42
-12.78
-18.27
-25.26
-33.66
-42.72
-51.12
-57.43
-60.52
-59.84
-55.56
-48.29
-38.98
-28.62
-18.15
-8.43
-0.06
6.59
11.47
14.83
17.08
18.61
19.77
20.72
21.52
22.17
22.73
23.27
23.99
25.03
26.42
28.05
29.62
30.79
31.29
31.05
30.16
28.85
27.34
25.72
23.90
21.66
18.77
15.14
10.88
6.32
1.89
-2.03
-5.27
-7.90
-10.17
-12.53
-15.36
-19.06
-23.87
-29.76
-36.39
-43.08
-48.83
-52.62
-53.63
-51.51
-46.43
-39.07
-30.37
-21.31
-12.66
-4.93
1.62
6.98
11.26
14.67
17.34
19.45
21.10
22.50
23.90
25.61
27.88
30.72
33.87
36.80
39.01
40.15
40.25
39.62
38.65
37.65
36.66
35.57
34.14
32.19
29.64
26.57
23.09
19.35
15.55
11.78
8.12
4.56
1.02
-2.73
-7.00
-12.17
-18.56
-26.24
-34.96
-44.03
-52.45
-59.00
-62.68
-62.85
-59.46
-53.10
-44.71
-35.44
-26.18
-17.55
-9.82
-3.07
2.66
7.28
10.74
13.11
14.61
15.57
16.16
16.45
16.36
15.80
14.87
13.88
13.22
13.21
13.97
15.49
17.67
20.47
23.79
27.39
30.74
33.20
34.16
33.38
31.08
27.82
24.20
20.72
17.60
14.97
12.97
11.77
11.41
11.66
11.83
10.79
7.36
0.77
-8.93
-20.59
-32.25
-41.62
-46.88
-47.08
-42.41
-33.78
-22.47
-9.62
3.92
17.51
30.50
42.10
51.45
57.83
60.94
61.06
59.06
56.18
53.75
52.72
53.49
55.74
58.68
61.39
63.12
63.41
62.14
59.25
54.78
48.85
41.84
34.40
27.36
21.44
16.94
13.70
11.12
8.57
5.51
1.69
-2.94
-8.21
-13.82
-19.40
-24.58
-29.13
-33.08
-36.81
-40.91
-45.92
-51.95
-58.56
-64.67
-68.95
-70.29
-68.18
-62.88
-55.33
-46.71
-38.13
-30.40
-23.97
-18.88
-14.95
-11.96
-9.74
-8.28
-7.59
-7.66
-8.30
-9.08
-9.42
-8.86
-7.23
-4.71
-1.86
0.72
2.60
3.80
4.57
5.25
5.96
6.53
6.61
5.88
4.23
1.77
-1.18
-4.29
-7.28
-10.03
-12.50
-14.73
-16.84
-19.09
-21.82
-25.28
-29.50
-34.08
-38.25
-41.08
-41.79
-39.98
-35.71
-29.53
-22.29
-15.02
-8.63
-3.71
-0.39
1.71
3.19
4.59
6.07
7.42
8.12
7.78
6.44
4.61
3.05
2.42
3.05
4.78
7.27
10.13
13.04
15.62
17.34
17.50
15.49
11.19
5.20
-1.18
-6.44
-9.56
-10.50
-10.33
-10.66
-12.92
-17.69
-24.32
-31.28
-36.74
-39.24
-38.04
-33.19
-25.35
-15.45
-4.48
6.51
16.56
24.82
30.74
34.28
35.84
36.16
35.91
35.52
35.00
34.15
32.79
30.98
29.03
27.28
25.91
24.73
23.30
21.13
17.91
13.60
8.43
2.67
-3.50
-10.02
-16.85
-23.85
-30.64
-36.67
-41.31
-44.03
-44.44
-42.41
-38.05
-31.76
-24.25
-16.46
-9.32
-3.54
0.65
3.46
5.36
6.84
8.17
9.33
10.15
10.51
10.43
10.12
9.87
9.92
10.30
10.89
11.51
12.01
12.21
11.99
11.18
9.58
7.07
3.68
-0.42
-4.99
-9.74
-14.58
-19.51
-24.58
-29.72
-34.77
-39.38
-43.17
-45.70
-46.42
-44.74
-40.20
-32.79
-23.08
-12.26
-1.76
7.17
13.82
18.15
20.63
21.85
22.36
22.54
22.72
23.12
23.91
25.12
26.56
27.91
28.97
29.64
29.99
30.09
29.93
29.43
28.46
26.96
24.91
22.30
19.07
15.12
10.48
5.42
0.39
-4.18
-8.19
-12.03
-16.34
-21.73
-28.25
-35.25
-41.53
-45.75
-46.94
-44.80
-39.67
-32.36
-23.79
-14.79
-5.97
2.25
9.53
15.60
20.34
23.73
25.99
27.46
28.55
29.57
30.71
32.00
33.35
34.63
35.71
36.49
36.95
37.20
37.33
37.45
37.53
37.44
36.93
35.73
33.59
30.50
26.56
22.08
17.41
12.80
8.40
4.26
0.35
-3.43
-7.25
-11.42
-16.34
-22.31
-29.40
-37.13
-44.49
-50.17
-52.94
-52.09
-47.75
-40.78
-32.43
-23.89
-16.00
-9.10
-3.19
1.93
6.42
10.32
13.66
16.46
18.73
20.57
22.08
23.38
24.58
25.80
27.14
28.68
30.32
31.84
32.91
33.26
32.79
31.63
30.08
28.43
26.83
25.25
23.43
21.11
18.11
14.42
10.22
5.78
1.41
-2.67
-6.27
-9.43
-12.32
-15.22
-18.55
-22.62
-27.60
-33.34
-39.47
-45.27
-49.86
-52.30
-51.92
-48.47
-42.35
-34.51
-26.19
-18.56
-12.38
-7.79
-4.39
-1.54
1.31
4.48
7.84
11.15
14.13
16.68
18.84
20.72
22.43
23.96
25.28
26.34
27.15
27.75
28.21
28.51
28.56
28.20
27.19
25.37
22.62
19.05
14.93
10.71
6.85
3.68
1.27
-0.57
-2.21
-3.99
-6.11
-8.64
-11.59
-14.96
-18.81
-23.19
-28.01
-32.97
-37.53
-41.04
-42.89
-42.69
-40.40
-36.26
-30.66
-24.07
-16.95
-9.72
-2.87
3.10
7.75
10.96
12.82
13.79
14.40
15.12
16.12
17.36
18.59
19.62
20.40
20.99
21.47
21.88
22.11
22.07
21.64
20.85
19.79
18.54
17.16
15.61
13.92
12.07
10.21
8.51
7.06
5.90
4.94
4.17
3.49
2.88
2.18
1.07
-0.85
-3.86
-7.99
-12.92
-18.04
-22.58
-25.81
-27.18
-26.43
-23.51
-18.68
-12.39
-5.29
1.88
8.48
14.01
18.31
21.41
23.57
25.14
26.45
27.79
29.32
31.12
33.19
35.47
37.89
40.41
42.95
45.45
47.89
50.21
52.37
54.21
55.42
55.48
53.50
48.34
38.75
23.81
3.26
-22.23
-51.24
-82.06
-113.13
-143.51
-172.75
-200.72
-227.17
-251.50
-272.69
-289.59
-301.12
-306.57
-305.74
-298.86
-286.67
-270.17
-250.70
-229.81
-209.37
-191.55
-178.52
-171.94
-172.37
-178.96
-189.54
-201.36
-211.93
-219.70
-224.13
-225.28
-223.27
-217.93
-208.92
-196.10
-179.88
-161.24
-141.47
-121.80
-103.25
-86.57
-72.24
-60.79
-52.40
-46.73
-42.75
-38.70
-32.56
-22.68
-8.82
7.20
21.49
29.32
26.93
13.56
-7.88
-31.76
-51.89
-64.00
-67.00
-62.73
-54.30
-44.26
-33.70
-22.54
-10.56
1.72
13.03
22.08
28.47
33.08
37.61
43.64
52.01
62.27
73.14
83.21
91.74
99.07
106.47
115.41
126.93
141.05
156.84
172.87
187.92
201.49
213.94
226.24
239.68
255.58
274.95
298.07
323.86
349.65
371.43
384.91
386.99
376.93
356.67
329.97
300.95
272.72
246.80
223.44
202.51
184.02
168.28
155.52
145.37
136.91
128.92
120.44
111.13
101.25
91.47
82.44
74.46
67.44
60.95
54.56
48.00
41.35
34.94
29.23
24.56
20.96
18.22
15.95
13.76
11.43
8.92
6.35
3.89
1.58
-0.64
-2.91
-5.37
-8.04
-10.83
-13.52
-15.91
-17.89
-19.46
-20.76
-22.00
-23.41
-25.16
-27.29
-29.62
-31.80
-33.28
-33.55
-32.30
-29.56
-25.78
-21.54
-17.49
-13.98
-11.13
-8.85
-7.04
-5.69
-4.88
-4.65
-4.96
-5.55
-6.08
-6.22
-5.82
-4.96
-3.91
-2.91
-2.18
-1.71
-1.43
-1.16
-0.83
-0.47
-0.24
-0.31
-0.77
-1.66
-2.88
-4.33
-5.88
-7.47
-9.03
-10.56
-12.08
-13.63
-15.33
-17.27
-19.58
-22.25
-25.20
-28.17
-30.80
-32.67
-33.37
-32.68
-30.56
-27.23
-23.10
-18.65
-14.36
-10.61
-7.65
-5.57
-4.31
-3.69
-3.45
-3.29
-3.02
-2.54
-1.87
-1.09
-0.26
0.59
1.48
2.38
3.23
3.95
4.47
4.82
5.04
5.16
5.13
4.85
4.19
3.12
1.72
0.13
-1.50
-3.10
-4.69
-6.36
-8.13
-9.95
-11.74
-13.46
-15.22
-17.26
-19.80
-22.87
-26.18
-29.15
-31.06
-31.33
-29.74
-26.49
-22.14
-17.35
-12.66
-8.39
-4.61
-1.29
1.52
3.69
5.11
5.75
5.78
5.51
5.29
5.38
5.88
6.73
7.79
8.88
9.91
10.86
11.75
12.58
13.31
13.80
13.85
13.30
12.06
10.14
7.69
4.91
1.98
-0.97
-3.82
-6.47
-8.82
-10.83
-12.56
-14.20
-16.00
-18.16
-20.77
-23.82
-27.17
-30.54
-33.56
-35.73
-36.51
-35.52
-32.61
-28.00
-22.19
-15.88
-9.76
-4.34
0.13
3.62
6.26
8.13
9.29
9.68
9.28
8.26
6.94
5.85
5.46
6.02
7.51
9.57
11.71
13.49
14.62
14.99
14.71
13.97
13.00
12.01
11.18
10.53
9.99
9.41
8.61
7.46
5.95
4.13
2.04
-0.27
-2.83
-5.69
-8.92
-12.55
-16.49
-20.51
-24.24
-27.18
-28.82
-28.81
-27.03
-23.65
-19.09
-13.87
-8.47
-3.27
1.45
5.54
8.81
11.14
12.49
12.91
12.63
11.98
11.30
10.82
10.67
10.81
11.17
11.61
12.04
12.39
12.59
12.61
12.43
12.06
11.51
10.73
9.60
8.00
5.89
3.30
0.43
-2.42
-5.05
-7.35
-9.43
-11.52
-13.94
-16.98
-20.82
-25.39
-30.40
-35.33
-39.47
-42.16
-42.86
-41.36
-37.75
-32.38
-25.80
-18.68
-11.69
-5.41
-0.27
3.57
6.15
7.67
8.40
8.66
8.72
8.85
9.24
9.99
11.03
12.17
13.22
14.10
14.88
15.69
16.63
17.60
18.30
18.36
17.50
15.62
12.90
9.64
6.23
2.99
0.11
-2.38
-4.63
-6.91
-9.58
-12.96
-17.17
-22.03
-27.04
-31.52
-34.71
-36.06
-35.31
-32.58
-28.25
-22.82
-16.76
-10.48
-4.26
1.60
6.82
11.07
14.11
15.83
16.38
16.10
15.49
15.00
14.95
15.41
16.24
17.24
18.23
19.05
19.70
20.20
20.51
20.58
20.25
19.35
17.79
15.59
12.88
9.90
6.85
3.87
0.93
-2.05
-5.24
-8.77
-12.70
-17.08
-21.84
-26.86
-31.89
-36.48
-40.04
-41.96
-41.77
-39.35
-34.90
-28.91
-22.02
-14.83
-7.84
-1.39
4.29
9.03
12.67
15.12
16.36
16.56
16.04
15.29
14.77
14.80
15.47
16.59
17.83
18.87
19.57
19.90
19.96
19.81
19.39
18.61
17.32
15.45
13.04
10.23
7.19
4.08
0.98
-2.10
-5.19
-8.34
-11.66
-15.29
-19.36
-23.92
-28.88
-33.86
-38.26
-41.42
-42.76
-41.96
-39.02
-34.26
-28.12
-21.12
-13.76
-6.54
0.08
5.66
9.86
12.52
13.73
13.81
13.24
12.55
12.22
12.51
13.40
14.65
15.87
16.75
17.23
17.45
17.66
18.03
18.44
18.60
18.13
16.75
14.48
11.49
8.05
4.39
0.70
-2.84
-6.03
-8.69
-10.81
-12.58
-14.42
-16.77
-19.87
-23.68
-27.83
-31.85
-35.26
-37.73
-38.97
-38.77
-37.00
-33.63
-28.89
-23.22
-17.24
-11.57
-6.71
-2.94
-0.29
1.39
2.39
3.12
4.02
5.50
7.84
11.11
15.11
19.47
23.77
27.65
30.98
33.73
35.97
37.62
38.54
38.49
37.31
35.02
31.85
28.15
24.31
20.55
16.99
13.68
10.58
7.71
5.04
2.48
-0.07
-2.75
-5.59
-8.48
-11.08
-12.91
-13.48
-12.38
-9.53
-5.15
0.24
5.96
11.30
15.68
18.69
20.13
20.00
18.46
15.84
12.55
9.08
5.89
3.31
1.57
0.75
0.77
1.48
2.61
3.83
4.86
5.43
5.44
4.85
3.70
2.01
-0.22
-2.96
-6.07
-9.35
-12.54
-15.47
-18.12
-20.71
-23.49
-26.77
-30.68
-35.13
-39.78
-44.04
-47.14
-48.32
-47.01
-42.99
-36.60
-28.57
-19.92
-11.63
-4.41
1.34
5.56
8.40
10.10
10.92
11.08
10.74
10.00
9.00
7.84
6.76
6.01
5.85
6.42
7.73
9.57
11.62
13.48
14.74
15.08
14.34
12.50
9.78
6.56
3.19
-0.16
-3.55
-7.30
-11.78
-17.15
-23.22
-29.38
-34.72
-38.33
-39.53
-37.99
-33.86
-27.58
-19.87
-11.53
-3.39
3.81
9.56
13.61
16.03
17.09
17.19
16.72
15.93
15.03
14.17
13.51
13.21
13.37
13.96
14.81
15.67
16.29
16.50
16.23
15.48
14.29
12.69
10.72
8.48
6.06
3.46
0.59
-2.86
-7.18
-12.51
-18.59
-24.69
-29.77
-32.78
-33.01
-30.31
-25.13
-18.26
-10.59
-2.86
4.36
10.63
15.60
18.92
20.44
20.22
18.67
16.42
14.23
12.75
12.38
13.29
15.30
18.13
21.32
24.50
27.30
29.52
31.05
31.84
31.82
30.82
28.63
25.05
20.05
13.73
6.37
-1.75
-10.34
-19.05
-27.34
-34.43
-39.35
-41.24
-39.69
-34.98
-28.00
-19.97
-12.00
-4.81
1.26
6.14
9.75
11.84
12.14
10.52
7.13
2.49
-2.64
-7.55
-11.70
-14.91
-17.21
-18.76
-19.64
-19.88
-19.49
-18.55
-17.28
-15.96
-14.87
-14.21
-14.12
-14.76
-16.40
-19.41
-24.04
-30.33
-37.74
-45.30
-51.73
-55.79
-56.65
-54.08
-48.45
-40.64
-31.73
-22.73
-14.36
-7.11
-1.21
3.22
6.17
7.72
8.03
7.44
6.28
4.89
3.51
2.28
1.26
0.46
-0.13
-0.62
-1.14
-1.87
-2.97
-4.49
-6.36
-8.46
-10.70
-13.15
-16.04
-19.78
-24.75
-31.12
-38.68
-46.73
-54.18
-59.77
-62.38
-61.33
-56.54
-48.49
-38.09
-26.43
-14.59
-3.41
6.54
14.98
21.81
27.01
30.58
32.56
33.13
32.61
31.51
30.36
29.57
29.28
29.32
29.34
28.95
27.89
26.05
23.52
20.47
17.09
13.47
9.60
5.26
0.13
-6.11
-13.62
-22.22
-31.32
-39.97
-46.96
-51.11
-51.50
-47.77
-40.20
-29.77
-17.82
-5.77
5.30
14.81
22.61
28.79
33.44
36.55
38.09
38.18
37.15
35.56
34.00
32.92
32.43
32.39
32.42
32.18
31.39
29.93
27.85
25.27
22.36
19.22
15.85
12.15
7.89
2.81
-3.38
-10.85
-19.62
-29.29
-39.04
-47.57
-53.32
-54.89
-51.50
-43.28
-31.34
-17.42
-3.38
9.33
19.93
28.26
34.57
39.24
42.60
44.88
46.25
46.87
46.91
46.56
45.98
45.31
44.56
43.69
42.60
41.18
39.36
37.08
34.27
30.88
26.86
22.24
17.10
11.62
5.95
0.12
-6.03
-12.80
-20.49
-29.17
-38.47
-47.45
-54.70
-58.68
-58.16
-52.69
-42.77
-29.81
-15.59
-1.82
10.25
20.01
27.31
32.26
35.10
36.22
36.12
35.42
34.68
34.27
34.25
34.45
34.65
34.69
34.56
34.32
34.03
33.59
32.86
31.68
29.91
27.45
24.24
20.22
15.41
9.95
4.07
-1.93
-7.84
-13.65
-19.60
-26.02
-33.24
-41.24
-49.45
-56.79
-61.77
-63.00
-59.63
-51.68
-40.15
-26.71
-13.13
-0.81
9.55
17.88
24.46
29.56
33.26
35.49
36.28
35.92
35.03
34.31
34.35
35.27
36.79
38.34
39.41
39.72
39.34
38.48
37.29
35.70
33.44
30.25
26.00
20.89
15.28
9.60
4.17
-0.87
-5.54
-9.99
-14.42
-19.11
-24.42
-30.66
-37.93
-45.90
-53.69
-59.97
-63.29
-62.63
-57.67
-48.99
-37.80
-25.59
-13.63
-2.80
6.50
14.16
20.20
24.63
27.50
29.00
29.44
29.32
29.17
29.45
30.42
32.05
34.10
36.17
37.88
38.95
39.28
38.92
37.95
36.47
34.51
31.97
28.77
24.81
20.11
14.78
9.08
3.32
-2.21
-7.34
-12.08
-16.58
-21.07
-25.82
-31.06
-36.96
-43.52
-50.51
-57.28
-62.87
-66.10
-65.92
-61.77
-53.80
-42.91
-30.51
-18.17
-7.20
1.60
8.08
12.59
15.68
17.91
19.58
20.82
21.67
22.22
22.72
23.50
24.79
26.64
28.80
30.92
32.67
33.90
34.62
34.93
34.90
34.44
33.37
31.49
28.72
25.15
20.94
16.35
11.57
6.74
1.91
-2.88
-7.55
-12.07
-16.45
-20.83
-25.51
-30.78
-36.82
-43.43
-50.02
-55.62
-59.11
-59.48
-56.24
-49.51
-40.05
-29.00
-17.61
-6.89
2.46
10.10
15.92
19.92
22.20
23.00
22.69
21.85
21.07
20.79
21.19
22.17
23.47
24.81
26.06
27.17
28.12
28.81
29.04
28.63
27.46
25.58
23.12
20.26
17.08
13.58
9.74
5.59
1.26
-3.05
-7.16
-11.00
-14.62
-18.24
-22.11
-26.47
-31.41
-36.83
-42.36
-47.41
-51.22
-53.01
-52.16
-48.39
-41.83
-33.06
-23.00
-12.68
-3.05
5.18
11.62
16.21
19.07
20.45
20.62
19.97
18.90
17.86
17.20
17.17
17.81
19.02
20.61
22.33
23.93
25.15
25.78
25.71
24.94
23.59
21.77
19.53
16.77
13.35
9.23
4.52
-0.42
-5.20
-9.50
-13.19
-16.36
-19.26
-22.21
-25.52
-29.46
-34.11
-39.37
-44.83
-49.82
-53.46
-54.88
-53.49
-49.11
-42.08
-33.14
-23.25
-13.29
-4.00
4.14
10.80
15.81
19.07
20.69
20.98
20.44
19.57
18.75
18.16
17.83
17.78
18.07
18.80
19.98
21.40
22.67
23.35
23.17
22.15
20.55
18.73
16.90
15.03
12.92
10.35
7.21
3.58
-0.36
-4.36
-8.27
-12.00
-15.58
-19.13
-22.80
-26.85
-31.47
-36.75
-42.43
-47.90
-52.22
-54.39
-53.65
-49.77
-43.07
-34.35
-24.60
-14.80
-5.74
2.07
8.36
13.03
16.08
17.65
17.95
17.30
16.10
14.77
13.72
13.28
13.63
14.84
16.75
19.04
21.28
22.98
23.85
23.76
22.85
21.38
19.64
17.76
15.66
13.18
10.24
6.84
3.20
-0.45
-3.94
-7.26
-10.53
-13.89
-17.49
-21.41
-25.67
-30.26
-35.05
-39.73
-43.76
-46.45
-47.11
-45.31
-40.98
-34.55
-26.74
-18.37
-10.19
-2.75
3.56
8.57
12.19
14.45
15.48
15.50
14.82
13.78
12.78
12.17
12.23
13.09
14.65
16.60
18.52
20.00
20.76
20.78
20.19
19.17
17.87
16.27
14.25
11.70
8.61
5.14
1.59
-1.74
-4.67
-7.26
-9.69
-12.23
-15.08
-18.34
-22.08
-26.30
-30.99
-35.96
-40.74
-44.63
-46.83
-46.70
-44.00
-38.94
-32.17
-24.50
-16.68
-9.28
-2.65
3.03
7.64
11.16
13.63
15.14
15.84
15.97
15.76
15.42
15.13
15.04
15.20
15.65
16.33
17.15
17.94
18.52
18.67
18.27
17.23
15.61
13.50
11.03
8.30
5.38
2.29
-0.94
-4.28
-7.68
-11.08
-14.49
-17.99
-21.77
-26.07
-31.02
-36.47
-41.93
-46.63
-49.70
-50.47
-48.60
-44.23
-37.84
-30.16
-21.94
-13.83
-6.33
0.23
5.63
9.78
12.70
14.47
15.23
15.25
14.86
14.41
14.25
14.58
15.42
16.65
18.05
19.39
20.50
21.30
21.74
21.72
21.12
19.81
17.70
14.85
11.45
7.76
4.05
0.40
-3.17
-6.79
-10.54
-14.51
-18.76
-23.35
-28.29
-33.50
-38.64
-43.10
-46.10
-46.92
-45.15
-40.85
-34.48
-26.74
-18.38
-10.03
-2.21
4.71
10.40
14.65
17.39
18.75
19.02
18.62
18.02
17.57
17.46
17.72
18.26
18.91
19.55
20.08
20.44
20.58
20.44
19.95
19.09
17.85
16.26
14.31
11.98
9.25
6.11
2.67
-0.95
-4.60
-8.19
-11.76
-15.49
-19.58
-24.20
-29.30
-34.58
-39.47
-43.23
-45.13
-44.67
-41.72
-36.56
-29.79
-22.17
-14.40
-7.03
-0.45
5.17
9.70
13.11
15.46
16.90
17.72
18.28
18.89
19.75
20.84
21.99
23.02
23.81
24.42
24.98
25.64
26.40
27.07
27.35
26.91
25.54
23.20
20.01
16.19
11.98
7.62
3.31
-0.82
-4.68
-8.28
-11.75
-15.32
-19.32
-24.04
-29.56
-35.57
-41.38
-46.02
-48.54
-48.30
-45.18
-39.59
-32.29
-24.19
-16.10
-8.52
-1.74
4.20
9.29
13.49
16.71
18.85
19.91
20.07
19.76
19.56
19.94
21.17
23.12
25.40
27.53
29.11
29.93
30.02
29.48
28.44
26.95
25.03
22.72
20.09
17.24
14.21
10.99
7.51
3.76
-0.17
-4.10
-7.86
-11.42
-14.93
-18.70
-23.04
-28.06
-33.50
-38.84
-43.31
-46.20
-46.97
-45.36
-41.36
-35.30
-27.71
-19.29
-10.80
-2.91
3.88
9.37
13.55
16.58
18.64
19.92
20.64
21.03
21.37
21.91
22.75
23.88
25.23
26.65
28.04
29.30
30.33
30.98
31.11
30.61
29.46
27.70
25.37
22.59
19.45
16.09
12.66
9.29
6.04
2.86
-0.28
-3.44
-6.63
-9.85
-13.20
-16.89
-21.18
-26.16
-31.64
-37.02
-41.45
-44.03
-44.15
-41.63
-36.78
-30.23
-22.70
-14.88
-7.29
-0.34
5.68
10.52
14.07
16.40
17.72
18.41
18.85
19.36
20.08
21.02
22.08
23.20
24.33
25.43
26.48
27.37
27.98
28.20
28.01
27.40
26.40
24.95
22.95
20.27
16.96
13.19
9.30
5.63
2.35
-0.60
-3.43
-6.42
-9.78
-13.62
-18.01
-22.98
-28.56
-34.58
-40.57
-45.83
-49.51
-50.97
-49.86
-46.31
-40.75
-33.77
-25.94
-17.76
-9.67
-2.10
4.53
9.91
13.84
16.38
17.78
18.41
18.70
19.00
19.57
20.51
21.77
23.22
24.68
26.00
27.10
27.97
28.64
29.09
29.19
28.76
27.62
25.68
23.05
19.98
16.77
13.59
10.46
7.30
4.02
0.65
-2.67
-5.83
-8.84
-11.91
-15.41
-19.71
-24.96
-31.00
-37.35
-43.28
-48.00
-50.85
-51.41
-49.58
-45.61
-39.97
-33.24
-26.01
-18.78
-11.91
-5.64
-0.10
4.67
8.69
11.94
14.42
16.15
17.25
17.99
18.71
19.71
21.13
22.87
24.68
26.31
27.59
28.52
29.15
29.48
29.41
28.78
27.51
25.63
23.27
20.55
17.54
14.22
10.56
6.59
2.41
-1.81
-5.92
-9.86
-13.65
-17.49
-21.66
-26.47
-32.02
-38.14
-44.26
-49.54
-53.07
-54.21
-52.74
-48.87
-43.10
-36.02
-28.23
-20.25
-12.59
-5.73
-0.04
4.31
7.37
9.39
10.66
11.45
11.96
12.35
12.82
13.57
14.83
16.68
19.02
21.52
23.78
25.45
26.38
26.65
26.45
25.92
25.05
23.65
21.51
18.58
15.02
11.18
7.40
3.83
0.43
-2.97
-6.48
-10.08
-13.74
-17.55
-21.77
-26.75
-32.63
-39.11
-45.39
-50.39
-53.15
-53.15
-50.42
-45.49
-39.02
-31.70
-24.09
-16.59
-9.54
-3.19
2.27
6.69
10.04
12.41
13.95
14.99
15.88
16.98
18.54
20.58
22.96
25.40
27.60
29.32
30.47
30.99
30.90
30.27
29.15
27.59
25.58
23.07
20.05
16.55
12.65
8.51
4.27
0.05
-4.09
-8.14
-12.16
-16.29
-20.70
-25.56
-30.95
-36.71
-42.39
-47.30
-50.64
-51.74
-50.22
-46.16
-39.95
-32.26
-23.86
-15.47
-7.68
-0.90
4.64
8.88
11.92
13.95
15.25
16.10
16.73
17.38
18.22
19.34
20.76
22.42
24.14
25.71
26.97
27.81
28.25
28.35
28.13
27.53
26.39
24.48
21.69
18.00
13.60
8.82
4.02
-0.49
-4.57
-8.25
-11.75
-15.35
-19.40
-24.15
-29.71
-35.92
-42.38
-48.40
-53.09
-55.61
-55.33
-52.03
-45.95
-37.81
-28.56
-19.18
-10.45
-2.83
3.48
8.51
12.40
15.26
17.23
18.45
19.13
19.56
20.11
21.05
22.48
24.35
26.39
28.30
29.81
30.83
31.37
31.54
31.40
30.88
29.76
27.83
24.97
21.26
16.96
12.42
7.91
3.58
-0.63
-4.81
-9.11
-13.59
-18.30
-23.31
-28.75
-34.71
-41.08
-47.49
-53.17
-57.17
-58.60
-56.93
-52.18
-44.94
-36.13
-26.73
-17.58
-9.21
-1.87
4.30
9.24
12.96
15.50
17.09
18.11
19.07
20.43
22.51
25.30
28.51
31.69
34.37
36.22
37.17
37.31
36.88
36.10
35.14
34.04
32.76
31.13
28.93
25.96
22.09
17.44
12.33
7.20
2.38
-2.03
-6.27
-10.74
-15.89
-21.98
-28.93
-36.36
-43.63
-49.91
-54.36
-56.22
-55.04
-50.76
-43.82
-34.99
-25.26
-15.56
-6.56
1.33
7.96
13.28
17.29
20.04
21.67
22.48
22.89
23.35
24.23
25.74
27.88
30.44
33.11
35.54
37.42
38.60
39.02
38.73
37.81
36.33
34.30
31.71
28.53
24.76
20.47
15.79
10.91
6.01
1.23
-3.39
-7.93
-12.54
-17.44
-22.83
-28.79
-35.26
-41.96
-48.41
-53.86
-57.49
-58.54
-56.54
-51.45
-43.77
-34.36
-24.25
-14.36
-5.32
2.49
8.90
13.89
17.52
19.96
21.53
22.64
23.63
24.78
26.17
27.80
29.62
31.59
33.67
35.73
37.58
38.99
39.74
39.72
38.97
37.57
35.61
33.14
30.13
26.58
22.51
18.06
13.46
8.93
4.66
0.68
-3.14
-7.07
-11.39
-16.33
-21.99
-28.35
-35.31
-42.65
-50.03
-56.87
-62.37
-65.63
-65.85
-62.64
-56.22
-47.35
-37.14
-26.69
-16.86
-8.13
-0.66
5.61
10.73
14.74
17.69
19.67
20.93
21.82
22.75
24.05
25.87
28.18
30.78
33.36
35.64
37.43
38.59
39.06
38.81
37.79
35.97
33.37
30.07
26.19
21.92
17.36
12.65
7.86
3.07
-1.65
-6.27
-10.82
-15.41
-20.20
-25.42
-31.25
-37.80
-44.92
-52.09
-58.42
-62.79
-64.16
-61.91
-56.13
-47.55
-37.32
-26.63
-16.43
-7.29
0.52
6.91
11.83
15.32
17.56
18.89
19.78
20.68
21.97
23.81
26.15
28.80
31.45
33.78
35.53
36.58
36.96
36.80
36.26
35.35
33.99
31.98
29.16
25.52
21.19
16.42
11.47
6.52
1.66
-3.04
-7.57
-11.96
-16.33
-20.92
-26.13
-32.29
-39.49
-47.39
-55.14
-61.56
-65.44
-65.90
-62.64
-56.01
-46.87
-36.33
-25.46
-15.10
-5.79
2.15
8.58
13.40
16.65
18.48
19.18
19.18
19.01
19.15
19.92
21.47
23.67
26.24
28.77
30.91
32.44
33.28
33.53
33.32
32.70
31.61
29.91
27.42
24.03
19.81
14.92
9.59
4.03
-1.57
-7.06
-12.35
-17.46
-22.54
-27.89
-33.89
-40.76
-48.45
-56.47
-63.89
-69.50
-72.16
-71.04
-65.94
-57.36
-46.33
-34.20
-22.25
-11.44
-2.30
5.01
10.59
14.67
17.51
19.39
20.61
21.53
22.49
23.78
25.56
27.85
30.50
33.23
35.71
37.66
38.93
39.50
39.47
38.88
37.71
35.84
33.13
29.50
25.02
19.89
14.38
8.76
3.27
-1.91
-6.69
-11.14
-15.52
-20.27
-25.91
-32.82
-41.03
-49.99
-58.61
-65.49
-69.28
-69.05
-64.59
-56.41
-45.58
-33.48
-21.42
-10.36
-0.86
6.93
13.12
17.93
21.52
24.05
25.69
26.71
27.48
28.35
29.61
31.30
33.30
35.34
37.23
38.81
40.07
40.97
41.42
41.28
40.34
38.43
35.46
31.42
26.41
20.68
14.58
8.50
2.83
-2.21
-6.66
-10.73
-14.78
-19.16
-24.16
-29.98
-36.78
-44.55
-53.01
-61.44
-68.66
-73.26
-74.02
-70.31
-62.42
-51.41
-38.80
-26.10
-14.40
-4.26
4.23
11.14
16.60
20.68
23.55
25.45
26.80
28.09
29.69
31.80
34.38
37.21
40.02
42.57
44.70
46.32
47.39
47.86
47.65
46.71
45.06
42.74
39.84
36.45
32.61
28.35
23.71
18.83
13.91
9.17
4.72
0.47
-3.92
-8.96
-15.05
-22.29
-30.31
-38.23
-44.89
-49.11
-50.00
-47.17
-40.82
-31.66
-20.76
-9.35
1.44
10.73
18.04
23.25
26.51
28.13
28.49
28.02
27.16
26.40
26.21
26.88
28.44
30.57
32.80
34.68
35.93
36.58
36.78
36.67
36.23
35.28
33.56
30.93
27.38
23.03
18.10
12.81
7.35
1.91
-3.36
-8.40
-13.27
-18.16
-23.40
-29.28
-35.96
-43.39
-51.13
-58.44
-64.31
-67.66
-67.65
-63.90
-56.69
-46.86
-35.59
-24.09
-13.29
-3.82
4.00
10.05
14.39
17.24
19.00
20.12
21.09
22.22
23.58
25.06
26.46
27.65
28.63
29.51
30.37
31.19
31.73
31.62
30.42
27.81
23.74
18.45
12.41
6.20
0.30
-5.04
-9.86
-14.47
-19.32
-24.89
-31.47
-39.02
-47.06
-54.69
-60.75
-64.02
-63.63
-59.29
-51.39
-40.96
-29.28
-17.67
-7.13
1.75
8.77
14.06
17.93
20.66
22.52
23.76
24.62
25.38
26.30
27.58
29.23
31.06
32.74
34.03
34.76
34.94
34.65
33.89
32.53
30.40
27.38
23.48
18.92
13.95
8.83
3.66
-1.57
-7.07
-13.07
-19.82
-27.44
-35.86
-44.62
-52.87
-59.46
-63.21
-63.20
-59.14
-51.40
-41.03
-29.39
-17.82
-7.27
1.79
9.32
15.51
20.53
24.46
27.29
29.11
30.12
30.66
31.10
31.73
32.66
33.83
35.11
36.36
37.46
38.31
38.84
38.91
38.35
36.96
34.55
31.03
26.42
20.95
15.00
8.99
3.32
-1.82
-6.43
-10.76
-15.20
-20.26
-26.34
-33.63
-41.91
-50.44
-58.07
-63.40
-65.23
-62.93
-56.64
-47.27
-36.12
-24.53
-13.54
-3.80
4.46
11.14
16.31
20.10
22.71
24.44
25.65
26.70
27.91
29.48
31.50
33.93
36.63
39.32
41.69
43.48
44.50
44.70
44.12
42.81
40.83
38.20
34.95
31.11
26.79
22.08
17.13
12.07
7.00
2.01
-2.86
-7.62
-12.35
-17.24
-22.52
-28.47
-35.26
-42.84
-50.79
-58.28
-64.22
-67.44
-67.10
-62.88
-55.17
-44.92
-33.39
-21.82
-11.17
-2.01
5.43
11.18
15.37
18.24
20.12
21.43
22.61
24.08
26.02
28.42
31.04
33.56
35.77
37.56
38.98
40.13
41.00
41.51
41.44
40.58
38.79
36.11
32.72
28.86
24.74
20.52
16.24
11.94
7.61
3.29
-0.99
-5.24
-9.52
-13.91
-18.56
-23.65
-29.37
-35.90
-43.21
-50.94
-58.31
-64.17
-67.33
-66.90
-62.62
-54.98
-45.02
-34.01
-23.10
-13.11
-4.52
2.44
7.76
11.47
13.84
15.26
16.24
17.29
18.79
20.88
23.48
26.36
29.26
31.98
34.40
36.48
38.14
39.26
39.70
39.29
38.00
35.90
33.19
30.09
26.73
23.16
19.35
15.26
10.94
6.52
2.13
-2.17
-6.41
-10.68
-15.10
-19.83
-25.05
-30.93
-37.60
-44.90
-52.41
-59.23
-64.28
-66.49
-65.15
-60.20
-52.23
-42.28
-31.59
-21.24
-11.94
-4.00
2.58
7.96
12.28
15.60
17.93
19.32
19.97
20.20
20.46
21.13
22.42
24.26
26.38
28.48
30.31
31.77
32.85
33.51
33.64
33.05
31.59
29.23
26.10
22.50
18.66
14.70
10.62
6.34
1.87
-2.71
-7.23
-11.62
-15.99
-20.63
-25.91
-32.11
-39.19
-46.73
-53.96
-59.89
-63.57
-64.26
-61.62
-55.80
-47.32
-37.09
-26.12
-15.40
-5.73
2.37
8.69
13.28
16.35
18.18
19.10
19.45
19.58
19.86
20.59
21.97
24.02
26.52
29.12
31.44
33.19
34.20
34.44
33.94
32.79
31.03
28.76
26.06
23.03
19.72
16.18
12.36
8.23
3.83
-0.74
-5.31
-9.70
-13.84
-17.77
-21.68
-25.91
-30.73
-36.26
-42.31
-48.30
-53.37
-56.55
-57.05
-54.49
-49.02
-41.25
-32.11
-22.55
-13.38
-5.18
1.72
7.16
11.08
13.54
14.77
15.12
15.07
15.09
15.53
16.60
18.29
20.42
22.79
25.18
27.39
29.28
30.67
31.36
31.21
30.13
28.18
25.51
22.37
18.95
15.37
11.66
7.76
3.62
-0.71
-5.13
-9.52
-13.89
-18.38
-23.28
-28.80
-34.97
-41.47
-47.62
-52.58
-55.53
-55.92
-53.60
-48.80
-42.00
-33.79
-24.80
-15.65
-6.99
0.55
6.41
10.32
12.26
12.63
12.04
11.19
10.67
10.76
11.45
12.56
13.86
15.17
16.46
17.74
18.98
20.05
20.66
20.48
19.28
16.95
13.63
9.62
5.24
0.78
-3.55
-7.71
-11.77
-15.87
-20.24
-25.07
-30.49
-36.46
-42.67
-48.52
-53.19
-55.80
-55.67
-52.54
-46.62
-38.57
-29.26
-19.57
-10.20
-1.67
5.68
11.51
15.60
17.76
18.12
17.10
15.42
13.82
12.92
12.98
13.94
15.47
17.25
19.03
20.71
22.17
23.26
23.72
23.27
21.68
18.89
15.01
10.31
5.10
-0.26
-5.52
-10.53
-15.30
-20.05
-25.13
-30.90
-37.54
-44.88
-52.37
-59.12
-64.11
-66.46
-65.63
-61.48
-54.37
-45.03
-34.39
-23.46
-13.15
-4.16
3.13
8.67
12.62
15.26
16.95
17.95
18.51
18.86
19.22
19.80
20.73
22.00
23.47
24.93
26.14
26.88
27.03
26.42
24.93
22.47
19.02
14.74
9.90
4.85
-0.11
-4.83
-9.38
-14.01
-19.13
-25.10
-32.12
-39.94
-47.87
-54.82
-59.52
-60.91
-58.50
-52.46
-43.62
-33.15
-22.29
-12.00
-2.89
4.70
10.71
15.18
18.24
20.14
21.21
21.89
22.58
23.58
24.96
26.60
28.22
29.57
30.50
31.05
31.37
31.60
31.74
31.55
30.68
28.76
25.60
21.28
16.15
10.68
5.27
0.05
-5.08
-10.48
-16.50
-23.37
-31.03
-39.11
-46.96
-53.70
-58.35
-60.01
-58.11
-52.57
-43.96
-33.30
-21.88
-10.86
-1.00
7.33
14.06
19.15
22.57
24.35
24.68
24.09
23.31
23.07
23.79
25.49
27.81
30.26
32.37
33.93
34.87
35.21
34.98
34.08
32.37
29.69
25.97
21.31
15.94
10.24
4.55
-0.82
-5.82
-10.54
-15.34
-20.64
-26.87
-34.24
-42.53
-51.00
-58.44
-63.45
-64.86
-62.11
-55.48
-45.94
-34.81
-23.36
-12.53
-2.86
5.37
12.05
17.13
20.64
22.74
23.74
24.09
24.30
24.76
25.73
27.26
29.24
31.41
33.49
35.30
36.70
37.65
38.11
37.98
37.16
35.46
32.71
28.81
23.83
17.99
11.70
5.46
-0.28
-5.29
-9.66
-13.77
-18.24
-23.65
-30.40
-38.51
-47.54
-56.56
-64.31
-69.47
-70.89
-68.05
-61.13
-51.04
-39.14
-26.82
-15.19
-4.89
3.85
11.05
16.77
21.12
24.23
26.33
27.78
28.99
30.29
31.88
33.77
35.82
37.83
39.61
41.05
42.08
42.69
42.85
42.50
41.54
39.86
37.35
33.97
29.76
24.90
19.60
14.13
8.71
3.51
-1.44
-6.31
-11.41
-17.18
-23.99
-31.98
-40.87
-49.92
-58.02
-63.93
-66.55
-65.22
-59.90
-51.19
-40.12
-27.97
-15.89
-4.73
4.98
13.01
19.25
23.65
26.32
27.56
27.91
28.12
28.86
30.57
33.27
36.65
40.22
43.48
46.06
47.75
48.49
48.33
47.39
45.81
43.69
41.10
38.03
34.46
30.46
26.14
21.61
16.91
12.03
6.93
1.63
-3.76
-9.10
-14.40
-19.92
-26.10
-33.37
-41.77
-50.79
-59.29
-65.76
-68.81
-67.57
-61.94
-52.63
-40.86
-28.09
-15.62
-4.41
5.00
12.46
18.10
22.23
25.19
27.32
28.90
30.14
31.28
32.56
34.17
36.17
38.47
40.84
42.96
44.63
45.73
46.28
46.31
45.76
44.54
42.55
39.81
36.54
33.01
29.43
25.80
21.98
17.76
13.08
8.10
3.18
-1.41
-5.58
-9.59
-13.89
-19.05
-25.40
-32.99
-41.45
-50.10
-57.94
-63.83
-66.71
-65.76
-60.80
-52.25
-41.15
-28.85
-16.70
-5.72
3.50
10.82
16.29
20.11
22.52
23.85
24.51
24.97
25.68
26.93
28.79
31.12
33.69
36.24
38.58
40.60
42.24
43.47
44.15
44.12
43.18
41.24
38.37
34.85
31.04
27.32
23.86
20.63
17.40
13.87
9.86
5.37
0.56
-4.30
-9.02
-13.52
-17.92
-22.52
-27.70
-33.81
-40.99
-48.86
-56.54
-62.77
-66.23
-66.04
-61.95
-54.48
-44.66
-33.72
-22.74
-12.48
-3.41
4.22
10.27
14.60
17.25
18.44
18.68
18.64
18.95
20.05
22.02
24.64
27.52
30.33
32.85
35.05
36.95
38.53
39.65
40.13
39.75
38.43
36.18
33.18
29.71
26.09
22.57
19.24
15.99
12.58
8.74
4.35
-0.51
-5.58
-10.55
-15.19
-19.45
-23.52
-27.76
-32.63
-38.45
-45.23
-52.46
-59.16
-64.02
-65.84
-63.89
-58.17
-49.42
-38.84
-27.73
-17.12
-7.65
0.36
6.79
11.60
14.78
16.51
17.12
17.10
16.98
17.16
17.88
19.17
20.97
23.21
25.76
28.47
31.07
33.22
34.62
35.05
34.49
33.05
30.91
28.22
25.11
21.67
17.99
14.19
10.34
6.45
2.55
-1.35
-5.18
-8.92
-12.58
-16.26
-20.17
-24.60
-29.79
-35.85
-42.67
-49.72
-56.15
-60.89
-62.94
-61.64
-56.93
-49.32
-39.76
-29.39
-19.26
-10.17
-2.57
3.42
7.89
11.04
13.12
14.35
14.90
15.00
14.96
15.17
15.97
17.51
19.66
22.07
24.35
26.18
27.42
28.09
28.21
27.77
26.73
25.05
22.80
20.11
17.09
13.75
10.06
5.95
1.48
-3.15
-7.64
-11.69
-15.17
-18.17
-21.06
-24.35
-28.58
-34.04
-40.62
-47.79
-54.60
-59.95
-62.84
-62.63
-59.17
-52.78
-44.14
-34.21
-23.99
-14.40
-6.16
0.38
5.22
8.61
10.93
12.48
13.43
13.92
14.10
14.29
14.81
15.93
17.72
19.97
22.29
24.27
25.64
26.35
26.50
26.23
25.63
24.59
22.96
20.57
17.41
13.61
9.47
5.22
1.05
-3.06
-7.14
-11.27
-15.49
-19.82
-24.40
-29.49
-35.29
-41.79
-48.60
-54.90
-59.73
-62.19
-61.78
-58.40
-52.35
-44.18
-34.57
-24.34
-14.33
-5.31
2.12
7.67
11.40
13.61
14.67
14.98
14.87
14.68
14.72
15.28
16.51
18.35
20.59
22.90
24.98
26.65
27.81
28.40
28.37
27.67
26.25
24.11
21.31
17.93
14.07
9.89
5.56
1.28
-2.80
-6.65
-10.39
-14.26
-18.58
-23.60
-29.42
-35.86
-42.46
-48.47
-52.97
-55.09
-54.22
-50.18
-43.31
-34.42
-24.51
-14.60
-5.51
2.26
8.47
13.10
16.22
17.96
18.51
18.17
17.30
16.37
15.88
16.16
17.35
19.29
21.64
23.95
25.87
27.19
27.90
28.03
27.61
26.53
24.59
21.64
17.67
12.88
7.70
2.58
-2.11
-6.20
-9.77
-13.11
-16.62
-20.69
-25.65
-31.65
-38.58
-45.93
-52.84
-58.21
-60.98
-60.47
-56.53
-49.59
-40.51
-30.36
-20.20
-10.89
-3.03
3.09
7.47
10.35
12.06
12.94
13.27
13.24
12.99
12.74
12.74
13.24
14.39
16.17
18.43
20.89
23.22
25.04
26.01
25.80
24.23
21.36
17.48
13.01
8.41
3.99
-0.17
-4.17
-8.25
-12.72
-17.84
-23.78
-30.47
-37.48
-43.99
-48.87
-51.03
-49.74
-44.95
-37.25
-27.73
-17.58
-7.79
0.93
8.17
13.73
17.58
19.80
20.64
20.47
19.72
18.81
18.08
17.73
17.92
18.69
20.01
21.71
23.50
25.02
25.95
26.04
25.17
23.25
20.30
16.43
11.86
6.90
1.85
-3.08
-7.86
-12.71
-17.98
-24.02
-30.95
-38.53
-46.11
-52.66
-57.04
-58.23
-55.68
-49.46
-40.33
-29.50
-18.36
-8.11
0.49
7.11
11.80
14.78
16.38
16.94
16.84
16.46
16.19
16.29
16.93
18.10
19.66
21.39
23.05
24.41
25.25
25.43
24.81
23.31
20.85
17.46
13.25
8.45
3.39
-1.59
-6.32
-10.91
-15.75
-21.41
-28.35
-36.69
-45.94
-55.10
-62.82
-67.78
-69.00
-66.14
-59.54
-50.07
-38.90
-27.23
-16.10
-6.26
1.84
7.99
12.23
14.78
16.06
16.58
16.96
17.66
18.95
20.89
23.25
25.71
27.95
29.75
31.04
31.85
32.22
32.14
31.46
29.97
27.48
23.87
19.23
13.84
8.04
2.13
-3.74
-9.63
-15.79
-22.54
-30.13
-38.53
-47.33
-55.64
-62.26
-65.97
-65.89
-61.75
-54.02
-43.74
-32.19
-20.62
-9.92
-0.58
7.20
13.43
18.23
21.74
24.19
25.92
27.35
28.96
31.09
33.91
37.22
40.63
43.60
45.71
46.78
46.94
46.48
45.71
44.75
43.43
41.38
38.25
33.88
28.44
22.40
16.31
10.57
5.28
0.26
-4.85
-10.47
-16.91
-24.37
-32.84
-42.04
-51.34
-59.70
-65.82
-68.47
-66.91
-61.15
-51.96
-40.64
-28.62
-17.03
-6.57
2.48
10.13
16.46
21.58
25.60
28.68
31.11
33.22
35.38
37.81
40.57
43.55
46.54
49.32
51.69
53.54
54.77
55.35
55.17
54.19
52.37
49.78
46.54
42.82
38.75
34.37
29.71
24.76
19.57
14.23
8.89
3.68
-1.35
-6.25
-11.23
-16.61
-22.84
-30.30
-39.11
-48.95
-58.86
-67.42
-73.01
-74.31
-70.74
-62.68
-51.36
-38.44
-25.52
-13.75
-3.64
4.74
11.60
17.19
21.63
25.11
27.84
30.20
32.58
35.31
38.50
42.04
45.66
49.04
51.99
54.42
56.33
57.71
58.46
58.43
57.46
55.50
52.66
49.19
45.39
41.52
37.67
33.79
29.70
25.21
20.24
14.85
9.28
3.85
-1.15
-5.62
-9.74
-13.98
-18.98
-25.33
-33.27
-42.58
-52.42
-61.46
-68.20
-71.27
-69.89
-64.09
-54.70
-43.14
-30.94
-19.39
-9.24
-0.74
6.19
11.75
16.11
19.45
22.04
24.26
26.50
29.07
32.11
35.45
38.84
41.98
44.67
46.87
48.63
50.06
51.20
51.97
52.15
51.52
49.88
47.23
43.81
40.02
36.27
32.86
29.81
26.92
23.88
20.41
16.39
11.84
6.92
1.88
-3.07
-7.87
-12.58
-17.48
-22.96
-29.38
-36.81
-44.91
-52.82
-59.37
-63.33
-63.81
-60.50
-53.76
-44.49
-33.86
-23.01
-12.90
-4.12
3.06
8.65
12.86
15.98
18.32
20.15
21.71
23.21
24.79
26.61
28.74
31.15
33.74
36.34
38.74
40.74
42.22
43.08
43.21
42.54
41.05
38.81
35.99
32.86
29.66
26.54
23.48
20.34
16.92
13.08
8.85
4.34
-0.21
-4.59
-8.69
-12.57
-16.49
-20.89
-26.21
-32.73
-40.31
-48.28
-55.46
-60.50
-62.30
-60.35
-54.90
-46.90
-37.58
-28.13
-19.41
-11.88
-5.71
-0.89
2.67
5.09
6.59
7.48
8.10
8.78
9.76
11.17
13.05
15.37
18.03
20.85
23.56
25.85
27.44
28.16
28.03
27.23
25.96
24.38
22.56
20.40
17.87
14.95
11.74
8.38
4.98
1.58
-1.83
-5.25
-8.69
-12.14
-15.68
-19.51
-23.95
-29.32
-35.63
-42.49
-49.00
-54.00
-56.34
-55.31
-50.86
-43.64
-34.76
-25.39
-16.48
-8.53
-1.72
4.02
8.69
12.25
14.63
15.84
16.11
15.85
15.56
15.63
16.27
17.45
19.04
20.83
22.64
24.31
25.65
26.44
26.49
25.69
24.08
21.84
19.21
16.40
13.49
10.48
7.27
3.80
0.06
-3.87
-7.85
-11.74
-15.44
-18.98
-22.50
-26.22
-30.38
-35.16
-40.59
-46.38
-51.99
-56.62
-59.38
-59.51
-56.65
-50.93
-43.05
-34.04
-24.95
-16.63
-9.53
-3.73
0.93
4.66
7.60
9.85
11.47
12.59
13.41
14.16
15.05
16.16
17.53
19.12
20.90
22.83
24.80
26.62
28.01
28.70
28.49
27.35
25.39
22.87
20.05
17.12
14.18
11.22
8.17
4.96
1.56
-1.96
-5.50
-8.96
-12.35
-15.85
-19.76
-24.37
-29.83
-35.93
-42.15
-47.67
-51.59
-53.13
-51.80
-47.53
-40.70
-32.13
-22.84
-13.90
-6.12
0.07
4.66
7.90
10.15
11.68
12.66
13.20
13.43
13.54
13.78
14.33
15.31
16.70
18.36
20.09
21.64
22.77
23.35
23.29
22.61
21.35
19.52
17.09
14.02
10.33
6.19
1.87
-2.29
-6.05
-9.33
-12.20
-14.85
-17.57
-20.67
-24.47
-29.26
-35.10
-41.69
-48.28
-53.79
-57.03
-57.14
-53.87
-47.66
-39.50
-30.54
-21.75
-13.74
-6.77
-0.90
3.88
7.52
10.03
11.48
12.13
12.27
12.30
12.49
13.04
14.02
15.37
16.99
18.73
20.45
22.02
23.34
24.32
24.82
24.62
23.53
21.40
18.25
14.24
9.65
4.80
0.00
-4.48
-8.49
-11.96
-15.01
-17.99
-21.39
-25.70
-31.16
-37.52
-44.03
-49.56
-52.92
-53.25
-50.31
-44.50
-36.72
-28.02
-19.33
-11.26
-4.18
1.74
6.37
9.59
11.35
11.81
11.30
10.35
9.51
9.20
9.65
10.88
12.72
14.89
17.09
19.02
20.46
21.29
21.49
21.11
20.16
18.62
16.43
13.56
10.09
6.26
2.34
-1.44
-5.02
-8.52
-12.24
-16.48
-21.52
-27.45
-34.10
-40.93
-47.02
-51.35
-52.99
-51.44
-46.79
-39.69
-31.16
-22.27
-13.92
-6.71
-0.95
3.29
6.13
7.77
8.48
8.57
8.36
8.12
8.07
8.39
9.16
10.39
12.03
13.97
16.03
17.97
19.55
20.50
20.61
19.72
17.82
14.98
11.39
7.33
3.11
-0.99
-4.85
-8.58
-12.46
-16.84
-21.98
-27.91
-34.32
-40.63
-46.09
-49.84
-51.12
-49.44
-44.69
-37.32
-28.24
-18.63
-9.60
-1.95
4.00
8.31
11.19
12.90
13.68
13.80
13.63
13.55
13.86
14.66
15.81
17.06
18.16
19.00
19.58
19.97
20.21
20.23
19.92
19.09
17.55
15.15
11.81
7.59
2.79
-2.17
-6.85
-10.98
-14.70
-18.47
-22.95
-28.62
-35.53
-43.18
-50.62
-56.69
-60.30
-60.74
-57.80
-51.81
-43.53
-33.96
-24.15
-14.95
-6.90
-0.21
5.17
9.39
12.62
15.01
16.73
18.04
19.24
20.64
22.44
24.65
27.11
29.51
31.54
33.00
33.81
34.05
33.82
33.22
32.21
30.70
28.49
25.50
21.71
17.28
12.47
7.61
2.92
-1.53
-5.84
-10.27
-15.18
-20.88
-27.54
-35.09
-43.09
-50.79
-57.14
-61.09
-61.79
-58.87
-52.56
-43.62
-33.13
-22.18
-11.71
-2.32
5.62
11.98
16.74
20.02
22.09
23.36
24.31
25.37
26.85
28.86
31.34
34.12
36.93
39.57
41.78
43.42
44.32
44.41
43.66
42.12
39.97
37.40
34.60
31.68
28.63
25.29
21.51
17.19
12.38
7.27
2.14
-2.76
-7.33
-11.65
-15.96
-20.66
-26.16
-32.73
-40.30
-48.33
-55.71
-61.06
-63.08
-61.01
-54.89
-45.60
-34.50
-23.06
-12.45
-3.30
4.16
10.03
14.52
17.86
20.30
22.12
23.63
25.13
26.90
29.09
31.71
34.65
37.65
40.42
42.68
44.26
45.10
45.24
44.76
43.75
42.22
40.19
37.61
34.43
30.67
26.37
21.68
16.82
12.06
7.63
3.68
0.14
-3.21
-6.78
-10.99
-16.24
-22.69
-30.27
-38.49
-46.50
-53.17
-57.26
-57.85
-54.53
-47.64
-38.14
-27.31
-16.45
-6.49
2.04
9.01
14.48
18.57
21.47
23.37
24.62
25.63
26.81
28.45
30.60
33.12
35.72
38.15
40.24
41.93
43.17
43.94
44.19
43.84
42.89
41.37
39.38
37.03
34.35
31.34
28.00
24.30
20.30
16.11
11.91
7.91
4.30
1.12
-1.79
-4.82
-8.56
-13.55
-20.14
-28.21
-37.12
-45.73
-52.68
-56.67
-56.92
-53.28
-46.36
-37.32
-27.46
-17.95
-9.56
-2.64
2.81
6.93
9.94
12.05
13.48
14.51
15.47
16.66
18.26
20.31
22.64
24.97
27.06
28.80
30.21
31.39
32.38
33.08
33.27
32.68
31.17
28.78
25.71
22.23
18.59
14.93
11.37
7.93
4.62
1.36
-1.94
-5.41
-9.14
-13.25
-17.82
-22.95
-28.73
-35.06
-41.51
-47.27
-51.33
-52.69
-50.78
-45.69
-38.13
-29.21
-20.06
-11.57
-4.20
1.88
6.69
10.32
12.76
14.08
14.49
14.32
14.08
14.20
14.96
16.36
18.17
20.04
21.71
23.05
24.10
24.92
25.41
25.36
24.49
22.63
19.92
16.66
13.25
9.95
6.79
3.63
0.32
-3.20
-6.84
-10.51
-14.18
-18.00
-22.28
-27.28
-33.04
-39.31
-45.45
-50.61
-53.90
-54.62
-52.41
-47.38
-40.09
-31.40
-22.24
-13.48
-5.73
0.68
5.68
9.34
11.88
13.53
14.51
15.07
15.46
15.97
16.86
18.31
20.31
22.65
24.95
26.80
27.90
28.22
27.87
27.09
25.99
24.51
22.42
19.47
15.63
11.09
6.30
1.76
-2.19
-5.49
-8.39
-11.30
-14.68
-18.86
-23.94
-29.74
-35.79
-41.39
-45.62
-47.58
-46.66
-42.68
-36.06
-27.72
-18.78
-10.24
-2.78
3.33
8.10
11.64
14.04
15.34
15.66
15.30
14.73
14.52
15.09
16.59
18.79
21.25
23.48
25.15
26.15
26.54
26.46
25.99
25.05
23.52
21.26
18.27
14.67
10.73
6.68
2.71
-1.16
-5.09
-9.29
-13.96
-19.22
-25.07
-31.34
-37.74
-43.78
-48.83
-52.15
-53.08
-51.27
-46.84
-40.36
-32.70
-24.75
-17.21
-10.50
-4.79
-0.13
3.49
6.11
7.88
9.00
9.76
10.37
11.00
11.75
12.64
13.70
14.90
16.18
17.36
18.22
18.52
18.11
16.89
14.86
12.12
8.80
5.08
1.18
-2.70
-6.46
-10.14
-13.96
-18.25
-23.28
-29.13
-35.50
-41.72
-46.81
-49.74
-49.72
-46.45
-40.17
-31.73
-22.25
-12.89
-4.55
2.22
7.31
10.88
13.27
14.84
15.91
16.72
17.43
18.13
18.79
19.40
19.91
20.30
20.57
20.72
20.75
20.65
20.33
19.74
18.72
17.17
14.96
12.06
8.49
4.35
-0.18
-4.96
-9.85
-14.86
-20.17
-25.96
-32.30
-38.92
-45.05
-49.57
-51.30
-49.48
-44.05
-35.77
-25.95
-15.98
-6.90
0.73
6.80
11.44
14.82
17.05
18.25
18.68
18.73
18.87
19.46
20.64
22.28
24.03
25.52
26.52
27.01
27.13
27.06
26.82
26.21
24.96
22.79
19.70
15.91
11.83
7.85
4.15
0.59
-3.17
-7.57
-12.95
-19.40
-26.65
-34.06
-40.70
-45.53
-47.64
-46.52
-42.21
-35.31
-26.78
-17.71
-9.03
-1.33
5.09
10.19
14.09
16.93
18.87
20.14
21.00
21.76
22.72
24.09
25.91
28.01
30.11
31.87
33.09
33.71
33.81
33.54
32.98
32.11
30.79
28.85
26.13
22.64
18.51
14.02
9.49
5.18
1.16
-2.66
-6.54
-10.80
-15.73
-21.49
-27.99
-34.81
-41.24
-46.29
-49.03
-48.77
-45.34
-39.11
-30.94
-21.87
-12.90
-4.78
2.05
7.46
11.51
14.41
16.39
17.68
18.46
18.98
19.50
20.34
21.77
23.88
26.50
29.24
31.64
33.31
34.14
34.26
33.92
33.33
32.52
31.30
29.41
26.67
23.08
18.84
14.28
9.74
5.47
1.54
-2.06
-5.55
-9.23
-13.48
-18.66
-24.86
-31.76
-38.59
-44.27
-47.73
-48.23
-45.60
-40.20
-32.81
-24.33
-15.60
-7.29
0.12
6.29
11.06
14.43
16.56
17.73
18.28
18.56
18.91
19.58
20.72
22.37
24.38
26.44
28.20
29.35
29.76
29.55
28.99
28.34
27.72
27.02
25.93
24.10
21.31
17.56
13.09
8.34
3.77
-0.29
-3.72
-6.69
-9.57
-12.86
-16.98
-22.11
-28.11
-34.41
-40.20
-44.50
-46.51
-45.73
-42.16
-36.20
-28.63
-20.31
-12.05
-4.52
1.85
6.82
10.32
12.39
13.23
13.19
12.72
12.36
12.54
13.47
15.11
17.14
19.15
20.82
22.03
22.86
23.48
23.97
24.29
24.24
23.61
22.29
20.27
17.62
14.41
10.72
6.63
2.33
-1.98
-6.05
-9.82
-13.39
-17.11
-21.32
-26.20
-31.59
-37.01
-41.73
-44.95
-46.01
-44.56
-40.60
-34.54
-27.02
-18.87
-10.88
-3.71
2.24
6.75
9.86
11.69
12.52
12.66
12.52
12.51
12.97
14.05
15.70
17.70
19.72
21.47
22.72
23.41
23.62
23.50
23.21
22.84
22.26
21.23
19.47
16.84
13.40
9.44
5.30
1.29
-2.45
-5.91
-9.14
-12.23
-15.33
-18.67
-22.59
-27.30
-32.74
-38.39
-43.36
-46.59
-47.27
-45.09
-40.29
-33.61
-25.93
-18.13
-10.83
-4.42
0.91
5.07
8.04
9.85
10.66
10.77
10.59
10.60
11.16
12.41
14.24
16.33
18.35
20.02
21.28
22.17
22.80
23.19
23.28
22.96
22.15
20.84
19.07
16.93
14.45
11.61
8.44
4.99
1.45
-2.03
-5.33
-8.47
-11.64
-15.04
-18.91
-23.36
-28.43
-34.00
-39.80
-45.30
-49.72
-52.17
-51.92
-48.65
-42.64
-34.71
-25.98
-17.52
-10.04
-3.86
1.03
4.80
7.61
9.60
10.84
11.53
11.88
12.19
12.70
13.63
15.05
16.94
19.13
21.37
23.38
24.89
25.77
26.03
25.82
25.25
24.36
23.11
21.35
19.02
16.15
12.88
9.37
5.78
2.16
-1.44
-4.94
-8.28
-11.44
-14.57
-17.95
-21.97
-26.89
-32.69
-38.95
-44.87
-49.46
-51.78
-51.21
-47.69
-41.63
-33.89
-25.42
-17.10
-9.53
-3.03
2.32
6.48
9.50
11.48
12.61
13.16
13.47
13.86
14.55
15.70
17.35
19.46
21.86
24.31
26.45
28.00
28.78
28.73
27.95
26.62
24.85
22.69
20.10
17.08
13.68
10.10
6.58
3.35
0.48
-2.12
-4.75
-7.77
-11.49
-16.07
-21.48
-27.47
-33.65
-39.50
-44.44
-47.80
-48.97
-47.51
-43.36
-36.92
-28.99
-20.53
-12.44
-5.32
0.61
5.42
9.26
12.27
14.45
15.76
16.25
16.19
16.03
16.24
17.11
18.61
20.43
22.14
23.41
24.17
24.58
24.92
25.34
25.72
25.76
25.08
23.45
20.87
17.61
14.05
10.54
7.33
4.46
1.82
-0.82
-3.68
-6.93
-10.71
-15.07
-20.03
-25.43
-30.92
-35.87
-39.43
-40.83
-39.58
-35.76
-30.00
-23.26
-16.50
-10.39
-5.20
-0.89
2.68
5.54
7.61
8.78
9.06
8.70
8.10
7.75
7.96
8.84
10.29
12.06
13.93
15.74
17.41
18.90
20.15
21.05
21.48
21.32
20.50
19.00
16.89
14.26
11.31
8.26
5.35
2.68
0.19
-2.43
-5.60
-9.71
-14.87
-20.79
-26.77
-31.89
-35.31
-36.46
-35.24
-31.88
-26.86
-20.68
-13.82
-6.72
0.14
6.23
10.97
13.89
14.79
13.86
11.70
9.13
7.01
5.91
5.99
7.02
8.49
9.92
10.87
11.10
10.44
8.90
6.63
4.07
1.83
0.41
-0.14
-0.53
-2.04
-5.99
-13.10
-23.06
-34.56
-45.89
-55.68
-63.23
-68.61
-72.15
-74.05
-74.15
-72.11
-67.77
-61.41
-53.74
-45.66
-37.93
-30.97
-24.92
-19.75
-15.48
-12.19
-10.11
-9.37
-10.00
-11.75
-14.09
-16.38
-18.00
-18.52
-17.87
-16.26
-14.13
-11.98
-10.24
-9.22
-9.11
-9.92
-11.53
-13.62
-15.72
-17.30
-17.97
-17.60
-16.48
-15.22
-14.53
-15.06
-17.03
-20.22
-23.89
-27.08
-28.77
-28.16
-24.84
-18.83
-10.50
-0.46
10.53
21.67
32.19
41.44
48.93
54.41
57.84
59.44
59.59
58.77
57.49
56.16
55.00
54.05
53.25
52.54
51.99
51.75
51.93
52.44
52.97
52.97
51.97
49.66
46.07
41.55
36.49
31.20
25.74
19.92
13.42
5.98
-2.40
-11.35
-20.09
-27.66
-33.06
-35.60
-35.13
-32.02
-27.12
-21.38
-15.66
-10.52
-6.20
-2.80
-0.36
1.05
1.41
0.78
-0.67
-2.67
-4.93
-7.23
-9.44
-11.52
-13.39
-15.04
-16.41
-17.55
-18.51
-19.35
-20.13
-20.80
-21.34
-21.80
-22.32
-23.19
-24.73
-27.27
-30.96
-35.78
-41.38
-47.12
-52.03
-55.05
-55.25
-52.09
-45.64
-36.55
-25.88
-14.75
-4.11
5.47
13.76
20.73
26.36
30.56
33.29
34.55
34.60
33.86
32.87
32.02
31.51
31.24
30.98
30.47
29.59
28.39
26.98
25.50
23.97
22.37
20.55
18.28
15.33
11.46
6.50
0.45
-6.48
-13.89
-21.11
-27.26
-31.38
-32.60
-30.42
-24.92
-16.80
-7.20
2.61
11.61
19.20
25.22
29.77
33.05
35.20
36.35
36.66
36.32
35.61
34.81
34.14
33.73
33.59
33.62
33.65
33.45
32.84
31.68
29.93
27.63
24.84
21.66
18.14
14.23
9.86
4.88
-0.83
-7.34
-14.49
-21.78
-28.43
-33.37
-35.61
-34.42
-29.67
-21.87
-12.11
-1.71
8.09
16.39
22.86
27.56
30.87
33.17
34.76
35.72
36.03
35.68
34.76
33.58
32.52
31.91
31.88
32.25
32.62
32.57
31.82
30.32
28.27
25.92
23.46
20.95
18.24
15.17
11.55
7.26
2.28
-3.27
-9.09
-14.66
-19.20
-21.86
-21.96
-19.16
-13.67
-6.20
2.25
10.68
18.31
24.73
29.76
33.36
35.58
36.43
36.05
34.69
32.75
30.68
28.83
27.38
26.35
25.62
25.05
24.54
23.94
23.14
21.99
20.38
18.28
15.81
13.14
10.44
7.77
5.03
1.97
-1.69
-6.17
-11.50
-17.45
-23.48
-28.79
-32.50
-33.80
-32.27
-27.98
-21.56
-13.95
-6.14
1.05
7.26
12.40
16.53
19.68
21.73
22.53
22.07
20.61
18.66
16.83
15.58
15.05
15.08
15.32
15.39
15.10
14.42
13.46
12.31
10.98
9.38
7.39
4.94
1.99
-1.44
-5.36
-9.81
-14.79
-20.14
-25.35
-29.69
-32.29
-32.49
-30.06
-25.28
-18.85
-11.65
-4.48
2.05
7.58
11.91
14.96
16.74
17.35
16.96
15.80
14.20
12.55
11.23
10.55
10.60
11.26
12.15
12.84
12.95
12.30
10.97
9.18
7.17
5.06
2.81
0.32
-2.57
-5.92
-9.72
-13.91
-18.39
-22.97
-27.32
-30.83
-32.78
-32.53
-29.74
-24.63
-17.96
-10.80
-4.15
1.38
5.63
8.82
11.17
12.77
13.51
13.24
11.99
10.07
8.04
6.44
5.61
5.52
5.87
6.26
6.35
6.02
5.30
4.26
2.99
1.52
-0.13
-1.99
-4.10
-6.57
-9.51
-13.05
-17.26
-22.05
-27.10
-31.84
-35.58
-37.60
-37.36
-34.69
-29.87
-23.51
-16.46
-9.53
-3.34
1.72
5.52
8.06
9.44
9.82
9.41
8.44
7.14
5.74
4.43
3.41
2.80
2.70
3.05
3.71
4.43
4.95
5.04
4.58
3.51
1.90
-0.18
-2.61
-5.26
-8.02
-10.89
-13.95
-17.35
-21.20
-25.43
-29.68
-33.29
-35.49
-35.59
-33.28
-28.70
-22.50
-15.57
-8.81
-2.92
1.72
5.11
7.43
8.92
9.72
9.89
9.45
8.53
7.36
6.32
5.77
5.93
6.76
8.04
9.42
10.59
11.30
11.45
11.03
10.04
8.53
6.52
4.06
1.19
-1.97
-5.31
-8.72
-12.13
-15.60
-19.27
-23.27
-27.53
-31.63
-34.81
-36.17
-35.03
-31.23
-25.27
-18.13
-10.91
-4.48
0.74
4.72
7.60
9.52
10.52
10.59
9.89
8.75
7.60
6.81
6.51
6.59
6.80
6.97
7.09
7.33
7.86
8.66
9.42
9.64
8.88
6.94
4.02
0.61
-2.80
-5.86
-8.59
-11.21
-14.03
-17.30
-21.14
-25.43
-29.92
-34.16
-37.56
-39.46
-39.36
-36.98
-32.50
-26.47
-19.67
-12.85
-6.62
-1.30
2.92
5.94
7.68
8.14
7.47
6.00
4.20
2.57
1.48
1.13
1.46
2.25
3.24
4.25
5.18
6.03
6.81
7.45
7.80
7.65
6.83
5.30
3.16
0.65
-1.94
-4.39
-6.60
-8.65
-10.76
-13.23
-16.28
-19.93
-23.90
-27.61
-30.37
-31.52
-30.70
-27.87
-23.33
-17.62
-11.33
-5.08
0.63
5.38
8.87
10.95
11.65
11.17
9.87
8.18
6.49
5.13
4.32
4.11
4.42
5.06
5.82
6.51
7.02
7.27
7.21
6.79
5.95
4.68
3.02
1.08
-1.02
-3.17
-5.36
-7.62
-10.04
-12.76
-15.89
-19.49
-23.46
-27.48
-30.96
-33.18
-33.47
-31.47
-27.30
-21.52
-14.96
-8.42
-2.50
2.50
6.47
9.42
11.34
12.20
12.06
11.06
9.47
7.66
6.01
4.79
4.14
4.07
4.52
5.35
6.41
7.49
8.34
8.73
8.47
7.51
5.91
3.88
1.69
-0.49
-2.57
-4.61
-6.83
-9.47
-12.77
-16.73
-21.13
-25.44
-28.94
-30.89
-30.72
-28.29
-23.86
-18.08
-11.76
-5.64
-0.29
4.04
7.29
9.49
10.72
11.00
10.43
9.18
7.58
6.02
4.89
4.40
4.59
5.22
6.02
6.72
7.19
7.44
7.50
7.35
6.89
5.97
4.46
2.39
-0.11
-2.88
-5.84
-9.05
-12.68
-16.83
-21.42
-26.05
-30.03
-32.61
-33.12
-31.26
-27.17
-21.37
-14.61
-7.69
-1.28
4.14
8.33
11.20
12.76
13.17
12.61
11.36
9.74
8.10
6.76
5.93
5.69
5.95
6.55
7.23
7.82
8.21
8.34
8.19
7.71
6.86
5.57
3.77
1.51
-1.12
-4.01
-7.09
-10.48
-14.33
-18.82
-23.85
-28.98
-33.38
-36.10
-36.35
-33.84
-28.86
-22.16
-14.67
-7.25
-0.45
5.42
10.23
13.88
16.31
17.49
17.49
16.56
15.09
13.53
12.29
11.66
11.68
12.21
13.00
13.81
14.47
14.92
15.06
14.81
14.05
12.68
10.72
8.30
5.59
2.78
-0.08
-3.02
-6.22
-9.90
-14.26
-19.33
-24.90
-30.42
-35.08
-37.99
-38.37
-35.83
-30.51
-23.07
-14.51
-5.93
1.76
7.96
12.49
15.40
16.97
17.51
17.39
16.95
16.50
16.30
16.47
16.98
17.70
18.41
18.93
19.18
19.19
19.11
19.11
19.32
19.65
19.83
19.37
17.81
14.95
11.00
6.48
2.03
-1.95
-5.48
-8.95
-12.86
-17.58
-23.04
-28.76
-33.97
-37.84
-39.66
-39.01
-35.86
-30.51
-23.58
-15.81
-7.98
-0.73
5.50
10.44
13.97
16.10
16.95
16.79
16.01
15.08
14.44
14.41
15.09
16.36
17.98
19.69
21.24
22.52
23.51
24.17
24.49
24.37
23.71
22.44
20.55
18.11
15.24
12.08
8.79
5.49
2.23
-1.08
-4.61
-8.66
-13.46
-19.07
-25.23
-31.34
-36.60
-40.14
-41.32
-39.80
-35.71
-29.55
-22.06
-14.05
-6.26
0.78
6.71
11.41
14.84
17.11
18.33
18.70
18.47
17.94
17.46
17.31
17.64
18.47
19.67
21.03
22.30
23.26
23.78
23.87
23.63
23.17
22.57
21.76
20.54
18.65
15.94
12.51
8.69
4.95
1.66
-1.13
-3.71
-6.58
-10.23
-14.90
-20.43
-26.29
-31.71
-35.84
-37.93
-37.48
-34.36
-28.83
-21.50
-13.22
-4.86
2.79
9.19
14.04
17.28
19.01
19.49
19.05
18.08
17.01
16.19
15.93
16.36
17.42
18.88
20.42
21.79
22.84
23.58
24.11
24.49
24.66
24.40
23.49
21.78
19.30
16.22
12.78
9.17
5.49
1.71
-2.14
-6.03
-9.92
-13.86
-18.03
-22.68
-27.93
-33.59
-39.02
-43.25
-45.32
-44.67
-41.29
-35.68
-28.62
-20.85
-12.93
-5.26
1.79
7.85
12.53
15.59
17.09
17.33
16.85
16.18
15.76
15.83
16.46
17.55
18.96
20.51
22.08
23.59
24.97
26.15
26.98
27.31
26.96
25.88
24.06
21.57
18.51
14.94
10.98
6.71
2.33
-2.00
-6.10
-9.89
-13.41
-16.85
-20.49
-24.61
-29.38
-34.73
-40.19
-44.94
-48.06
-48.72
-46.53
-41.63
-34.65
-26.44
-17.89
-9.70
-2.38
3.76
8.55
11.93
13.99
14.93
15.08
14.87
14.67
14.85
15.62
17.08
19.10
21.41
23.63
25.42
26.59
27.16
27.27
27.09
26.73
26.11
25.07
23.46
21.16
18.22
14.75
10.99
7.13
3.39
-0.14
-3.46
-6.70
-10.12
-14.05
-18.80
-24.43
-30.67
-36.83
-41.94
-44.94
-45.02
-41.94
-36.06
-28.25
-19.60
-11.05
-3.26
3.50
9.12
13.57
16.74
18.57
19.11
18.59
17.51
16.44
15.90
16.18
17.29
19.01
21.02
23.01
24.76
26.18
27.17
27.69
27.68
27.06
25.79
23.86
21.32
18.27
14.86
11.26
7.64
4.09
0.63
-2.83
-6.44
-10.34
-14.67
-19.55
-25.05
-31.06
-37.23
-42.84
-46.96
-48.65
-47.34
-42.97
-36.12
-27.70
-18.71
-9.96
-2.01
4.82
10.28
14.17
16.37
17.01
16.46
15.33
14.24
13.67
13.87
14.76
16.14
17.70
19.21
20.55
21.71
22.72
23.60
24.30
24.64
24.38
23.27
21.18
18.19
14.54
10.63
6.81
3.31
0.18
-2.72
-5.62
-8.79
-12.48
-16.96
-22.36
-28.64
-35.40
-41.92
-47.21
-50.26
-50.40
-47.46
-41.88
-34.46
-26.17
-17.82
-10.01
-3.09
2.75
7.39
10.75
12.82
13.77
13.90
13.69
13.63
14.11
15.24
16.85
18.60
20.11
21.18
21.86
22.39
23.01
23.74
24.29
24.14
22.82
20.10
16.15
11.47
6.64
2.12
-1.91
-5.52
-8.96
-12.57
-16.61
-21.36
-26.95
-33.36
-40.29
-47.09
-52.81
-56.43
-57.14
-54.59
-48.97
-40.96
-31.50
-21.61
-12.15
-3.75
3.22
8.66
12.60
15.20
16.67
17.22
17.17
16.90
16.84
17.40
18.74
20.77
23.12
25.36
27.13
28.31
28.93
29.13
28.94
28.28
26.99
24.91
22.01
18.34
14.11
9.59
5.01
0.58
-3.59
-7.48
-11.24
-15.08
-19.34
-24.30
-30.16
-36.86
-44.01
-50.90
-56.55
-59.96
-60.34
-57.38
-51.28
-42.78
-32.90
-22.71
-13.11
-4.69
2.29
7.81
11.93
14.76
16.38
16.97
16.88
16.56
16.54
17.24
18.82
21.19
24.01
26.81
29.22
30.95
31.89
32.10
31.71
30.83
29.55
27.82
25.52
22.49
18.71
14.26
9.40
4.44
-0.33
-4.78
-8.93
-12.99
-17.21
-21.97
-27.55
-34.04
-41.27
-48.65
-55.21
-59.79
-61.38
-59.38
-53.85
-45.43
-35.23
-24.44
-14.15
-5.11
2.25
7.83
11.76
14.30
15.78
16.58
17.08
17.62
18.45
19.74
21.52
23.67
26.00
28.27
30.30
31.96
33.25
34.15
34.66
34.72
34.21
32.99
30.96
28.04
24.26
19.75
14.81
9.80
5.09
0.94
-2.60
-5.72
-8.79
-12.26
-16.59
-22.11
-28.90
-36.70
-44.83
-52.21
-57.57
-59.74
-58.00
-52.34
-43.44
-32.49
-20.82
-9.57
0.53
9.11
16.02
21.19
24.60
26.31
26.63
26.06
25.26
24.84
25.12
26.12
27.64
29.42
31.26
33.11
34.90
36.53
37.76
38.29
37.86
36.37
33.84
30.41
26.26
21.57
16.56
11.50
6.68
2.28
-1.68
-5.44
-9.41
-14.05
-19.68
-26.40
-34.02
-42.07
-49.81
-56.36
-60.73
-62.09
-59.94
-54.30
-45.78
-35.35
-24.18
-13.31
-3.56
4.59
10.85
15.10
17.36
17.78
16.82
15.14
13.55
12.73
13.05
14.47
16.56
18.74
20.60
21.96
22.91
23.59
23.96
23.82
22.84
20.75
17.54
13.49
9.04
4.61
0.48
-3.36
-7.11
-11.17
-15.94
-21.79
-28.85
-36.89
-45.22
-52.74
-58.14
-60.27
-58.47
-52.80
-43.97
-33.14
-21.56
-10.30
-0.13
8.43
15.09
19.67
22.23
23.03
22.56
21.47
20.40
19.83
19.99
20.85
22.19
23.72
25.18
26.41
27.35
27.97
28.23
27.96
26.92
24.90
21.76
17.59
12.67
7.35
1.95
-3.36
-8.63
-14.10
-20.10
-26.89
-34.48
-42.48
-50.06
-56.07
-59.36
-59.09
-55.00
-47.48
-37.50
-26.25
-14.89
-4.36
4.75
12.11
17.62
21.29
23.31
23.99
23.79
23.27
22.95
23.22
24.19
25.69
27.39
28.92
30.02
30.63
30.81
30.65
30.12
29.08
27.35
24.76
21.35
17.29
12.91
8.53
4.34
0.31
-3.80
-8.46
-14.16
-21.19
-29.57
-38.76
-47.79
-55.37
-60.20
-61.25
-58.16
-51.27
-41.53
-30.29
-18.86
-8.29
0.81
8.19
13.85
17.85
20.32
21.44
21.51
21.03
20.54
20.59
21.46
23.21
25.54
28.05
30.26
31.91
32.91
33.37
33.42
33.12
32.37
30.94
28.61
25.27
20.98
16.01
10.70
5.40
0.32
-4.45
-9.11
-14.02
-19.65
-26.36
-34.27
-43.02
-51.75
-59.21
-64.03
-65.08
-61.82
-54.49
-44.05
-31.94
-19.64
-8.32
1.33
9.09
15.04
19.37
22.23
23.81
24.37
24.35
24.28
24.67
25.87
27.97
30.79
34.03
37.26
40.04
42.00
42.90
42.70
41.58
39.87
37.89
35.76
33.39
30.50
26.87
22.44
17.41
12.12
6.90
1.91
-2.87
-7.63
-12.64
-18.23
-24.62
-31.96
-40.12
-48.60
-56.49
-62.54
-65.47
-64.39
-59.07
-50.08
-38.64
-26.22
-14.15
-3.41
5.55
12.57
17.72
21.13
23.01
23.74
23.84
23.90
24.40
25.64
27.60
30.08
32.81
35.55
38.16
40.51
42.47
43.84
44.38
43.94
42.46
40.12
37.15
33.81
30.26
26.53
22.53
18.16
13.46
8.51
3.51
-1.43
-6.31
-11.28
-16.57
-22.44
-29.10
-36.62
-44.85
-53.26
-60.94
-66.66
-69.14
-67.48
-61.48
-51.84
-39.94
-27.45
-15.83
-5.92
2.05
8.34
13.28
17.12
19.88
21.58
22.36
22.65
23.10
24.26
26.45
29.56
33.15
36.66
39.63
41.77
42.98
43.27
42.75
41.51
39.71
37.44
34.83
31.91
28.69
25.13
21.23
16.97
12.38
7.52
2.51
-2.51
-7.38
-11.99
-16.44
-21.03
-26.21
-32.41
-39.72
-47.77
-55.58
-61.81
-65.16
-64.70
-60.22
-52.24
-41.84
-30.30
-18.84
-8.32
0.75
8.14
13.80
17.76
20.12
21.15
21.31
21.17
21.30
22.10
23.69
25.90
28.40
30.89
33.15
35.10
36.73
37.90
38.48
38.28
37.22
35.37
32.92
30.06
26.92
23.48
19.67
15.44
10.85
6.12
1.57
-2.55
-6.14
-9.33
-12.47
-16.05
-20.61
-26.51
-33.79
-42.00
-50.16
-56.92
-60.91
-61.12
-57.25
-49.83
-39.98
-29.10
-18.44
-8.89
-0.90
5.40
10.08
13.33
15.42
16.66
17.36
17.85
18.38
19.16
20.33
22.00
24.15
26.66
29.29
31.71
33.63
34.87
35.41
35.34
34.73
33.60
31.81
29.21
25.69
21.35
16.40
11.24
6.17
1.41
-3.00
-7.15
-11.15
-15.17
-19.36
-23.99
-29.30
-35.42
-42.17
-48.89
-54.57
-58.01
-58.26
-54.93
-48.31
-39.30
-29.10
-18.91
-9.64
-1.80
4.47
9.26
12.78
15.21
16.71
17.42
17.56
17.47
17.55
18.15
19.42
21.26
23.36
25.40
27.10
28.35
29.14
29.52
29.49
29.00
27.95
26.26
23.87
20.79
17.13
13.10
8.93
4.84
0.95
-2.81
-6.60
-10.69
-15.29
-20.56
-26.56
-33.27
-40.48
-47.61
-53.82
-58.01
-59.29
-57.14
-51.75
-43.90
-34.64
-25.03
-15.81
-7.44
-0.16
5.82
10.34
13.34
14.97
15.62
15.79
15.96
16.44
17.41
18.85
20.71
22.91
25.31
27.73
29.92
31.65
32.72
33.05
32.69
31.68
30.05
27.80
24.91
21.42
17.46
13.20
8.83
4.47
0.17
-4.05
-8.19
-12.26
-16.28
-20.38
-24.83
-29.88
-35.68
-41.98
-48.08
-52.94
-55.45
-54.81
-50.85
-44.02
-35.33
-25.93
-16.84
-8.71
-1.83
3.76
8.11
11.29
13.35
14.43
14.78
14.79
14.89
15.46
16.70
18.57
20.87
23.32
25.65
27.68
29.31
30.42
30.93
30.77
29.96
28.54
26.66
24.38
21.72
18.63
15.03
11.02
6.78
2.62
-1.17
-4.45
-7.36
-10.25
-13.61
-17.89
-23.30
-29.70
-36.56
-43.04
-48.07
-50.67
-50.18
-46.47
-40.04
-31.86
-23.10
-14.81
-7.71
-2.03
2.34
5.66
8.24
10.26
11.81
12.97
13.80
14.42
14.99
15.69
16.72
18.21
20.16
22.44
24.75
26.73
28.08
28.59
28.22
27.03
25.15
22.70
19.75
16.41
12.78
9.04
5.33
1.75
-1.66
-4.98
-8.36
-11.97
-15.93
-20.32
-25.15
-30.37
-35.84
-41.26
-46.07
-49.55
-50.95
-49.76
-45.95
-39.97
-32.64
-24.85
-17.34
-10.56
-4.74
0.02
3.67
6.19
7.62
8.17
8.19
8.09
8.21
8.80
9.94
11.59
13.59
15.73
17.79
19.56
20.91
21.75
22.05
21.82
21.08
19.86
18.19
16.09
13.58
10.63
7.28
3.60
-0.20
-3.89
-7.29
-10.34
-13.17
-16.01
-19.15
-22.79
-27.10
-32.10
-37.64
-43.29
-48.34
-51.81
-52.79
-50.71
-45.64
-38.28
-29.74
-21.14
-13.34
-6.78
-1.55
2.38
5.09
6.68
7.28
7.17
6.72
6.40
6.62
7.63
9.49
11.99
14.81
17.55
19.91
21.66
22.75
23.21
23.16
22.72
21.94
20.82
19.23
17.03
14.14
10.66
6.83
3.03
-0.43
-3.44
-6.12
-8.76
-11.73
-15.30
-19.63
-24.70
-30.32
-36.08
-41.36
-45.34
-47.21
-46.39
-42.72
-36.55
-28.66
-20.03
-11.56
-3.95
2.47
7.56
11.38
14.02
15.61
16.32
16.40
16.19
16.09
16.45
17.50
19.18
21.25
23.29
24.92
25.96
26.46
26.60
26.58
26.37
25.81
24.59
22.55
19.72
16.32
12.65
8.93
5.28
1.71
-1.78
-5.15
-8.42
-11.75
-15.43
-19.76
-24.91
-30.71
-36.61
-41.79
-45.39
-46.70
-45.39
-41.48
-35.38
-27.76
-19.44
-11.19
-3.67
2.69
7.70
11.35
13.75
15.08
15.54
15.37
14.89
14.42
14.26
14.61
15.53
16.86
18.34
19.65
20.56
20.94
20.86
20.44
19.83
19.03
17.90
16.18
13.63
10.19
6.02
1.48
-2.97
-6.97
-10.39
-13.39
-16.37
-19.81
-24.11
-29.37
-35.31
-41.27
-46.39
-49.74
-50.63
-48.70
-44.06
-37.22
-29.01
-20.36
-12.09
-4.81
1.14
5.68
8.84
10.78
11.68
11.76
11.33
10.74
10.33
10.37
10.97
12.12
13.62
15.25
16.82
18.18
19.24
19.94
20.16
19.67
18.27
15.79
12.33
8.20
3.86
-0.25
-3.91
-7.22
-10.58
-14.51
-19.40
-25.33
-31.92
-38.34
-43.50
-46.38
-46.29
-43.13
-37.36
-29.86
-21.65
-13.59
-6.24
0.13
5.41
9.56
12.57
14.40
15.19
15.15
14.62
14.00
13.62
13.68
14.19
15.03
16.00
16.88
17.52
17.83
17.72
17.10
15.85
13.81
10.94
7.28
3.04
-1.46
-5.93
-10.21
-14.34
-18.50
-22.98
-28.09
-33.95
-40.47
-47.30
-53.82
-59.22
-62.74
-63.81
-62.14
-57.87
-51.41
-43.36
-34.36
-25.09
-16.21
-8.39
-2.18
2.08
4.47
5.43
5.74
6.26
7.69
10.37
14.16
18.52
22.72
26.14
28.43
29.63
30.07
30.15
30.16
30.13
29.89
29.15
27.73
25.62
23.06
20.40
18.05
16.31
15.35
15.15
15.52
16.20
17.01
17.92
19.19
21.36
25.12
31.02
39.26
49.55
61.17
73.24
84.96
95.89
105.92
115.22
124.01
132.44
140.49
147.82
153.72
157.01
156.27
150.32
138.86
122.82
104.31
85.91
69.78
56.96
47.27
39.66
32.99
26.41
19.51
12.09
3.98
-5.08
-15.11
-25.74
-36.06
-45.00
-51.65
-55.66
-57.33
-57.43
-56.86
-56.28
-55.82
-55.09
-53.32
-49.72
-43.93
-36.15
-27.27
-18.49
-10.95
-5.36
-1.88
-0.25
0.01
-0.66
-1.96
-3.70
-5.72
-7.86
-10.00
-12.13
-14.33
-16.80
-19.67
-22.98
-26.60
-30.21
-33.42
-35.87
-37.34
-37.94
-38.00
-38.07
-38.67
-40.06
-42.12
-44.43
-46.43
-47.76
-48.42
-48.91
-49.95
-52.23
-56.04
-61.07
-66.45
-71.00
-73.58
-73.42
-70.34
-64.73
-57.44
-49.54
-42.04
-35.80
-31.33
-28.78
-27.95
-28.31
-29.19
-29.94
-30.08
-29.44
-28.13
-26.38
-24.45
-22.51
-20.59
-18.69
-16.79
-14.77
-12.53
-9.85
-6.57
-2.71
1.43
5.29
8.24
9.87
10.16
9.57
8.73
8.14
7.91
7.75
7.16
5.79
3.64
1.10
-1.23
-2.76
-3.06
-2.01
0.28
3.55
7.47
11.63
15.70
19.34
22.28
24.27
25.11
24.64
22.82
19.81
16.09
12.30
9.10
6.90
5.72
5.25
5.07
4.82
4.43
3.99
3.56
3.01
1.88
-0.49
-4.75
-11.35
-20.37
-31.58
-44.49
-58.48
-72.72
-86.20
-97.63
-105.64
-108.98
-106.98
-99.79
-88.49
-74.73
-60.22
-46.27
-33.48
-21.83
-11.09
-1.16
7.73
15.06
20.38
23.60
25.01
25.26
25.02
24.68
24.20
23.23
21.20
17.71
12.66
6.34
-0.68
-7.78
-14.46
-20.53
-26.17
-31.84
-38.19
-45.96
-55.79
-68.01
-82.35
-97.54
-111.26
-120.42
-122.04
-114.30
-97.40
-73.67
-46.93
-21.10
0.90
17.86
30.08
38.60
44.40
47.92
49.13
47.92
44.52
39.56
34.01
28.87
24.79
21.94
19.93
18.00
15.38
11.57
6.58
0.90
-4.71
-9.64
-13.66
-17.04
-20.39
-24.47
-30.06
-37.89
-48.45
-61.68
-76.55
-90.69
-100.74
-103.23
-95.87
-78.58
-53.80
-25.63
1.48
24.07
40.50
50.73
55.71
56.76
55.23
52.51
50.15
49.64
52.12
57.92
66.41
76.24
85.87
94.00
99.93
103.48
104.83
104.27
102.09
98.57
94.01
88.69
82.84
76.53
69.66
62.02
53.32
43.31
31.76
18.67
4.42
-9.98
-22.89
-32.29
-36.42
-34.42
-26.77
-15.24
-2.20
10.12
20.33
28.12
33.88
38.10
41.00
42.46
42.26
40.55
37.99
35.57
34.18
34.20
35.28
36.52
36.81
35.37
32.01
27.20
21.84
16.88
12.93
10.04
7.73
5.11
1.22
-4.78
-13.44
-24.72
-37.74
-50.64
-60.65
-64.73
-60.59
-47.68
-27.69
-4.05
19.15
38.59
52.62
61.38
66.08
68.15
68.53
67.64
65.60
62.73
59.64
57.05
55.52
55.14
55.55
56.04
55.82
54.30
51.32
47.10
42.16
37.11
32.37
28.10
24.13
20.13
15.71
10.56
4.39
-3.02
-11.85
-21.94
-32.51
-41.98
-48.15
-48.87
-42.90
-30.55
-13.81
4.22
20.44
32.68
40.29
43.93
44.99
44.82
44.24
43.61
42.97
42.39
42.08
42.23
42.90
43.91
44.87
45.43
45.39
44.77
43.71
42.34
40.67
38.55
35.79
32.22
27.81
22.63
16.84
10.64
4.18
-2.53
-9.61
-17.16
-25.08
-32.78
-39.18
-42.85
-42.55
-37.69
-28.65
-16.72
-3.72
8.62
19.07
27.07
32.64
36.07
37.72
37.90
36.88
35.02
32.75
30.52
28.67
27.37
26.56
25.99
25.33
24.29
22.66
20.37
17.47
14.06
10.26
6.23
2.07
-2.16
-6.49
-11.06
-16.06
-21.66
-27.94
-34.75
-41.65
-47.89
-52.47
-54.32
-52.65
-47.17
-38.33
-27.25
-15.47
-4.49
4.55
11.20
15.54
18.07
19.35
19.82
19.73
19.18
18.28
17.19
16.20
15.57
15.50
15.92
16.54
16.94
16.74
15.82
14.28
12.42
10.48
8.53
6.41
3.82
0.44
-3.91
-9.31
-15.78
-23.24
-31.38
-39.45
-46.17
-49.92
-49.28
-43.64
-33.61
-20.98
-8.10
2.87
10.64
15.02
16.67
16.60
15.65
14.31
12.80
11.25
9.92
9.20
9.54
11.20
14.11
17.80
21.48
24.29
25.51
24.81
22.31
18.48
13.96
9.28
4.75
0.39
-4.06
-8.98
-14.80
-21.96
-30.70
-40.94
-51.90
-62.00
-69.09
-70.99
-66.39
-55.45
-40.00
-22.93
-7.21
5.05
13.18
17.71
19.79
20.51
20.51
20.01
19.12
18.01
17.00
16.39
16.33
16.77
17.47
18.15
18.50
18.26
17.20
15.18
12.17
8.27
3.72
-1.28
-6.52
-11.88
-17.31
-22.75
-28.22
-33.82
-39.77
-46.11
-52.54
-58.06
-61.06
-59.73
-52.88
-40.55
-24.30
-6.88
8.73
20.24
26.71
28.55
27.11
23.94
20.26
16.71
13.42
10.33
7.33
4.54
2.16
0.40
-0.64
-1.12
-1.40
-1.93
-3.06
-4.93
-7.46
-10.37
-13.40
-16.33
-19.06
-21.64
-24.14
-26.72
-29.57
-33.00
-37.28
-42.52
-48.27
-53.34
-55.88
-53.93
-46.24
-32.97
-15.87
2.20
18.20
29.94
36.65
38.87
37.83
34.76
30.37
24.89
18.30
10.82
3.08
-3.94
-9.26
-12.23
-12.95
-12.19
-11.15
-11.02
-12.41
-15.26
-18.87
-22.42
-25.33
-27.58
-29.63
-32.14
-35.69
-40.62
-47.04
-54.75
-63.22
-71.28
-77.21
-78.94
-74.82
-64.33
-48.56
-30.01
-11.78
3.43
14.11
20.06
22.04
21.10
18.07
13.43
7.45
0.52
-6.73
-13.47
-18.83
-22.23
-23.47
-22.83
-20.93
-18.63
-16.70
-15.57
-15.25
-15.37
-15.47
-15.27
-14.94
-14.97
-16.11
-19.01
-24.10
-31.58
-41.40
-53.27
-66.46
-79.60
-90.75
-97.85
-99.41
-95.21
-86.62
-76.29
-67.31
-62.32
-62.70
-68.43
-78.22
-90.08
-101.79
-111.35
-117.26
-118.55
-114.85
-106.27
-93.30
-76.72
-57.54
-36.90
-15.95
4.35
23.44
41.14
57.65
73.27
88.09
101.87
114.05
124.02
131.36
136.03
138.22
138.23
136.22
132.28
126.49
119.22
111.17
103.18
95.99
89.87
84.50
79.22
73.35
66.62
59.25
51.92
45.39
40.26
36.75
34.68
33.59
32.90
32.09
30.87
29.24
27.50
26.16
25.72
26.61
28.91
32.40
36.61
40.97
44.94
48.06
50.05
50.75
50.20
48.60
46.31
43.81
41.55
39.72
38.22
36.68
34.60
31.70
28.04
24.15
20.73
18.45
17.54
17.74
18.37
18.61
17.80
15.63
12.19
7.82
2.95
-2.04
-6.88
-11.37
-15.40
-18.85
-21.65
-23.78
-25.28
-26.16
-26.36
-25.69
-23.95
-21.21
-17.94
-15.10
-13.84
-15.02
-18.85
-24.69
-31.39
-37.75
-43.12
-47.42
-51.04
-54.38
-57.62
-60.74
-63.66
-66.49
-69.49
-72.89
-76.68
-80.49
-83.63
-85.18
-84.18
-79.78
-71.49
-59.36
-44.11
-26.94
-9.26
7.75
23.36
37.28
49.40
59.54
67.38
72.58
75.07
75.08
73.16
69.97
66.06
