1520271187.00
64.000000
-0.00
-0.00
-0.00
-0.00
-0.00
-0.00
-0.00
-0.00
-0.00
-0.00
0.00
0.01
0.01
-0.00
-0.03
-0.05
-0.05
0.00
0.13
0.36
0.66
1.01
1.37
1.72
2.06
2.40
2.79
3.24
3.80
4.42
5.06
5.66
6.20
6.68
7.15
7.68
8.31
9.14
10.09
11.04
11.88
12.56
13.14
13.76
14.65
15.96
17.91
20.32
22.90
25.38
27.58
29.57
31.68
34.32
37.81
42.54
48.15
54.10
59.83
64.97
69.58
74.14
79.34
85.71
93.76
103.00
112.62
121.73
129.77
136.75
143.30
150.75
157.77
166.64
177.95
191.79
206.97
220.57
228.25
225.36
208.53
176.87
132.76
80.05
23.07
-34.94
-92.44
-149.16
-205.23
-260.37
-313.74
-363.87
-409.83
-450.91
-486.50
-515.74
-537.23
-549.22
-549.96
-538.37
-514.21
-478.67
-433.88
-382.45
-327.02
-269.84
-212.63
-156.66
-102.95
-52.37
-5.90
35.58
71.43
101.35
125.50
144.38
158.69
169.15
176.37
180.75
182.57
182.07
179.51
175.23
169.65
163.18
156.15
148.81
141.30
133.69
126.02
118.33
110.69
103.16
95.80
88.68
81.83
75.25
68.95
62.95
57.25
51.86
46.78
42.03
37.59
33.45
29.61
26.07
22.81
19.83
17.11
14.67
12.48
10.54
8.83
7.35
6.07
4.97
4.05
3.27
2.62
2.09
1.65
1.30
1.01
0.79
0.61
0.47
0.37
0.29
0.23
0.18
0.15
0.14
0.13
0.14
0.15
0.16
0.19
0.22
0.25
0.29
0.33
0.37
0.42
0.46
0.51
0.56
0.61
0.66
0.72
0.78
0.85
0.92
1.01
1.10
1.20
1.31
1.43
1.57
1.73
1.90
2.09
2.31
2.54
2.80
3.09
3.41
3.75
4.13
4.55
4.99
5.48
6.00
6.56
7.16
7.81
8.50
9.23
10.01
10.84
11.70
12.62
13.58
14.61
15.69
16.85
18.05
19.30
20.55
21.77
22.86
23.74
24.30
24.41
23.98
22.89
21.12
18.65
15.54
11.86
7.78
3.47
-0.86
-5.02
-8.81
-12.08
-14.73
-16.69
-17.95
-18.53
-18.55
-18.14
-17.42
-16.53
-15.56
-14.52
-13.41
-12.19
-10.80
-9.27
-7.62
-5.89
-4.11
-2.27
-0.34
1.73
4.01
6.58
9.31
12.06
14.74
17.27
19.64
21.97
24.42
27.19
30.48
34.01
37.50
40.67
43.31
45.41
47.16
48.96
51.25
54.42
58.04
61.61
64.61
66.60
67.55
67.77
67.92
68.69
70.59
72.93
74.78
75.04
72.75
67.32
58.59
46.37
29.86
12.45
-5.22
-23.25
-42.21
-62.92
-86.28
-112.98
-142.86
-174.25
-203.56
-226.64
-239.13
-238.37
-224.60
-201.05
-172.64
-144.19
-118.80
-97.42
-79.98
-65.70
-53.98
-44.54
-37.11
-31.01
-25.20
-18.62
-10.64
-1.72
7.23
15.06
20.87
24.35
25.77
25.82
25.36
25.06
25.10
25.27
25.16
24.38
22.79
20.52
17.97
15.52
13.43
11.70
10.20
8.71
7.12
5.39
3.49
1.35
-1.19
-4.33
-8.21
-12.65
-17.18
-20.95
-23.00
-22.52
-19.13
-13.04
-5.03
3.83
12.37
19.72
25.43
29.45
32.09
33.72
34.65
35.00
34.80
34.04
32.85
31.47
30.20
29.24
28.58
28.08
27.60
27.13
26.86
26.97
27.47
28.03
28.15
27.32
25.38
22.51
19.19
15.91
12.95
10.32
7.82
5.28
2.63
-0.05
-2.59
-4.87
-6.84
-8.53
-10.07
-11.67
-13.68
-16.55
-20.68
-26.15
-32.52
-38.83
-43.73
-45.91
-44.54
-39.59
-31.78
-22.31
-12.48
-3.32
4.56
10.97
15.94
19.65
22.24
23.81
24.41
24.08
22.93
21.16
19.10
17.14
15.68
15.00
15.16
16.01
17.20
18.37
19.23
19.58
19.32
18.39
16.77
14.52
11.78
8.81
5.89
3.25
0.96
-1.04
-2.91
-4.80
-6.78
-8.86
-10.98
-13.08
-15.21
-17.47
-20.01
-22.94
-26.22
-29.54
-32.30
-33.69
-32.97
-29.73
-24.08
-16.62
-8.28
-0.01
7.39
13.41
17.79
20.49
21.64
21.49
20.44
18.92
17.38
16.12
15.29
14.88
14.74
14.74
14.81
14.94
15.19
15.57
15.95
16.11
15.73
14.59
12.69
10.21
7.46
4.74
2.18
-0.21
-2.49
-4.75
-6.98
-9.09
-10.99
-12.61
-13.95
-15.15
-16.38
-17.86
-19.79
-22.30
-25.35
-28.73
-32.00
-34.48
-35.45
-34.28
-30.68
-24.76
-17.11
-8.63
-0.29
7.09
13.04
17.47
20.56
22.57
23.72
24.13
23.80
22.79
21.23
19.40
17.65
16.25
15.34
14.90
14.83
15.01
15.37
15.91
16.54
17.11
17.39
17.13
16.11
14.24
11.59
8.34
4.77
1.21
-2.07
-4.87
-7.12
-8.91
-10.44
-11.98
-13.69
-15.66
-17.78
-19.81
-21.61
-23.18
-24.82
-26.99
-30.08
-34.08
-38.46
-42.23
-44.29
-43.79
-40.45
-34.62
-27.11
-18.87
-10.79
-3.50
2.59
7.32
10.68
12.83
14.03
14.62
14.87
14.92
14.77
14.35
13.61
12.64
11.68
11.02
10.89
11.39
12.39
13.57
14.58
15.10
14.88
13.86
12.14
10.00
7.81
5.92
4.52
3.52
2.57
1.20
-0.90
-3.66
-6.68
-9.32
-11.03
-11.67
-11.57
-11.36
-11.63
-12.64
-14.02
-14.93
-14.29
-11.23
-5.50
2.32
10.98
19.04
25.63
31.24
38.08
49.87
71.06
105.78
156.53
223.09
301.79
385.61
465.35
531.61
577.19
598.94
598.31
580.49
552.25
519.67
486.64
454.62
423.36
392.11
360.44
328.36
296.04
263.44
230.30
196.43
162.12
128.21
96.04
66.92
41.52
19.62
0.18
-18.12
-36.32
-54.74
-72.99
-90.21
-105.64
-118.92
-130.25
-140.16
-149.17
-157.49
-164.93
-171.04
-175.39
-177.88
-178.87
-179.10
-179.41
-180.48
-182.67
-185.99
-190.30
-195.52
-201.80
-209.47
-218.99
-230.68
-244.58
-260.52
-278.01
-296.41
-314.92
-332.77
-349.62
-366.12
-384.32
-407.10
-436.47
-471.35
-506.21
-531.64
-537.23
-515.51
-464.75
-389.25
-297.20
-197.57
-98.27
-5.98
72.98
132.36
167.16
175.90
162.10
133.56
99.34
66.02
35.62
6.27
-25.04
-59.54
-95.20
-127.77
-153.15
-169.41
-177.51
-180.41
-181.33
-182.50
-184.69
-187.62
-190.86
-194.35
-198.13
-201.80
-203.70
-200.70
-188.64
-163.70
-124.26
-72.65
-15.44
38.21
79.95
105.60
116.92
120.46
124.19
133.41
148.55
165.60
178.96
184.63
182.17
174.13
164.13
154.62
145.96
136.88
125.89
112.43
97.20
81.74
67.67
55.99
46.83
39.65
33.83
29.00
25.27
23.00
22.46
23.49
25.34
26.83
26.61
23.59
17.30
8.13
-2.67
-13.35
-22.20
-28.14
-31.22
-32.49
-33.58
-35.97
-40.44
-46.81
-54.15
-61.14
-66.57
-69.55
-69.52
-66.24
-59.78
-50.47
-39.02
-26.42
-13.88
-2.49
6.83
13.67
18.04
20.37
21.32
21.58
21.59
21.56
21.46
21.25
21.10
21.47
22.84
25.47
29.10
33.02
36.37
38.62
39.90
40.95
42.70
45.81
50.30
55.69
61.32
66.52
70.64
72.59
70.81
63.50
49.51
29.24
5.04
-19.25
-39.70
-53.77
-61.23
-63.97
-64.91
-66.48
-69.65
-73.82
-77.53
-79.44
-78.97
-76.54
-73.09
-69.55
-66.47
-63.89
-61.60
-59.46
-57.48
-55.75
-54.27
-52.77
-50.85
-48.14
-44.50
-40.08
-35.00
-29.14
-21.84
-12.27
0.26
15.54
32.36
48.68
62.34
71.85
76.72
77.58
75.59
71.94
67.34
61.97
55.75
48.67
41.07
33.54
26.74
20.97
16.11
11.55
6.54
0.49
-6.80
-15.13
-24.01
-32.85
-41.12
-48.41
-54.30
-58.31
-59.83
-58.38
-53.87
-46.84
-38.48
-30.41
-24.12
-20.35
-18.78
-18.03
-16.26
-11.87
-4.16
6.38
18.35
29.98
39.84
47.23
52.25
55.46
57.46
58.49
58.44
57.24
55.10
52.68
50.70
49.42
48.32
46.21
42.02
35.48
27.44
19.41
12.69
7.59
3.37
-1.16
-6.66
-12.72
-18.04
-21.31
-22.12
-21.39
-21.15
-23.49
-29.71
-39.58
-51.46
-62.85
-71.35
-75.39
-74.44
-68.97
-59.97
-48.68
-36.34
-24.19
-13.25
-4.11
3.35
10.00
16.94
24.87
33.42
41.21
46.52
48.37
47.06
44.21
41.75
41.02
42.14
44.30
46.52
48.37
50.07
52.12
54.68
57.20
58.63
58.06
55.29
51.02
46.56
43.18
41.47
41.12
41.09
40.17
37.51
32.91
26.76
19.73
12.40
5.06
-2.30
-9.80
-17.58
-25.76
-34.45
-43.77
-53.69
-63.71
-72.64
-78.70
-80.02
-75.40
-64.89
-49.94
-32.93
-16.36
-2.00
9.58
18.77
26.44
33.25
39.36
44.51
48.36
50.76
51.97
52.46
52.69
52.87
52.98
52.85
52.32
51.45
50.44
49.66
49.47
50.01
51.09
52.15
52.41
51.18
48.15
43.63
38.37
33.25
28.82
25.02
21.28
16.93
11.56
5.29
-1.27
-7.37
-12.43
-16.34
-19.41
-22.28
-25.65
-30.09
-35.87
-42.83
-50.42
-57.73
-63.68
-67.16
-67.23
-63.33
-55.29
-43.57
-29.13
-13.43
1.89
15.27
25.68
32.84
37.22
39.73
41.47
43.21
45.20
47.24
48.74
49.13
48.07
45.68
42.52
39.39
37.14
36.29
36.94
38.56
40.10
39.96
36.23
27.02
11.39
-9.75
-32.84
-52.06
-60.93
-54.63
-32.08
3.46
45.62
87.18
122.41
148.20
163.89
170.12
167.91
158.41
143.16
124.47
105.12
87.50
72.52
59.36
45.83
29.65
9.67
-13.53
-37.83
-60.37
-78.54
-90.76
-96.70
-97.12
-93.41
-87.14
-79.61
-71.73
-63.78
-55.62
-46.87
-37.13
-26.27
-14.44
-1.99
10.67
23.11
34.83
45.17
53.46
59.21
62.48
64.04
65.07
66.70
69.27
72.03
73.32
71.24
64.61
53.70
40.36
27.56
18.45
15.33
19.06
28.88
42.66
57.42
69.93
77.30
77.64
70.46
56.80
38.93
19.60
1.17
-15.00
-28.70
-40.56
-51.47
-62.07
-72.29
-81.31
-87.60
-89.48
-85.67
-76.12
-62.26
-46.79
-32.81
-22.61
-16.94
-14.87
-14.66
-14.82
-14.89
-15.57
-18.00
-22.93
-30.13
-38.46
-46.31
-52.35
-56.03
-57.60
-57.80
-57.43
-57.03
-57.07
-58.13
-61.14
-67.03
-76.02
-86.94
-97.30
-103.96
-104.35
-97.35
-83.48
-64.34
-41.74
-17.52
5.80
24.29
32.25
22.96
-9.42
-67.39
-148.32
-243.95
-341.82
-428.24
-491.83
-526.32
-531.77
-513.60
-479.92
-438.67
-395.52
-353.57
-314.36
-279.21
-249.85
-228.14
-215.02
-209.77
-210.21
-213.54
-217.62
-221.51
-225.46
-230.19
-235.98
-242.13
-247.02
-248.73
-245.76
-237.65
-225.04
-209.36
-192.17
-174.59
-157.02
-139.18
-120.54
-100.67
-79.51
-57.40
-34.89
-12.45
9.64
31.36
52.82
74.03
94.89
115.25
134.99
154.18
173.08
191.97
211.01
230.03
248.66
266.44
283.11
298.82
314.09
329.79
347.02
366.96
390.81
419.30
452.09
487.29
521.36
549.89
568.82
575.80
570.79
555.69
533.27
505.94
475.17
441.64
405.97
369.23
332.97
298.69
267.20
238.39
211.50
185.78
161.00
137.61
116.46
98.33
83.44
71.34
61.09
51.64
42.24
32.66
23.19
14.47
7.09
1.38
-2.83
-6.16
-9.53
-13.81
-19.52
-26.61
-34.44
-41.88
-47.68
-50.82
-50.82
-47.80
-42.43
-35.69
-28.54
-21.77
-15.84
-10.93
-7.02
-3.93
-1.46
0.52
2.06
3.14
3.79
4.13
4.38
4.74
5.36
6.15
6.99
7.72
8.33
8.90
9.56
10.29
10.90
11.08
10.55
9.25
7.30
5.02
2.69
0.52
-1.49
-3.40
-5.37
-7.52
-9.96
-12.77
-15.88
-19.15
-22.29
-25.04
-27.28
-29.16
-31.09
-33.66
-37.33
-42.19
-47.76
-53.05
-56.78
-57.79
-55.42
-49.72
-41.43
-31.74
-21.95
-13.16
-5.99
-0.56
3.37
6.27
8.53
10.35
11.68
12.36
12.24
11.36
10.02
8.69
7.80
7.62
8.10
8.96
9.85
10.49
10.78
10.81
10.73
10.65
10.53
10.25
9.59
8.41
6.64
4.39
1.88
-0.60
-2.84
-4.71
-6.27
-7.67
-9.14
-10.83
-12.78
-14.92
-17.11
-19.26
-21.36
-23.43
-25.55
-27.81
-30.33
-33.29
-36.91
-41.29
-46.29
-51.39
-55.73
-58.26
-58.06
-54.69
-48.31
-39.77
-30.24
-21.01
-13.04
-6.85
-2.44
0.55
2.64
4.31
5.81
7.19
8.30
8.96
9.08
8.72
8.08
7.49
7.19
7.37
8.03
9.05
10.20
11.20
11.85
12.00
11.61
10.74
9.47
7.90
6.09
4.11
2.07
0.12
-1.62
-3.08
-4.29
-5.36
-6.41
-7.56
-8.89
-10.40
-12.11
-13.94
-15.85
-17.73
-19.54
-21.37
-23.39
-25.95
-29.32
-33.65
-38.79
-44.25
-49.19
-52.64
-53.66
-51.69
-46.68
-39.21
-30.29
-21.10
-12.66
-5.58
-0.05
4.12
7.29
9.80
11.85
13.46
14.53
14.93
14.62
13.70
12.43
11.13
10.13
9.67
9.82
10.52
11.60
12.80
13.85
14.46
14.42
13.64
12.18
10.23
8.10
6.04
4.23
2.64
1.09
-0.67
-2.87
-5.51
-8.45
-11.35
-13.87
-15.81
-17.21
-18.32
-19.47
-21.08
-23.48
-26.87
-31.21
-36.11
-40.75
-44.05
-44.94
-42.74
-37.44
-29.78
-20.98
-12.28
-4.61
1.59
6.35
9.83
12.23
13.67
14.20
13.94
13.13
12.06
11.01
10.20
9.78
9.79
10.24
11.05
12.14
13.33
14.41
15.14
15.31
14.81
13.59
11.71
9.34
6.71
4.06
1.55
-0.77
-2.96
-5.15
-7.44
-9.83
-12.25
-14.60
-16.80
-18.88
-20.94
-23.13
-25.71
-28.90
-32.89
-37.59
-42.59
-47.06
-49.89
-50.09
-47.11
-41.10
-32.88
-23.67
-14.66
-6.70
-0.18
4.92
8.80
11.71
13.84
15.32
16.23
16.67
16.78
16.70
16.57
16.53
16.70
17.11
17.75
18.51
19.28
19.91
20.37
20.58
20.47
19.88
18.67
16.75
14.22
11.35
8.52
6.07
4.12
2.61
1.29
-0.14
-1.95
-4.28
-7.14
-10.40
-13.80
-17.06
-19.88
-22.15
-23.88
-25.36
-27.02
-29.38
-32.86
-37.57
-43.20
-48.92
-53.59
-55.94
-55.06
-50.62
-43.09
-33.55
-23.36
-13.80
-5.73
0.54
5.11
8.35
10.68
12.46
13.93
15.28
16.62
17.98
19.34
20.60
21.61
22.28
22.63
22.79
22.91
23.15
23.58
24.12
24.63
24.88
24.69
23.92
22.48
20.42
17.88
15.10
12.39
10.00
8.06
6.54
5.24
3.92
2.32
0.29
-2.22
-5.12
-8.19
-11.18
-13.89
-16.26
-18.37
-20.47
-22.94
-26.13
-30.31
-35.53
-41.57
-47.83
-53.42
-57.27
-58.31
-55.90
-49.96
-41.19
-30.79
-20.22
-10.70
-2.94
2.89
7.08
10.08
12.33
14.07
15.45
16.53
17.38
18.11
18.84
19.69
20.69
21.86
23.08
24.26
25.27
26.02
26.50
26.67
26.56
26.14
25.42
24.37
23.05
21.54
19.96
18.44
17.04
15.73
14.40
12.89
11.04
8.83
6.31
3.56
0.67
-2.32
-5.44
-8.66
-11.91
-15.14
-18.31
-21.55
-25.20
-29.57
-34.82
-40.70
-46.53
-51.29
-53.89
-53.53
-49.94
-43.44
-34.87
-25.34
-15.89
-7.28
0.07
6.05
10.67
14.02
16.23
17.51
18.12
18.40
18.66
19.06
19.68
20.47
21.42
22.51
23.73
24.97
26.08
26.87
27.24
27.18
26.77
26.07
25.06
23.66
21.80
19.49
16.88
14.21
11.71
9.47
7.51
5.74
4.00
2.17
0.13
-2.16
-4.67
-7.29
-9.88
-12.37
-14.80
-17.36
-20.39
-24.17
-28.88
-34.41
-40.28
-45.67
-49.51
-50.79
-48.78
-43.43
-35.32
-25.66
-15.79
-6.86
0.51
6.18
10.42
13.58
15.88
17.43
18.23
18.36
18.03
17.55
17.28
17.51
18.33
19.62
21.14
22.64
23.95
25.03
25.86
26.38
26.46
25.92
24.66
22.74
20.40
18.01
15.87
14.13
12.69
11.30
9.60
7.31
4.29
0.63
-3.33
-7.13
-10.32
-12.69
-14.38
-15.77
-17.48
-20.03
-23.75
-28.63
-34.27
-39.92
-44.52
-46.95
-46.27
-42.15
-34.93
-25.67
-15.79
-6.61
0.98
6.70
10.81
13.78
16.02
17.74
18.94
19.61
19.80
19.72
19.68
19.90
20.49
21.41
22.56
23.77
24.94
25.97
26.77
27.23
27.23
26.70
25.60
23.92
21.63
18.75
15.39
11.75
8.17
4.94
2.19
-0.15
-2.35
-4.69
-7.29
-10.07
-12.85
-15.42
-17.72
-19.85
-22.07
-24.68
-27.98
-32.10
-36.99
-42.30
-47.35
-51.23
-52.97
-51.83
-47.53
-40.43
-31.45
-21.79
-12.60
-4.69
1.62
6.44
10.10
12.98
15.31
17.19
18.66
19.71
20.45
21.03
21.67
22.49
23.57
24.84
26.19
27.49
28.65
29.67
30.47
30.97
30.97
30.30
28.81
26.51
23.59
20.36
17.18
14.34
12.00
10.15
8.61
7.08
5.24
2.88
-0.02
-3.26
-6.53
-9.55
-12.19
-14.50
-16.68
-19.03
-21.79
-25.24
-29.55
-34.77
-40.65
-46.59
-51.58
-54.44
-54.10
-50.10
-42.71
-32.99
-22.38
-12.32
-3.77
2.93
7.96
11.81
14.92
17.56
19.80
21.58
22.83
23.53
23.78
23.72
23.53
23.40
23.47
23.81
24.40
25.11
25.80
26.29
26.46
26.28
25.75
24.92
23.85
22.59
21.15
19.50
17.60
15.46
13.15
10.82
8.66
6.82
5.29
3.92
2.47
0.77
-1.24
-3.42
-5.60
-7.60
-9.44
-11.29
-13.46
-16.28
-19.94
-24.50
-29.85
-35.69
-41.48
-46.49
-49.80
-50.53
-48.09
-42.45
-34.25
-24.65
-14.98
-6.33
0.71
6.09
10.15
13.29
15.80
17.74
19.08
19.84
20.11
20.13
20.15
20.36
20.79
21.36
21.90
22.34
22.66
22.96
23.37
23.88
24.36
24.55
24.21
23.24
21.73
20.00
18.34
16.94
15.73
14.47
12.89
10.92
8.66
6.43
4.48
2.93
1.64
0.35
-1.24
-3.26
-5.69
-8.37
-11.10
-13.73
-16.22
-18.61
-20.95
-23.35
-25.97
-28.98
-32.55
-36.60
-40.76
-44.26
-46.13
-45.52
-42.05
-36.00
-28.24
-19.93
-12.13
-5.49
-0.21
3.89
7.12
9.75
11.95
13.81
15.33
16.53
17.42
18.04
18.50
18.95
19.56
20.44
21.55
22.74
23.79
24.52
24.85
24.79
24.39
23.71
22.74
21.48
19.97
18.26
16.55
15.01
13.76
12.81
12.03
11.15
9.92
8.22
6.16
4.00
2.12
0.76
-0.04
-0.56
-1.23
-2.47
-4.52
-7.31
-10.54
-13.81
-16.74
-19.12
-20.95
-22.41
-23.85
-25.67
-28.25
-31.74
-36.00
-40.51
-44.40
-46.69
-46.56
-43.65
-38.15
-30.79
-22.54
-14.42
-7.15
-1.13
3.55
7.04
9.58
11.44
12.88
14.06
15.10
16.01
16.78
17.39
17.85
18.26
18.73
19.36
20.21
21.37
22.92
24.96
27.46
30.22
32.84
34.79
35.62
35.15
33.49
31.02
28.12
25.10
22.01
18.80
15.42
11.94
8.51
5.33
2.50
-0.05
-2.46
-4.86
-7.30
-9.75
-12.09
-14.27
-16.31
-18.27
-20.30
-22.52
-25.11
-28.19
-31.84
-35.93
-40.10
-43.69
-45.90
-45.98
-43.49
-38.46
-31.42
-23.31
-15.29
-8.33
-3.08
0.34
2.25
3.17
3.62
3.94
4.18
4.28
4.19
3.97
3.85
4.07
4.78
5.94
7.40
8.91
10.28
11.38
12.14
12.58
12.66
12.39
11.78
10.87
9.73
8.43
7.03
5.56
4.00
2.34
0.53
-1.36
-3.23
-4.92
-6.30
-7.32
-8.10
-8.90
-10.03
-11.68
-13.88
-16.42
-18.98
-21.32
-23.31
-25.02
-26.63
-28.41
-30.64
-33.57
-37.33
-41.82
-46.56
-50.70
-53.11
-52.77
-49.12
-42.38
-33.49
-23.86
-14.88
-7.50
-2.05
1.70
4.30
6.26
7.94
9.48
10.85
11.99
12.92
13.71
14.46
15.25
16.09
16.91
17.63
18.18
18.54
18.73
18.81
18.86
18.85
18.74
18.41
17.75
16.71
15.28
13.52
11.48
9.27
6.97
4.76
2.79
1.15
-0.15
-1.32
-2.63
-4.38
-6.65
-9.32
-12.09
-14.64
-16.79
-18.56
-20.25
-22.28
-25.06
-28.88
-33.74
-39.24
-44.57
-48.63
-50.36
-49.01
-44.45
-37.24
-28.44
-19.28
-10.87
-3.93
1.29
4.89
7.22
8.66
9.52
10.05
10.43
10.80
11.32
12.09
13.14
14.41
15.79
17.12
18.31
19.36
20.32
21.23
22.08
22.76
23.11
23.00
22.33
21.05
19.19
16.85
14.19
11.41
8.67
6.09
3.63
1.22
-1.28
-3.92
-6.68
-9.45
-12.09
-14.45
-16.46
-18.15
-19.65
-21.26
-23.37
-26.34
-30.34
-35.19
-40.27
-44.64
-47.23
-47.20
-44.19
-38.41
-30.57
-21.70
-12.79
-4.60
2.40
8.04
12.37
15.58
17.90
19.59
20.81
21.70
22.30
22.67
22.89
23.15
23.63
24.52
25.95
27.88
30.21
32.76
35.38
37.85
39.96
41.38
41.77
40.82
38.41
34.75
30.33
25.78
21.68
18.29
15.51
12.99
10.38
7.49
4.41
1.43
-1.17
-3.33
-5.25
-7.39
-10.30
-14.43
-19.96
-26.59
-33.58
-39.79
-44.02
-45.29
-43.20
-38.01
-30.58
-22.05
-13.56
-5.93
0.42
5.38
9.06
11.63
13.24
13.90
13.60
12.26
9.86
6.53
2.52
-1.78
-5.88
-9.30
-11.61
-12.44
-11.58
-9.02
-5.00
-0.01
5.29
10.21
14.25
17.20
19.17
20.55
21.81
23.26
24.92
26.43
27.14
26.34
23.52
18.59
11.99
4.48
-3.10
-10.19
-16.64
-22.82
-29.31
-36.75
-45.51
-55.59
-66.57
-77.64
-87.69
-95.43
-99.56
-99.13
-93.85
-84.29
-71.85
-58.45
-45.81
-34.98
-26.07
-18.41
-11.12
-3.67
3.82
10.69
16.13
19.71
21.63
22.60
23.47
24.81
26.65
28.62
30.25
31.27
31.78
32.11
32.59
33.32
34.05
34.36
33.83
32.23
29.65
26.37
22.80
19.27
16.00
13.06
10.41
8.01
5.91
4.26
3.32
3.26
4.00
5.20
6.26
6.61
6.00
4.66
3.06
1.58
-0.05
-2.73
-7.72
-15.83
-26.79
-39.09
-50.26
-57.59
-58.94
-53.09
-39.94
-20.36
4.12
31.43
59.31
85.63
108.86
128.42
144.69
158.60
170.78
180.93
187.54
188.31
180.99
164.33
138.57
105.60
68.50
30.93
-3.58
-32.14
-53.08
-66.20
-72.70
-74.56
-73.79
-71.55
-67.86
-61.79
-52.21
-38.51
-20.96
-0.50
21.59
43.96
65.13
83.42
97.22
105.64
109.27
110.57
113.29
121.20
136.53
159.21
186.88
215.88
242.32
262.95
275.34
277.85
269.50
250.27
221.20
184.35
142.23
96.81
48.67
-2.87
-58.75
-118.62
-179.74
-237.16
-285.23
-319.67
-339.12
-345.27
-341.58
-331.46
-316.84
-298.02
-274.55
-246.52
-215.23
-183.00
-152.25
-124.65
-100.86
-80.82
-64.34
-51.40
-41.96
-35.81
-32.25
-30.28
-28.95
-27.75
-26.65
-25.91
-25.77
-26.22
-26.98
-27.71
-28.16
-28.27
-28.01
-27.21
-25.63
-22.97
-19.22
-14.81
-10.58
-7.61
-6.82
-8.66
-12.96
-18.90
-25.18
-30.35
-33.12
-32.69
-28.92
-22.31
-13.77
-4.37
5.00
13.76
21.60
28.45
34.29
39.12
42.91
45.65
47.36
48.11
48.10
47.64
47.03
46.56
46.35
46.32
46.17
45.65
44.57
42.94
40.93
38.72
36.43
33.98
31.22
27.97
24.18
19.97
15.60
11.35
7.37
3.58
-0.27
-4.53
-9.41
-14.88
-20.67
-26.42
-31.76
-36.53
-40.75
-44.53
-48.08
-51.52
-54.95
-58.37
-61.68
-64.53
-66.35
-66.37
-63.87
-58.45
-50.19
-39.77
-28.19
-16.63
-6.04
2.95
10.06
15.29
18.83
21.02
22.23
22.89
23.41
24.09
25.13
26.58
28.42
30.52
32.75
34.91
36.78
38.21
39.10
39.44
39.30
38.78
37.95
36.78
35.19
33.12
30.49
27.32
23.73
19.90
16.11
12.63
9.65
7.22
5.19
3.28
1.19
-1.31
-4.20
-7.32
-10.38
-13.19
-15.68
-18.03
-20.56
-23.64
-27.58
-32.49
-38.26
-44.46
-50.41
-55.16
-57.74
-57.37
-53.73
-47.08
-38.24
-28.36
-18.64
-10.02
-3.00
2.38
6.39
9.48
12.08
14.46
16.73
18.83
20.61
21.96
22.83
23.33
23.69
24.14
24.90
26.10
27.70
29.62
31.69
33.69
35.40
36.55
36.88
36.21
34.52
32.02
29.06
26.07
23.42
21.29
19.60
18.12
16.54
14.60
12.16
9.23
5.98
2.63
-0.58
-3.49
-6.11
-8.61
-11.31
-14.54
-18.58
-23.56
-29.38
-35.65
-41.66
-46.43
-48.93
-48.35
-44.34
-37.23
-28.01
-18.01
-8.53
-0.44
5.89
10.61
14.12
16.83
19.01
20.75
22.05
22.88
23.36
23.66
24.02
24.61
25.51
26.68
28.00
29.30
30.38
31.10
31.34
31.01
30.09
28.57
26.56
24.22
21.76
19.37
17.16
15.18
13.39
11.75
10.17
8.58
6.86
4.93
2.71
0.20
-2.53
-5.34
-8.03
-10.44
-12.53
-14.42
-16.34
-18.67
-21.80
-26.02
-31.40
-37.70
-44.28
-50.18
-54.25
-55.43
-53.10
-47.27
-38.61
-28.37
-17.92
-8.53
-0.98
4.47
8.06
10.27
11.64
12.60
13.39
14.15
14.95
15.90
17.08
18.51
20.03
21.40
22.35
22.74
22.70
22.57
22.74
23.37
24.34
25.18
25.33
24.38
22.27
19.27
15.92
12.79
10.28
8.54
7.45
6.74
6.06
5.14
3.77
1.90
-0.41
-3.02
-5.69
-8.18
-10.34
-12.19
-14.01
-16.28
-19.48
-23.88
-29.37
-35.34
-40.78
-44.57
-45.73
-43.74
-38.63
-31.02
-21.92
-12.52
-3.88
3.25
8.59
12.25
14.65
16.27
17.53
18.62
19.55
20.25
20.61
20.66
20.51
20.35
20.31
20.46
20.79
21.22
21.65
21.99
22.09
21.81
20.99
19.53
17.43
14.82
11.93
9.05
6.39
4.00
1.75
-0.58
-3.17
-6.04
-9.04
-11.84
-14.11
-15.73
-16.81
-17.73
-19.02
-21.18
-24.52
-29.12
-34.70
-40.61
-45.91
-49.49
-50.38
-48.01
-42.45
-34.39
-24.97
-15.48
-6.95
0.04
5.43
9.58
13.02
16.23
19.47
22.68
25.54
27.68
28.77
28.79
27.97
26.70
25.39
24.31
23.58
23.23
23.24
23.57
24.05
24.43
24.31
23.28
21.12
17.95
14.20
10.47
7.30
4.99
3.44
2.33
1.21
-0.28
-2.24
-4.56
-7.00
-9.38
-11.70
-14.18
-17.14
-20.86
-25.45
-30.75
-36.37
-41.68
-45.87
-48.06
-47.52
-43.85
-37.25
-28.52
-18.88
-9.67
-1.89
3.98
8.05
10.78
12.66
14.06
15.14
15.91
16.35
16.56
16.68
16.86
17.22
17.75
18.37
19.04
19.72
20.39
21.07
21.67
22.08
22.10
21.51
20.23
18.26
15.75
12.97
10.13
7.39
4.77
2.19
-0.41
-3.02
-5.49
-7.66
-9.45
-10.97
-12.54
-14.58
-17.49
-21.51
-26.60
-32.39
-38.23
-43.24
-46.41
-46.91
-44.27
-38.60
-30.61
-21.45
-12.36
-4.34
2.06
6.82
10.29
12.95
15.20
17.22
18.93
20.22
21.01
21.43
21.76
22.31
23.20
24.34
25.44
26.20
26.56
26.64
26.73
27.00
27.35
27.39
26.62
24.71
21.66
17.85
13.88
10.32
7.50
5.39
3.69
2.02
0.03
-2.38
-5.19
-8.28
-11.52
-14.79
-17.96
-20.89
-23.50
-25.86
-28.30
-31.33
-35.50
-40.99
-47.42
-53.83
-58.85
-61.12
-59.76
-54.63
-46.32
-36.03
-25.10
-14.76
-5.79
1.52
7.27
11.80
15.40
18.20
20.24
21.51
22.15
22.40
22.63
23.09
23.87
24.82
25.71
26.36
26.79
27.24
27.98
29.14
30.54
31.74
32.20
31.55
29.72
27.04
24.10
21.50
19.63
18.60
18.18
17.95
17.42
16.17
13.93
10.69
6.69
2.37
-1.80
-5.54
-8.81
-11.92
-15.33
-19.47
-24.51
-30.20
-35.90
-40.69
-43.57
-43.73
-40.82
-35.01
-26.96
-17.65
-8.09
0.88
8.71
15.18
20.32
24.32
27.38
29.66
31.30
32.39
33.03
33.39
33.64
34.02
34.74
35.97
37.75
40.04
42.63
45.27
47.58
49.21
49.93
49.63
48.41
46.52
44.26
41.88
39.48
37.03
34.31
31.04
26.91
21.75
15.60
8.72
1.55
-5.43
-11.89
-17.79
-23.37
-29.00
-34.99
-41.31
-47.52
-52.77
-56.14
-56.79
-54.45
-49.38
-42.41
-34.60
-26.98
-20.26
-14.72
-10.29
-6.73
-3.81
-1.44
0.41
1.70
2.47
2.88
3.18
3.56
4.18
5.00
5.85
6.51
6.75
6.43
5.59
4.32
2.80
1.17
-0.54
-2.37
-4.36
-6.55
-8.90
-11.35
-13.82
-16.30
-18.80
-21.37
-23.98
-26.50
-28.81
-30.82
-32.59
-34.39
-36.58
-39.47
-43.12
-47.20
-50.88
-53.10
-52.77
-49.22
-42.42
-33.05
-22.37
-11.78
-2.48
4.88
10.14
13.58
15.67
16.88
17.53
17.82
17.80
17.43
16.67
15.51
14.04
12.48
11.07
10.07
9.63
9.74
10.25
10.91
11.41
11.48
10.88
9.49
7.25
4.24
0.64
-3.26
-7.09
-10.51
-13.22
-15.11
-16.26
-16.96
-17.65
-18.75
-20.60
-23.35
-26.96
-31.28
-36.04
-40.76
-44.75
-47.14
-47.03
-43.90
-37.84
-29.65
-20.58
-11.94
-4.55
1.35
6.02
9.91
13.27
16.09
18.21
19.45
19.86
19.66
19.15
18.61
18.19
17.96
17.97
18.25
18.85
19.71
20.65
21.35
21.50
20.85
19.39
17.26
14.77
12.20
9.74
7.47
5.39
3.48
1.78
0.33
-0.87
-1.93
-3.05
-4.58
-6.84
-10.10
-14.52
-20.03
-26.26
-32.43
-37.48
-40.24
-39.79
-35.74
-28.50
-19.15
-9.10
0.23
7.85
13.37
16.91
18.97
20.11
20.76
21.10
21.13
20.75
19.96
18.88
17.78
16.94
16.52
16.51
16.78
17.18
17.59
17.96
18.23
18.23
17.76
16.60
14.63
11.92
8.62
5.02
1.34
-2.21
-5.50
-8.47
-11.08
-13.36
-15.43
-17.53
-19.96
-23.04
-26.95
-31.59
-36.54
-41.01
-44.04
-44.76
-42.61
-37.60
-30.28
-21.62
-12.70
-4.45
2.56
8.19
12.59
16.03
18.74
20.80
22.15
22.71
22.52
21.73
20.64
19.56
18.74
18.30
18.20
18.36
18.65
18.93
19.08
18.96
18.49
17.55
16.10
14.14
11.71
8.87
5.69
2.27
-1.26
-4.69
-7.79
-10.32
-12.24
-13.74
-15.23
-17.30
-20.46
-24.93
-30.57
-36.77
-42.65
-47.21
-49.50
-48.86
-45.05
-38.38
-29.71
-20.23
-11.18
-3.53
2.29
6.44
9.39
11.71
13.73
15.49
16.84
17.58
17.66
17.18
16.37
15.45
14.66
14.10
13.83
13.86
14.20
14.82
15.63
16.44
16.98
17.00
16.34
15.03
13.28
11.34
9.41
7.52
5.58
3.45
1.12
-1.27
-3.51
-5.41
-6.92
-8.18
-9.44
-11.03
-13.20
-16.11
-19.75
-23.78
-27.50
-29.88
-29.76
-26.29
-19.20
-8.98
3.30
16.31
28.92
40.40
50.43
58.97
65.95
71.27
74.76
76.26
75.81
73.64
70.18
65.93
61.30
56.60
51.94
47.34
42.78
38.32
34.09
30.24
26.82
23.82
21.05
18.27
15.29
11.99
8.34
4.46
0.57
-3.03
-6.05
-8.39
-10.20
-11.87
-13.91
-16.70
-20.25
-24.26
-28.18
-31.51
-33.98
-35.69
-37.04
-38.52
-40.61
-43.50
-47.16
-51.18
-54.86
-57.31
-57.69
-55.41
-50.45
-43.29
-34.87
-26.23
-18.24
-11.37
-5.67
-0.95
3.04
6.41
9.16
11.20
12.50
13.16
13.38
13.43
13.54
13.84
14.38
15.16
16.11
17.16
18.24
19.28
20.18
20.80
21.00
20.62
19.60
17.96
15.88
13.63
11.49
9.68
8.28
7.27
6.55
6.00
5.51
4.99
4.28
3.23
1.67
-0.44
-3.02
-5.89
-8.81
-11.66
-14.33
-16.92
-19.60
-22.59
-26.08
-30.08
-34.31
-38.21
-40.94
-41.72
-39.98
-35.71
-29.43
-22.07
-14.67
-8.02
-2.57
1.62
4.78
7.12
8.82
9.92
10.41
10.33
9.79
9.07
8.47
8.26
8.57
9.36
10.50
11.80
13.05
14.10
14.78
14.95
14.50
13.41
11.77
9.75
7.55
5.32
3.21
1.26
-0.54
-2.24
-3.94
-5.72
-7.67
-9.80
-12.00
-14.17
-16.21
-18.16
-20.28
-22.90
-26.30
-30.52
-35.12
-39.28
-41.94
-42.11
-39.28
-33.57
-25.81
-17.21
-9.03
-2.12
3.16
7.02
9.90
12.23
14.21
15.76
16.70
16.87
16.36
15.44
14.53
14.01
14.06
14.62
15.50
16.42
17.15
17.53
17.47
16.88
15.71
13.95
11.70
9.20
6.70
4.42
2.40
0.49
-1.58
-3.99
-6.77
-9.70
-12.46
-14.75
-16.40
-17.53
-18.50
-19.81
-21.97
-25.28
-29.67
-34.60
-39.13
-42.09
-42.50
-39.83
-34.24
-26.54
-17.91
-9.56
-2.39
3.24
7.43
10.59
13.12
15.27
17.03
18.31
19.04
19.28
19.21
19.02
18.81
18.64
18.50
18.44
18.49
18.73
19.09
19.43
19.52
19.18
18.29
16.90
15.10
13.05
10.91
8.86
6.95
5.15
3.30
1.13
-1.54
-4.72
-8.24
-11.77
-15.02
-17.79
-20.13
-22.31
-24.67
-27.55
-31.13
-35.34
-39.78
-43.69
-46.17
-46.36
-43.75
-38.38
-30.86
-22.20
-13.49
-5.64
0.85
5.87
9.62
12.44
14.59
16.20
17.34
17.99
18.23
18.20
18.09
18.12
18.48
19.22
20.30
21.57
22.82
23.83
24.44
24.52
24.00
22.88
21.24
19.22
16.98
14.73
12.58
10.61
8.79
7.11
5.54
4.07
2.72
1.46
0.21
-1.19
-2.85
-4.87
-7.19
-9.70
-12.20
-14.52
-16.66
-18.75
-21.13
-24.13
-28.03
-32.74
-37.86
-42.64
-46.11
-47.38
-45.81
-41.29
-34.22
-25.48
-16.19
-7.42
0.04
5.84
10.03
12.94
14.92
16.27
17.17
17.77
18.20
18.60
19.06
19.62
20.22
20.81
21.34
21.83
22.30
22.76
23.20
23.56
23.76
23.60
22.95
21.63
19.57
16.89
13.85
10.83
8.11
5.81
3.81
1.94
-0.04
-2.19
-4.43
-6.65
-8.67
-10.42
-12.00
-13.59
-15.55
-18.23
-21.89
-26.58
-32.04
-37.75
-42.94
-46.81
-48.63
-47.82
-44.21
-37.96
-29.76
-20.58
-11.56
-3.62
2.70
7.37
10.72
13.22
15.21
16.85
18.11
18.93
19.31
19.36
19.25
19.15
19.22
19.57
20.24
21.23
22.45
23.69
24.71
25.19
24.86
23.61
21.46
18.66
15.57
12.57
9.94
7.75
5.86
4.01
1.95
-0.46
-3.15
-5.97
-8.75
-11.43
-14.11
-17.01
-20.39
-24.42
-29.12
-34.24
-39.27
-43.45
-45.92
-45.94
-43.10
-37.43
-29.55
-20.45
-11.24
-2.93
3.87
9.00
12.67
15.23
17.02
18.24
18.98
19.32
19.38
19.38
19.52
19.96
20.74
21.80
23.02
24.26
25.41
26.33
26.87
26.93
26.40
25.21
23.43
21.19
18.71
16.24
13.92
11.77
9.63
7.23
4.37
1.03
-2.64
-6.28
-9.58
-12.36
-14.66
-16.74
-18.96
-21.67
-25.13
-29.48
-34.61
-40.13
-45.33
-49.27
-50.97
-49.73
-45.37
-38.37
-29.69
-20.58
-12.08
-4.83
1.01
5.69
9.56
12.86
15.66
17.87
19.37
20.18
20.52
20.76
21.20
22.00
23.08
24.19
25.11
25.74
26.16
26.55
26.99
27.39
27.55
27.21
26.24
24.66
22.65
20.42
18.12
15.76
13.26
10.51
7.46
4.16
0.74
-2.62
-5.72
-8.39
-10.50
-12.02
-13.09
-14.07
-15.44
-17.82
-21.59
-26.82
-33.11
-39.59
-45.20
-48.89
-49.86
-47.78
-42.82
-35.58
-27.01
-18.15
-9.93
-2.97
2.59
6.99
10.65
13.98
17.13
19.95
22.16
23.51
23.99
23.85
23.47
23.22
23.29
23.66
24.15
24.54
24.72
24.62
24.20
23.38
22.06
20.22
18.01
15.75
13.78
12.29
11.15
9.94
8.11
5.27
1.35
-3.29
-8.05
-12.30
-15.61
-17.96
-19.68
-21.44
-23.97
-27.81
-33.08
-39.23
-45.19
-49.56
-51.04
-48.77
-42.66
-33.34
-22.10
-10.51
-0.07
8.15
13.73
16.96
18.56
19.38
20.10
20.99
21.99
22.91
23.64
24.16
24.55
24.82
24.87
24.59
23.94
23.06
22.24
21.74
21.67
21.87
21.98
21.63
20.54
18.71
16.32
13.69
11.04
8.44
5.86
3.22
0.59
-1.95
-4.28
-6.43
-8.67
-11.38
-14.95
-19.63
-25.44
-31.99
-38.60
-44.28
-47.94
-48.61
-45.82
-39.81
-31.51
-22.29
-13.45
-5.86
0.17
4.80
8.33
10.98
12.82
13.86
14.15
13.94
13.53
13.25
13.31
13.77
14.57
15.56
16.56
17.39
18.00
18.36
18.54
18.50
18.12
17.17
15.44
12.89
9.69
6.19
2.81
-0.15
-2.57
-4.53
-6.26
-8.01
-10.10
-12.78
-16.30
-20.77
-26.12
-32.02
-37.79
-42.57
-45.45
-45.64
-42.78
-37.02
-29.02
-19.75
-10.24
-1.30
6.59
13.31
18.91
23.45
26.96
29.37
30.70
31.05
30.69
29.98
29.27
28.88
28.98
29.60
30.63
31.88
33.04
33.84
34.06
33.58
32.34
30.39
27.83
24.76
21.30
17.53
13.58
9.52
5.46
1.53
-2.15
-5.46
-8.39
-11.07
-13.80
-16.98
-21.03
-26.13
-32.12
-38.32
-43.68
-47.02
-47.31
-44.13
-37.75
-29.14
-19.64
-10.57
-2.86
3.17
7.71
11.23
14.21
16.86
19.15
20.85
21.69
21.63
20.90
19.95
19.29
19.28
19.99
21.19
22.46
23.35
23.58
23.07
21.94
20.42
18.74
16.97
15.05
12.75
9.88
6.34
2.28
-1.97
-5.98
-9.45
-12.32
-14.80
-17.32
-20.29
-24.02
-28.62
-33.93
-39.59
-45.00
-49.36
-51.79
-51.46
-47.95
-41.43
-32.69
-22.93
-13.40
-5.09
1.58
6.70
10.66
13.91
16.73
19.18
21.16
22.63
23.59
24.18
24.56
24.88
25.20
25.56
26.01
26.61
27.39
28.29
29.11
29.56
29.30
28.15
26.07
23.27
19.98
16.51
13.03
9.56
6.09
2.58
-0.93
-4.29
-7.30
-9.83
-11.98
-14.06
-16.56
-19.96
-24.56
-30.32
-36.80
-43.17
-48.34
-51.16
-50.74
-46.68
-39.33
-29.71
-19.25
-9.34
-0.98
5.53
10.48
14.48
18.05
21.42
24.49
26.97
28.60
29.34
29.47
29.39
29.49
29.98
30.85
31.85
32.77
33.43
33.80
33.89
33.70
33.15
32.08
30.40
28.08
25.22
21.99
18.59
15.22
11.94
8.81
5.87
3.14
0.67
-1.56
-3.64
-5.70
-7.88
-10.24
-12.74
-15.28
-17.81
-20.39
-23.25
-26.70
-31.00
-36.16
-41.88
-47.47
-51.97
-54.36
-53.81
-49.94
-43.01
-33.91
-23.89
-14.22
-5.84
0.85
5.97
9.90
13.12
15.93
18.51
20.84
22.87
24.52
25.78
26.66
27.22
27.62
28.03
28.59
29.36
30.30
31.29
32.17
32.75
32.86
32.40
31.30
29.57
27.33
24.75
22.04
19.39
16.97
14.82
12.91
11.12
9.24
7.15
4.82
2.35
-0.08
-2.36
-4.60
-7.02
-9.84
-13.13
-16.68
-20.08
-23.00
-25.31
-27.22
-29.20
-31.82
-35.52
-40.54
-46.63
-53.14
-58.97
-62.80
-63.43
-60.23
-53.37
-43.84
-33.16
-22.87
-14.13
-7.44
-2.65
0.81
3.64
6.44
9.46
12.67
15.78
18.47
20.51
21.90
22.85
23.67
24.60
25.76
27.09
28.52
29.95
31.34
32.62
33.65
34.23
34.13
33.21
31.52
29.21
26.57
23.82
21.05
18.24
15.35
12.41
9.56
7.01
4.87
3.05
1.30
-0.70
-3.16
-6.06
-9.16
-12.15
-14.77
-17.02
-19.06
-21.20
-23.73
-26.91
-30.81
-35.32
-40.03
-44.22
-46.93
-47.20
-44.44
-38.62
-30.44
-21.11
-11.98
-4.09
2.07
6.58
9.81
12.18
13.93
15.15
15.85
16.09
16.09
16.10
16.36
16.96
17.89
18.96
20.00
20.80
21.27
21.33
20.92
20.03
18.65
16.82
14.60
12.14
9.61
7.16
4.89
2.79
0.79
-1.23
-3.36
-5.65
-8.08
-10.55
-12.93
-15.10
-17.02
-18.76
-20.53
-22.71
-25.68
-29.69
-34.63
-40.01
-44.95
-48.44
-49.56
-47.77
-43.06
-35.93
-27.30
-18.26
-9.82
-2.73
2.69
6.53
9.14
10.96
12.35
13.44
14.27
14.76
14.96
15.00
15.06
15.31
15.82
16.57
17.52
18.59
19.74
20.84
21.71
22.11
21.82
20.70
18.74
16.12
13.09
9.96
6.99
4.33
1.97
-0.17
-2.33
-4.71
-7.41
-10.33
-13.22
-15.76
-17.77
-19.29
-20.68
-22.48
-25.24
-29.26
-34.44
-40.23
-45.70
-49.79
-51.50
-50.20
-45.76
-38.65
-29.77
-20.28
-11.24
-3.46
2.74
7.42
10.89
13.56
15.74
17.57
19.12
20.40
21.47
22.39
23.25
24.09
24.88
25.59
26.19
26.74
27.36
28.15
29.06
29.86
30.22
29.79
28.48
26.42
23.99
21.60
19.53
17.77
16.08
14.16
11.83
9.13
6.29
3.65
1.47
-0.14
-1.33
-2.44
-3.94
-6.17
-9.27
-13.12
-17.30
-21.38
-25.03
-28.22
-31.17
-34.33
-38.09
-42.67
-47.89
-53.15
-57.48
-59.79
-59.18
-55.26
-48.29
-39.10
-28.87
-18.78
-9.76
-2.36
3.29
7.39
10.40
12.80
15.03
17.27
19.52
21.59
23.30
24.64
25.76
26.86
28.09
29.44
30.74
31.84
32.66
33.31
33.89
34.44
34.80
34.72
33.95
32.44
30.37
28.11
26.06
24.43
23.22
22.17
20.94
19.25
17.01
14.37
11.62
9.09
6.99
5.29
3.72
1.88
-0.55
-3.66
-7.26
-10.97
-14.40
-17.35
-19.84
-22.06
-24.28
-26.78
-29.80
-33.58
-38.24
-43.67
-49.31
-54.21
-57.16
-57.11
-53.57
-46.83
-37.90
-28.13
-18.79
-10.72
-4.26
0.75
4.65
7.77
10.39
12.61
14.50
16.10
17.47
18.70
19.85
20.96
22.00
22.95
23.82
24.67
25.70
27.02
28.69
30.54
32.21
33.27
33.40
32.50
30.81
28.76
26.81
25.26
24.15
23.28
22.28
20.83
18.76
16.13
13.23
10.37
7.84
5.68
3.78
1.91
-0.16
-2.50
-5.04
-7.64
-10.18
-12.66
-15.17
-17.87
-20.90
-24.37
-28.35
-32.87
-37.85
-42.99
-47.73
-51.24
-52.60
-51.09
-46.50
-39.28
-30.45
-21.30
-12.95
-6.07
-0.78
3.20
6.25
8.68
10.61
12.05
13.05
13.72
14.27
14.86
15.59
16.45
17.37
18.30
19.18
20.04
20.87
21.60
22.16
22.42
22.24
21.50
20.16
18.28
16.04
13.70
11.53
9.76
8.45
7.53
6.83
6.06
5.03
3.67
2.03
0.32
-1.25
-2.58
-3.73
-4.90
-6.32
-8.15
-10.35
-12.77
-15.21
-17.48
-19.57
-21.60
-23.80
-26.46
-29.77
-33.79
-38.40
-43.23
-47.66
-50.93
-52.21
-50.87
-46.67
-39.86
-31.26
-21.97
-13.14
-5.65
0.11
4.24
7.15
9.34
11.18
12.82
14.23
15.36
16.25
17.05
18.01
19.29
20.93
22.77
24.57
26.14
27.39
28.37
29.17
29.81
30.20
30.15
29.51
28.26
26.52
24.50
22.42
20.38
18.34
16.22
14.00
11.72
9.50
7.38
5.31
3.12
0.62
-2.30
-5.58
-9.04
-12.43
-15.58
-18.44
-21.13
-23.91
-27.11
-31.06
-35.94
-41.59
-47.52
-52.90
-56.72
-58.16
-56.73
-52.46
-45.80
-37.49
-28.43
-19.44
-11.26
-4.38
0.97
4.86
7.58
9.54
11.15
12.61
14.03
15.43
16.90
18.60
20.72
23.34
26.26
29.09
31.35
32.79
33.42
33.58
33.68
34.00
34.51
34.91
34.79
33.85
32.03
29.47
26.46
23.26
20.08
17.05
14.20
11.55
9.03
6.51
3.85
0.99
-2.07
-5.28
-8.56
-11.83
-15.02
-18.05
-20.86
-23.48
-26.10
-29.11
-32.89
-37.61
-42.97
-48.19
-52.13
-53.62
-51.96
-47.10
-39.73
-30.94
-21.91
-13.53
-6.26
-0.20
4.76
8.80
12.06
14.63
16.67
18.29
19.62
20.65
21.38
21.76
21.83
21.79
21.88
22.29
23.04
23.95
24.80
25.45
25.84
26.01
25.94
25.54
24.59
22.95
20.63
17.84
14.91
12.11
9.62
7.44
5.43
3.48
1.48
-0.65
-2.93
-5.34
-7.83
-10.30
-12.62
-14.75
-16.73
-18.70
-20.90
-23.57
-26.94
-31.12
-36.00
-41.13
-45.74
-48.86
-49.59
-47.44
-42.48
-35.38
-27.18
-18.96
-11.56
-5.43
-0.67
2.90
5.45
7.19
8.31
8.98
9.37
9.63
9.80
9.82
9.69
9.44
9.23
9.35
10.01
11.29
13.03
14.94
16.66
17.89
18.39
18.04
16.80
14.76
12.15
9.28
6.49
3.98
1.70
-0.55
-2.97
-5.67
-8.53
-11.30
-13.78
-15.99
-18.18
-20.74
-24.06
-28.27
-33.18
-38.23
-42.59
-45.36
-45.79
-43.46
-38.47
-31.44
-23.29
-15.06
-7.58
-1.31
3.65
7.48
10.47
12.88
14.88
16.52
17.84
18.82
19.54
20.09
20.66
21.41
22.43
23.72
25.14
26.51
27.61
28.24
28.25
27.54
26.08
23.93
21.27
18.37
15.47
12.69
10.00
7.27
4.41
1.42
-1.55
-4.36
-6.93
-9.35
-11.84
-14.66
-18.05
-22.19
-27.10
-32.67
-38.45
-43.69
-47.35
-48.41
-46.22
-40.82
-32.96
-23.90
-14.97
-7.15
-0.85
4.00
7.83
11.09
14.04
16.77
19.23
21.35
23.09
24.47
25.57
26.40
26.98
27.27
27.33
27.27
27.30
27.57
28.10
28.73
29.15
29.02
28.09
26.31
23.83
20.91
17.88
15.03
12.53
10.39
8.42
6.38
4.00
1.14
-2.19
-5.79
-9.43
-12.85
-15.93
-18.73
-21.50
-24.64
-28.53
-33.36
-38.91
-44.50
-49.10
-51.65
-51.33
-47.88
-41.67
-33.53
-24.55
-15.72
-7.76
-1.02
4.51
9.10
13.08
16.75
20.27
23.58
26.55
28.99
30.77
31.88
32.45
32.71
32.93
33.32
33.99
34.97
36.11
37.23
38.11
38.56
38.42
37.62
36.13
34.03
31.46
28.69
25.98
23.54
21.42
19.58
17.80
15.87
13.63
11.05
8.26
5.46
2.86
0.51
-1.68
-3.98
-6.72
-10.09
-14.09
-18.43
-22.72
-26.58
-29.88
-32.74
-35.51
-38.67
-42.57
-47.37
-52.84
-58.38
-63.02
-65.68
-65.38
-61.68
-54.75
-45.44
-34.99
-24.70
-15.60
-8.15
-2.38
2.10
5.85
9.35
12.91
16.57
20.13
23.29
25.77
27.45
28.44
29.01
29.46
30.02
30.80
31.77
32.82
33.86
34.77
35.40
35.60
35.17
33.98
32.09
29.70
27.19
24.96
23.24
22.04
21.12
20.09
18.59
16.45
13.74
10.68
7.61
4.76
2.17
-0.26
-2.73
-5.38
-8.26
-11.30
-14.43
-17.61
-20.84
-24.20
-27.82
-31.83
-36.38
-41.51
-47.01
-52.34
-56.62
-58.85
-58.20
-54.35
-47.64
-38.99
-29.57
-20.48
-12.45
-5.75
-0.24
4.36
8.35
11.90
15.06
17.77
20.02
21.86
23.42
24.80
26.09
27.29
28.38
29.37
30.32
31.34
32.46
33.60
34.62
35.28
35.40
34.89
33.78
32.13
30.10
27.83
25.49
23.26
21.21
19.35
17.57
15.74
13.82
11.84
9.90
8.10
6.46
4.90
3.23
1.22
-1.30
-4.42
-8.09
-12.12
-16.24
-20.18
-23.74
-26.87
-29.67
-32.43
-35.51
-39.23
-43.74
-48.87
-54.07
-58.43
-60.92
-60.68
-57.31
-51.01
-42.55
-33.01
-23.49
-14.85
-7.53
-1.59
3.17
7.03
10.22
12.88
15.07
16.81
18.18
19.30
20.34
21.46
22.72
24.13
25.65
27.22
28.79
30.25
31.48
32.32
32.64
32.39
31.61
30.38
28.81
26.94
24.85
22.63
20.44
18.43
16.68
15.08
13.40
11.41
9.04
6.45
3.99
2.00
0.59
-0.41
-1.40
-2.85
-5.11
-8.26
-12.12
-16.27
-20.24
-23.67
-26.40
-28.67
-30.93
-33.81
-37.79
-42.95
-48.85
-54.54
-58.82
-60.53
-58.99
-54.10
-46.41
-36.93
-26.84
-17.24
-8.91
-2.20
2.93
6.77
9.72
12.09
14.11
15.88
17.44
18.82
20.04
21.10
21.99
22.70
23.22
23.58
23.86
24.19
24.68
25.38
26.19
26.95
27.44
27.45
26.89
25.74
24.16
22.41
20.69
19.15
17.76
16.38
14.84
13.02
10.96
8.82
6.80
4.99
3.37
1.76
-0.05
-2.26
-4.92
-7.94
-11.16
-14.34
-17.25
-19.75
-21.84
-23.79
-26.02
-29.07
-33.29
-38.64
-44.51
-49.90
-53.62
-54.74
-52.77
-47.85
-40.63
-32.07
-23.15
-14.76
-7.53
-1.77
2.49
5.50
7.58
9.12
10.34
11.42
12.37
13.27
14.24
15.37
16.75
18.36
20.07
21.72
23.23
24.53
25.61
26.48
27.12
27.43
27.30
26.66
25.49
23.89
21.95
19.83
17.63
15.41
13.20
11.08
9.08
7.24
5.51
3.82
2.06
0.12
-2.03
-4.41
-7.02
-9.86
-12.88
-15.97
-19.00
-21.81
-24.38
-26.94
-29.86
-33.56
-38.22
-43.61
-49.02
-53.40
-55.69
-55.13
-51.54
-45.28
-37.19
-28.24
-19.32
-11.06
-3.85
2.15
6.91
10.47
13.03
14.87
16.34
17.70
19.11
20.56
21.91
23.07
24.04
24.90
25.81
26.90
28.21
29.65
31.05
32.22
32.95
33.05
32.46
31.17
29.30
27.04
24.63
22.31
20.20
18.32
16.59
14.88
13.08
11.13
9.01
6.74
4.35
1.89
-0.62
-3.19
-5.86
-8.69
-11.63
-14.61
-17.46
-20.06
-22.37
-24.56
-26.93
-29.87
-33.72
-38.54
-44.06
-49.68
-54.49
-57.51
-57.95
-55.44
-50.08
-42.47
-33.50
-24.12
-15.13
-7.11
-0.34
5.08
9.24
12.33
14.56
16.18
17.36
18.25
18.97
19.64
20.41
21.41
22.72
24.30
26.01
27.66
29.10
30.25
31.06
31.52
31.58
31.18
30.32
29.08
27.60
26.09
24.68
23.46
22.40
21.42
20.39
19.18
17.68
15.83
13.62
11.14
8.49
5.88
3.52
1.52
-0.14
-1.60
-3.12
-4.94
-7.19
-9.85
-12.75
-15.65
-18.28
-20.48
-22.23
-23.69
-25.21
-27.23
-30.22
-34.46
-39.94
-46.16
-52.22
-56.96
-59.24
-58.23
-53.74
-46.29
-37.03
-27.37
-18.59
-11.44
-6.04
-1.95
1.46
4.73
8.05
11.31
14.28
16.74
18.67
20.21
21.54
22.86
24.26
25.78
27.42
29.15
30.91
32.64
34.22
35.55
36.48
36.88
36.66
35.78
34.35
32.53
30.64
28.90
27.42
26.07
24.61
22.77
20.42
17.66
14.76
12.02
9.66
7.68
5.94
4.25
2.50
0.68
-1.18
-3.05
-5.04
-7.28
-9.88
-12.83
-15.96
-19.05
-21.92
-24.59
-27.26
-30.24
-33.85
-38.21
-43.18
-48.27
-52.75
-55.71
-56.36
-54.14
-48.98
-41.35
-32.14
-22.53
-13.62
-6.16
-0.43
3.72
6.75
9.18
11.33
13.33
15.07
16.36
17.11
17.37
17.44
17.71
18.52
20.02
22.09
24.41
26.56
28.23
29.32
29.82
29.83
29.41
28.57
27.32
25.75
24.03
22.33
20.75
19.23
17.63
15.81
13.75
11.56
9.42
7.44
5.60
3.74
1.67
-0.67
-3.23
-5.81
-8.19
-10.32
-12.28
-14.37
-16.95
-20.34
-24.66
-29.84
-35.57
-41.29
-46.28
-49.75
-50.94
-49.35
-44.87
-37.91
-29.28
-20.11
-11.44
-4.05
1.74
5.97
8.99
11.18
12.88
14.25
15.43
16.49
17.59
18.90
20.55
22.52
24.64
26.63
28.26
29.46
30.32
31.02
31.65
32.12
32.10
31.21
29.19
26.13
22.42
18.64
15.23
12.42
10.10
7.99
5.80
3.44
1.02
-1.24
-3.10
-4.46
-5.44
-6.26
-7.26
-8.70
-10.73
-13.37
-16.45
-19.76
-23.08
-26.22
-29.09
-31.73
-34.33
-37.19
-40.71
-45.07
-50.13
-55.26
-59.43
-61.52
-60.64
-56.52
-49.60
-40.81
-31.30
-22.10
-13.92
-7.08
-1.57
2.84
6.45
9.60
12.45
15.03
17.27
19.03
20.31
21.27
22.16
23.23
24.60
26.17
27.76
29.16
30.29
31.17
31.84
32.27
32.34
31.89
30.86
29.33
27.47
25.47
23.40
21.26
18.99
16.64
14.35
12.25
10.38
8.57
6.57
4.12
1.12
-2.30
-5.92
-9.46
-12.81
-15.95
-19.02
-22.19
-25.69
-29.70
-34.40
-39.75
-45.42
-50.70
-54.57
-56.00
-54.27
-49.24
-41.49
-32.06
-22.17
-12.81
-4.59
2.28
7.83
12.23
15.62
18.17
20.06
21.45
22.50
23.34
24.04
24.69
25.38
26.18
27.12
28.16
29.16
30.01
30.64
31.02
31.10
30.77
29.84
28.14
25.65
22.48
18.90
15.26
11.78
8.62
5.80
3.26
0.86
-1.56
-4.17
-7.09
-10.34
-13.77
-17.20
-20.41
-23.34
-26.13
-29.10
-32.63
-36.99
-42.27
-48.31
-54.62
-60.49
-65.00
-67.22
-66.41
-62.30
-55.20
-46.05
-36.02
-26.24
-17.43
-9.85
-3.37
2.22
7.00
10.84
13.56
15.06
15.54
15.46
15.43
16.01
17.53
19.97
23.06
26.37
29.48
32.12
34.17
35.65
36.67
37.35
37.77
37.95
37.83
37.27
36.14
34.34
31.96
29.11
25.97
22.64
19.14
15.45
11.62
7.84
4.41
1.58
-0.66
-2.65
-4.96
-8.23
-12.88
-18.98
-26.15
-33.66
-40.49
-45.58
-48.02
-47.34
-43.63
-37.61
-30.41
-23.21
-16.87
-11.70
-7.49
-3.67
0.31
4.74
9.57
14.37
18.57
21.66
23.35
23.80
23.47
23.12
23.50
25.12
28.10
32.14
36.63
40.81
44.03
45.73
45.58
43.47
39.56
34.31
28.45
22.77
17.97
14.39
11.92
10.07
8.22
5.81
2.52
-1.65
-6.49
-11.68
-16.91
-22.00
-26.89
-31.57
-36.00
-39.94
-42.97
-44.51
-44.05
-41.43
-36.89
-31.14
-25.00
-19.16
-13.95
-9.27
-4.76
-0.11
4.79
9.72
14.20
17.70
19.79
20.32
19.44
17.63
15.59
13.98
13.31
13.76
15.19
17.23
19.43
21.39
22.71
23.12
22.38
20.40
17.27
13.32
8.99
4.77
1.02
-2.10
-4.58
-6.55
-8.13
-9.53
-11.06
-13.16
-16.36
-21.00
-27.10
-34.12
-41.05
-46.68
-49.85
-49.81
-46.43
-40.17
-31.93
-22.80
-13.77
-5.56
1.50
7.37
12.21
16.26
19.65
22.41
24.54
26.02
26.89
27.25
27.26
27.11
26.97
27.00
27.32
27.92
28.67
29.32
29.54
29.09
27.87
25.89
23.33
20.36
17.10
13.61
9.89
5.97
1.92
-2.14
-6.06
-9.79
-13.35
-16.94
-20.81
-25.24
-30.33
-36.04
-42.02
-47.64
-52.09
-54.49
-54.13
-50.67
-44.31
-35.73
-26.03
-16.31
-7.39
0.34
6.92
12.59
17.53
21.72
25.00
27.16
28.24
28.38
27.92
27.10
26.01
24.59
22.76
20.45
17.73
14.82
11.91
9.14
6.57
4.10
1.61
-0.99
-3.72
-6.45
-9.02
-11.28
-13.17
-14.75
-16.24
-17.87
-19.89
-22.47
-25.75
-29.85
-34.87
-40.79
-47.33
-53.82
-59.20
-62.23
-61.88
-57.66
-49.89
-39.56
-28.03
-16.58
-6.04
3.30
11.62
19.22
26.36
33.04
39.06
44.13
48.01
50.63
52.16
52.93
53.33
53.68
54.15
54.73
55.30
55.73
55.98
56.02
55.79
55.10
53.68
51.28
47.79
43.35
38.24
32.78
27.17
21.42
15.50
9.44
3.46
-2.22
-7.52
-12.81
-18.82
-26.47
-36.38
-48.52
-61.97
-75.08
-85.87
-92.55
-94.14
-90.64
-82.96
-72.52
-60.76
-48.77
-37.18
-26.30
-16.27
-7.22
0.75
7.52
13.02
17.07
19.43
19.93
18.67
16.24
13.64
11.92
11.76
13.17
15.58
18.17
20.30
21.76
22.54
22.62
21.77
19.59
15.84
10.65
4.72
-0.93
-5.21
-7.43
-7.40
-5.49
-2.41
1.07
4.34
6.97
8.69
9.21
8.19
5.20
-0.09
-7.88
-18.14
-30.62
-44.83
-59.92
-74.57
-86.98
-95.19
-97.64
-93.80
-84.39
-71.23
-56.46
-41.81
-28.11
-15.51
-3.98
6.20
14.45
20.23
23.49
24.72
24.55
23.18
20.24
15.01
7.16
-2.65
-12.58
-20.19
-23.21
-20.43
-12.10
0.27
14.30
27.47
37.68
43.74
45.54
44.04
40.82
37.48
35.24
34.56
35.26
36.78
38.42
39.56
39.78
38.82
36.60
33.30
29.32
25.36
22.30
20.82
21.03
22.23
22.89
21.13
15.56
5.97
-6.41
-19.22
-29.85
-36.53
-38.93
-38.15
-36.00
-33.98
-32.53
-30.89
-27.60
-21.31
-11.48
1.52
16.57
32.40
47.86
62.21
74.94
85.75
94.31
100.33
103.42
103.07
98.80
90.38
78.13
63.24
47.56
33.16
21.70
13.87
9.40
7.41
6.92
7.19
7.76
8.32
8.58
8.38
7.80
7.21
7.18
8.18
10.34
13.59
17.80
23.04
29.45
37.12
45.76
54.74
63.46
71.65
79.65
88.04
97.17
106.85
116.41
125.20
133.00
140.07
146.56
151.96
154.86
153.40
146.26
133.52
116.87
99.00
82.43
68.50
56.86
45.67
32.32
14.39
-9.52
-39.26
-73.13
-108.36
-141.95
-171.42
-195.36
-213.40
-225.82
-233.05
-235.43
-233.26
-227.08
-217.85
-206.85
-195.24
-183.68
-172.21
-160.36
-147.65
-133.95
-119.64
-105.53
-92.51
-81.17
-71.59
-63.24
-55.32
-47.01
-37.86
-27.96
-17.89
-8.48
-0.43
5.90
10.67
14.48
18.19
22.51
27.78
33.71
39.42
43.68
45.35
43.83
39.37
33.18
27.21
23.81
25.25
33.32
48.88
71.64
100.16
131.98
164.08
193.24
216.40
230.80
234.19
225.18
203.70
171.44
131.83
89.48
49.10
14.29
-13.15
-33.32
-47.56
-57.57
-64.71
-69.72
-72.94
-74.64
-75.27
-75.48
-75.87
-76.67
-77.76
-78.72
-79.15
-78.85
-77.89
-76.49
-74.85
-73.01
-70.86
-68.27
-65.14
-61.51
-57.51
-53.36
-49.30
-45.49
-41.98
-38.63
-35.06
-30.76
-25.26
-18.36
-10.25
-1.52
7.08
14.82
21.30
26.58
31.16
35.82
41.41
48.58
57.64
68.39
80.24
92.20
103.21
112.44
119.47
124.51
128.21
131.36
134.42
137.06
138.06
135.46
127.11
111.22
87.04
55.13
17.39
-23.24
-63.38
-99.79
-130.03
-152.79
-168.02
-176.77
-180.81
-182.12
-182.36
-182.70
-183.55
-184.80
-185.94
-186.30
-185.24
-182.34
-177.45
-170.79
-162.92
-154.63
-146.84
-140.36
-135.69
-132.79
-131.06
-129.39
-126.45
-121.04
-112.49
-100.77
-86.57
-70.98
-55.19
-40.15
-26.39
-14.03
-2.93
7.09
16.16
24.27
31.35
37.33
42.19
46.01
48.97
51.31
53.28
55.05
56.73
58.37
59.90
61.25
62.29
62.95
63.20
63.07
62.59
61.70
60.33
58.33
55.69
52.55
49.26
46.19
43.58
41.38
39.25
36.76
33.62
29.86
25.86
22.11
18.98
16.52
14.46
12.32
9.62
6.07
1.71
-3.19
-8.16
-12.81
-16.90
-20.49
-23.88
-27.57
-32.05
-37.66
-44.31
-51.45
-58.12
-63.11
-65.29
-63.86
-58.67
-50.14
-39.33
-27.52
-15.99
-5.75
2.69
9.26
14.31
18.37
21.93
25.28
28.55
31.66
34.50
37.01
39.22
41.22
43.10
44.93
46.65
48.20
49.49
50.48
51.20
51.68
51.87
51.64
50.77
49.05
46.43
43.10
39.43
35.88
32.75
30.11
27.77
25.46
22.96
20.21
17.31
14.37
11.51
8.70
5.90
3.05
0.17
-2.70
-5.54
-8.36
-11.27
-14.29
-17.41
-20.51
-23.38
-25.87
-27.99
-29.90
-31.99
-34.72
-38.57
-43.84
-50.54
-58.33
-66.37
-73.46
-78.15
-79.16
-75.68
-67.74
-56.23
-42.75
-29.10
-16.82
-6.79
0.86
6.65
11.35
15.64
19.88
24.09
28.04
31.49
34.30
36.50
38.21
39.56
40.63
41.41
41.89
42.10
42.07
41.91
41.62
41.15
40.36
39.11
37.29
34.92
32.11
29.06
25.96
22.94
20.04
17.25
14.52
11.86
9.26
6.72
4.18
1.54
-1.28
-4.31
-7.44
-10.48
-13.26
-15.73
-18.05
-20.56
-23.71
-27.86
-33.10
-39.09
-45.09
-49.97
-52.52
-51.74
-47.16
-38.98
-28.00
-15.48
-2.81
8.82
18.59
26.14
31.50
34.98
37.04
38.12
38.60
38.82
39.02
39.41
40.13
41.18
42.45
43.76
44.92
45.83
46.47
46.90
47.12
47.06
46.57
45.43
43.50
40.78
37.38
33.64
29.91
26.52
23.66
21.26
19.03
16.63
13.79
10.50
6.99
3.61
0.62
-1.94
-4.34
-6.98
-10.29
-14.42
-19.28
-24.50
-29.67
-34.53
-39.08
-43.57
-48.41
-54.00
-60.53
-67.85
-75.44
-82.40
-87.53
-89.62
-87.70
-81.36
-70.98
-57.66
-43.02
-28.71
-16.00
-5.59
2.53
8.77
13.74
18.00
21.87
25.49
28.88
31.96
34.72
37.17
39.42
41.57
43.72
45.90
48.08
50.12
51.87
53.24
54.05
54.20
53.53
51.97
49.62
46.77
43.86
41.38
39.62
38.55
37.87
37.15
36.02
34.34
32.17
29.69
27.02
24.26
21.46
18.74
16.25
14.11
12.24
10.38
8.12
5.06
1.12
-3.52
-8.30
-12.60
-15.81
-17.47
-17.34
-15.30
-11.47
-6.20
-0.15
5.81
10.76
14.10
15.83
16.60
17.48
19.55
23.46
29.14
35.91
42.82
49.03
54.09
57.91
60.65
62.39
63.13
62.74
61.17
58.55
55.14
51.35
47.44
43.51
39.41
34.90
29.83
24.25
18.55
13.25
8.82
5.45
2.94
0.84
-1.33
-3.86
-6.70
-9.54
-12.02
-13.96
-15.50
-17.02
-19.01
-21.79
-25.44
-29.73
-34.21
-38.36
-41.66
-43.69
-44.26
-43.35
-41.20
-38.16
-34.66
-31.04
-27.54
-24.28
-21.29
-18.56
-16.05
-13.66
-11.26
-8.77
-6.19
-3.71
-1.62
-0.17
0.59
0.90
1.16
1.74
2.75
4.01
5.17
5.91
6.14
5.94
5.52
5.03
4.43
3.53
2.20
0.38
-1.80
-4.13
-6.46
-8.74
-11.03
-13.43
-15.97
-18.60
-21.20
-23.69
-26.04
-28.34
-30.73
-33.37
-36.35
-39.60
-42.92
-45.92
-48.10
-48.92
-48.01
-45.22
-40.77
-35.16
-29.03
-22.98
-17.40
-12.42
-8.05
-4.28
-1.12
1.41
3.31
4.70
5.79
6.78
7.79
8.85
9.88
10.88
11.89
12.94
14.04
15.06
15.78
15.94
15.38
14.11
12.29
10.17
8.00
5.98
4.19
2.61
1.13
-0.36
-1.97
-3.67
-5.38
-6.93
-8.22
-9.21
-10.02
-10.79
-11.75
-13.09
-14.95
-17.49
-20.81
-24.94
-29.77
-34.92
-39.87
-43.93
-46.43
-46.91
-45.23
-41.59
-36.45
-30.39
-24.05
-17.90
-12.30
-7.33
-2.98
0.88
4.32
7.37
9.96
12.02
13.53
14.57
15.34
16.05
16.89
17.90
19.01
20.06
20.92
21.53
21.98
22.33
22.59
22.66
22.30
21.27
19.46
16.98
14.08
10.98
7.77
4.32
0.47
-3.80
-8.26
-12.52
-16.19
-19.11
-21.42
-23.51
-25.85
-28.79
-32.50
-36.92
-41.76
-46.45
-50.23
-52.23
-51.67
-48.20
-42.01
-33.84
-24.77
-15.90
-8.03
-1.53
3.66
7.81
11.25
14.13
16.49
18.25
19.32
19.75
19.69
19.43
19.27
19.48
20.18
21.29
22.56
23.66
24.25
24.18
23.44
22.19
20.60
18.80
16.75
14.34
11.47
8.15
4.55
0.95
-2.40
-5.37
-8.04
-10.63
-13.45
-16.77
-20.78
-25.52
-30.85
-36.44
-41.75
-46.05
-48.52
-48.49
-45.57
-39.86
-31.98
-22.95
-13.90
-5.76
0.98
6.31
10.55
14.12
17.30
20.16
22.64
24.64
26.08
27.01
27.53
27.79
27.97
28.23
28.67
29.29
29.92
30.36
30.37
29.82
28.71
27.08
24.99
22.44
19.40
15.88
12.00
7.91
3.80
-0.19
-3.97
-7.53
-10.90
-14.19
-17.60
-21.45
-26.06
-31.67
-38.27
-45.43
-52.26
-57.59
-60.22
-59.36
-54.95
-47.71
-38.95
-30.14
-22.42
-16.31
-11.73
-8.15
-5.01
-1.91
1.26
4.37
7.23
9.65
11.61
13.20
14.68
16.32
18.26
20.36
22.15
23.07
22.67
20.89
18.12
15.14
12.78
11.71
12.13
13.87
16.44
19.32
22.06
24.45
26.43
28.00
29.06
29.23
27.84
24.11
17.51
8.02
-3.69
-16.48
-29.03
-40.13
-48.71
-53.72
-54.00
-48.39
-36.14
-17.52
5.80
30.98
54.58
73.67
86.65
93.51
95.51
94.38
91.54
87.74
83.16
77.81
71.95
66.09
60.81
56.29
52.22
47.93
42.79
36.61
29.75
22.88
16.65
11.32
6.72
2.40
-2.06
-6.88
-12.07
-17.50
-23.03
-28.55
-34.05
-39.51
-44.93
-50.26
-55.47
-60.54
-65.51
-70.49
-75.72
-81.44
-87.78
-94.66
-101.66
-108.10
-113.20
-116.38
-117.37
-116.26
-113.37
-108.98
-103.23
-96.12
-87.58
-77.71
-66.79
-55.23
-43.46
-31.71
-20.02
-8.24
3.74
15.91
27.98
39.49
49.94
58.98
66.50
72.58
77.33
80.67
82.24
81.51
78.04
71.77
63.20
53.41
43.86
36.06
31.28
30.26
33.09
39.17
47.36
56.17
64.06
69.66
72.00
70.60
65.51
57.28
46.88
35.54
24.53
14.97
7.64
2.94
0.88
1.16
3.33
6.78
10.98
15.46
19.90
24.05
27.71
30.60
32.37
32.77
31.73
29.49
26.59
23.68
21.30
19.69
18.73
18.07
17.27
16.02
14.20
11.89
9.26
6.55
3.91
1.41
-1.05
-3.64
-6.56
-9.87
-13.45
-16.99
-20.12
-22.58
-24.38
-25.82
-27.41
-29.63
-32.78
-36.81
-41.36
-45.78
-49.22
-50.66
-49.17
-44.10
-35.52
-24.33
-12.20
-1.03
7.74
13.62
17.25
19.81
22.37
25.25
27.90
29.47
29.36
27.70
25.35
23.38
22.45
22.54
23.02
23.02
22.00
19.95
17.29
14.59
12.18
10.07
7.99
5.66
2.91
-0.15
-3.39
-6.76
-10.35
-14.37
-18.96
-23.99
-29.15
-34.08
-38.57
-42.74
-46.79
-50.87
-54.77
-57.90
-59.44
-58.68
-55.30
-49.51
-41.99
-33.66
-25.37
-17.75
-11.12
-5.58
-1.14
2.17
4.38
5.57
5.96
5.89
5.70
5.62
5.71
5.95
6.27
6.67
7.21
7.91
8.75
9.62
10.37
10.81
10.76
10.06
8.62
6.47
3.85
1.17
-1.12
-2.71
-3.64
-4.36
-5.59
-8.02
-11.98
-17.33
-23.38
-29.09
-33.33
-35.12
-33.94
-29.78
-23.18
-15.08
-6.56
1.44
8.34
13.89
18.13
21.23
23.32
24.48
24.79
24.38
23.41
22.11
20.61
19.02
17.39
15.79
14.36
13.29
12.76
12.80
13.28
13.82
13.94
13.18
11.34
8.46
4.87
1.05
-2.62
-5.93
-8.92
-11.72
-14.62
-17.86
-21.67
-26.25
-31.64
-37.54
-43.24
-47.67
-49.64
-48.32
-43.57
-36.00
-26.83
-17.48
-9.15
-2.52
2.25
5.45
7.51
8.89
9.95
10.92
11.89
12.83
13.66
14.16
14.14
13.49
12.25
10.69
9.15
7.94
7.17
6.75
6.34
5.57
4.20
2.09
-0.70
-4.03
-7.75
-11.65
-15.51
-19.21
-22.76
-26.37
-30.33
-34.82
-39.67
-44.22
-47.48
-48.44
-46.40
-41.25
-33.52
-24.18
-14.42
-5.32
2.35
8.23
12.33
14.99
16.67
17.84
18.84
19.84
20.80
21.60
22.10
22.17
21.82
21.13
20.34
19.72
19.51
19.82
20.52
21.30
21.75
21.46
20.16
17.82
14.56
10.69
6.54
2.38
-1.67
-5.71
-10.00
-14.85
-20.43
-26.57
-32.69
-37.86
-41.01
-41.30
-38.38
-32.55
-24.66
-15.88
-7.37
0.03
5.92
10.29
13.39
15.52
16.94
17.83
18.29
18.38
18.19
17.79
17.29
16.79
16.38
16.13
16.06
16.15
16.35
16.59
16.76
16.73
16.31
15.35
13.71
11.39
8.49
5.24
1.87
-1.45
-4.68
-7.86
-11.13
-14.63
-18.51
-22.87
-27.80
-33.20
-38.78
-43.87
-47.60
-49.02
-47.44
-42.74
-35.37
-26.36
-16.86
-7.93
-0.21
6.03
10.85
14.42
16.93
18.54
19.32
19.39
18.96
18.31
17.77
17.60
17.98
18.89
20.15
21.51
22.69
23.49
23.80
23.60
22.88
21.66
19.96
17.83
15.38
12.75
10.03
7.26
4.38
1.34
-1.89
-5.22
-8.48
-11.57
-14.48
-17.39
-20.61
-24.41
-28.91
-33.98
-39.19
-43.77
-46.84
-47.50
-45.17
-39.78
-31.86
-22.41
-12.63
-3.53
4.26
10.53
15.33
18.77
20.97
21.99
22.03
21.40
20.51
19.77
19.47
19.72
20.47
21.56
22.84
24.17
25.45
26.63
27.67
28.45
28.85
28.69
27.81
26.23
24.06
21.57
19.04
16.68
14.49
12.30
9.85
6.89
3.32
-0.81
-5.20
-9.50
-13.33
-16.52
-19.13
-21.49
-24.17
-27.68
-32.29
-37.83
-43.68
-48.82
-52.17
-52.82
-50.30
-44.73
-36.72
-27.27
-17.43
-8.15
-0.06
6.52
11.55
15.18
17.64
19.22
20.19
20.83
21.34
21.83
22.35
22.93
23.63
24.54
25.75
27.21
28.75
30.15
31.14
31.59
31.54
31.10
30.38
29.42
28.13
26.43
24.26
21.70
18.89
15.99
13.11
10.25
7.38
4.45
1.45
-1.59
-4.61
-7.55
-10.37
-13.07
-15.74
-18.52
-21.60
-25.20
-29.45
-34.32
-39.58
-44.70
-48.98
-51.62
-51.89
-49.34
-43.92
-36.05
-26.58
-16.63
-7.26
0.74
7.07
11.82
15.38
18.08
20.09
21.36
21.78
21.40
20.48
19.50
18.95
19.12
19.99
21.28
22.65
23.85
24.84
25.75
26.70
27.66
28.36
28.38
27.39
25.22
22.11
18.52
15.00
11.97
9.58
7.68
5.95
4.05
1.78
-0.92
-3.91
-7.00
-9.97
-12.69
-15.12
-17.38
-19.68
-22.27
-25.43
-29.36
-34.10
-39.45
-44.83
-49.36
-51.97
-51.76
-48.26
-41.71
-32.96
-23.24
-13.75
-5.32
1.72
7.40
11.94
15.52
18.22
20.07
21.16
21.69
21.95
22.20
22.56
23.05
23.60
24.15
24.69
25.27
25.94
26.78
27.74
28.71
29.49
29.77
29.27
27.81
25.41
22.36
19.16
16.25
13.88
11.96
10.11
7.82
4.78
1.01
-3.11
-7.04
-10.30
-12.72
-14.49
-16.09
-18.05
-20.84
-24.73
-29.70
-35.40
-41.17
-46.11
-49.16
-49.46
-46.57
-40.62
-32.42
-23.14
-14.02
-6.06
0.25
4.85
7.99
10.00
11.14
11.61
11.61
11.34
11.10
11.18
11.76
12.88
14.38
16.03
17.63
19.09
20.45
21.83
23.25
24.61
25.70
26.23
25.95
24.80
22.90
20.56
18.08
15.67
13.37
11.06
8.58
5.78
2.67
-0.66
-4.06
-7.33
-10.35
-13.08
-15.58
-18.07
-20.81
-24.14
-28.29
-33.33
-39.05
-44.92
-50.15
-53.87
-55.28
-53.86
-49.51
-42.59
-33.80
-24.07
-14.33
-5.34
2.41
8.66
13.40
16.74
18.87
19.98
20.33
20.17
19.82
19.57
19.62
20.05
20.80
21.73
22.70
23.63
24.51
25.37
26.22
26.99
27.51
27.57
26.99
25.65
23.62
21.05
18.21
15.31
12.46
9.64
6.74
3.69
0.52
-2.68
-5.75
-8.61
-11.25
-13.73
-16.09
-18.40
-20.68
-23.10
-25.90
-29.37
-33.68
-38.79
-44.23
-49.24
-52.88
-54.20
-52.57
-47.78
-40.24
-30.86
-20.86
-11.47
-3.61
2.30
6.40
9.12
10.99
12.38
13.45
14.28
14.96
15.62
16.47
17.61
19.00
20.49
21.87
23.03
23.98
24.87
25.81
26.85
27.86
28.57
28.72
28.07
26.57
24.29
21.50
18.57
15.87
13.62
11.80
10.16
8.30
5.89
2.81
-0.79
-4.59
-8.22
-11.44
-14.22
-16.75
-19.40
-22.55
-26.55
-31.53
-37.33
-43.39
-48.82
-52.54
-53.51
-51.07
-45.20
-36.55
-26.30
-15.78
-6.18
1.82
8.06
12.75
16.20
18.63
20.13
20.75
20.64
20.10
19.54
19.24
19.32
19.69
20.22
20.87
21.71
22.80
24.15
25.58
26.82
27.55
27.58
26.84
25.39
23.38
20.99
18.34
15.57
12.71
9.76
6.68
3.42
-0.02
-3.58
-7.13
-10.53
-13.67
-16.55
-19.41
-22.65
-26.79
-32.17
-38.79
-46.05
-52.83
-57.76
-59.63
-57.80
-52.37
-44.12
-34.25
-24.02
-14.41
-6.11
0.59
5.71
9.45
12.17
14.21
15.80
17.04
17.89
18.34
18.45
18.41
18.48
18.93
19.93
21.46
23.38
25.45
27.34
28.72
29.26
28.74
27.10
24.49
21.23
17.69
14.21
10.95
7.92
4.99
2.02
-1.07
-4.28
-7.52
-10.72
-13.79
-16.75
-19.73
-22.84
-26.30
-30.26
-34.69
-39.32
-43.60
-46.72
-47.84
-46.33
-41.99
-35.15
-26.57
-17.21
-8.01
0.33
7.42
13.08
17.31
20.17
21.74
22.15
21.57
20.27
18.63
17.09
16.08
15.90
16.60
17.98
19.68
21.30
22.53
23.27
23.50
23.36
22.93
22.27
21.31
19.92
17.96
15.37
12.23
8.73
5.15
1.74
-1.43
-4.48
-7.67
-11.30
-15.58
-20.54
-25.93
-31.24
-35.72
-38.51
-38.80
-36.06
-30.29
-21.99
-12.15
-1.99
7.36
15.09
20.81
24.55
26.53
27.08
26.41
24.69
22.10
18.88
15.41
12.07
9.18
6.95
5.41
4.52
4.21
4.42
5.06
6.05
7.24
8.39
9.23
9.47
8.85
7.27
4.81
1.72
-1.64
-4.93
-7.96
-10.79
-13.70
-17.10
-21.36
-26.54
-32.32
-37.99
-42.56
-45.01
-44.63
-41.21
-35.11
-27.12
-18.25
-9.41
-1.27
5.78
11.60
16.14
19.41
21.44
22.32
22.21
21.44
20.41
19.53
19.08
19.17
19.65
20.29
20.86
21.26
21.52
21.71
21.84
21.76
21.17
19.73
17.23
13.63
9.17
4.22
-0.75
-5.35
-9.36
-12.79
-15.88
-19.09
-22.89
-27.68
-33.51
-40.07
-46.58
-52.04
-55.37
-55.73
-52.75
-46.64
-38.15
-28.36
-18.41
-9.22
-1.35
5.05
10.12
14.13
17.35
19.92
21.91
23.29
24.10
24.45
24.58
24.80
25.31
26.18
27.28
28.32
29.03
29.27
29.04
28.43
27.49
26.13
24.16
21.35
17.65
13.24
8.51
3.91
-0.24
-3.85
-7.12
-10.37
-13.98
-18.24
-23.35
-29.33
-36.02
-42.94
-49.32
-54.10
-56.20
-54.84
-49.86
-41.84
-31.93
-21.44
-11.46
-2.59
5.05
11.68
17.59
22.93
27.74
31.97
35.57
38.55
40.94
42.73
43.90
44.41
44.31
43.74
42.98
42.32
41.97
41.91
41.91
41.54
40.37
38.14
34.89
30.95
26.79
22.84
19.28
15.97
12.58
8.77
4.39
-0.46
-5.50
-10.44
-15.09
-19.44
-23.66
-28.03
-32.90
-38.57
-45.13
-52.34
-59.48
-65.40
-68.81
-68.62
-64.37
-56.41
-45.81
-34.07
-22.57
-12.31
-3.65
3.56
9.74
15.27
20.32
24.78
28.44
31.14
32.93
34.07
34.86
35.54
36.15
36.62
36.88
37.00
37.16
37.56
38.20
38.91
39.29
38.95
37.61
35.21
31.92
28.06
24.02
20.15
16.70
13.77
11.26
8.89
6.28
3.06
-0.97
-5.74
-10.88
-15.93
-20.50
-24.47
-28.06
-31.79
-36.26
-41.91
-48.88
-56.84
-65.05
-72.45
-77.78
-79.96
-78.19
-72.36
-63.00
-51.29
-38.67
-26.47
-15.60
-6.39
1.26
7.69
13.25
18.17
22.56
26.40
29.68
32.36
34.43
35.92
36.92
37.56
38.03
38.51
39.12
39.91
40.86
41.86
42.76
43.36
43.46
42.83
41.31
38.85
35.55
31.67
27.57
23.55
19.79
16.21
12.61
8.74
4.43
-0.22
-4.98
-9.52
-13.57
-17.09
-20.24
-23.42
-27.10
-31.73
-37.60
-44.67
-52.51
-60.24
-66.68
-70.51
-70.70
-66.75
-58.92
-48.21
-36.04
-23.85
-12.73
-3.20
4.74
11.42
17.20
22.31
26.76
30.47
33.37
35.51
37.03
38.14
39.01
39.71
40.30
40.79
41.23
41.65
42.09
42.48
42.72
42.63
42.03
40.77
38.75
36.01
32.69
29.04
25.38
21.95
18.80
15.77
12.56
8.92
4.76
0.24
-4.29
-8.46
-12.05
-15.07
-17.77
-20.49
-23.61
-27.44
-32.22
-38.11
-45.07
-52.78
-60.47
-67.01
-71.08
-71.56
-67.91
-60.39
-50.01
-38.17
-26.32
-15.48
-6.18
1.56
8.01
13.51
18.26
22.34
25.68
28.21
29.92
30.92
31.47
31.78
32.04
32.30
32.59
32.91
33.32
33.87
34.52
35.11
35.37
35.00
33.83
31.86
29.22
26.11
22.75
19.31
15.92
12.64
9.46
6.27
2.90
-0.81
-4.89
-9.19
-13.44
-17.39
-20.96
-24.32
-27.77
-31.70
-36.40
-41.99
-48.45
-55.55
-62.77
-69.34
-74.18
-76.15
-74.30
-68.31
-58.60
-46.35
-33.10
-20.36
-9.19
0.00
7.44
13.61
19.00
23.78
27.82
30.86
32.74
33.63
33.96
34.31
35.08
36.37
38.03
39.71
41.16
42.31
43.18
43.85
44.29
44.34
43.80
42.54
40.56
38.02
35.21
32.38
29.66
27.07
24.51
21.84
18.99
16.00
12.93
9.86
6.79
3.67
0.45
-2.77
-5.82
-8.45
-10.56
-12.29
-14.10
-16.56
-20.15
-25.00
-30.74
-36.52
-41.19
-43.58
-42.79
-38.46
-30.86
-20.87
-9.72
1.25
10.91
18.51
23.83
27.08
28.73
29.43
29.67
29.79
29.92
30.05
30.15
30.22
30.31
30.44
30.64
30.88
31.15
31.45
31.79
32.11
32.18
31.66
30.17
27.53
23.85
19.54
15.10
10.96
7.25
3.84
0.42
-3.27
-7.29
-11.46
-15.45
-18.95
-21.87
-24.42
-27.15
-30.74
-35.74
-42.34
-50.17
-58.37
-65.76
-71.11
-73.50
-72.51
-68.41
-62.06
-54.77
-47.91
-42.55
-39.15
-37.44
-36.66
-35.88
-34.42
-32.10
-29.14
-25.89
-22.52
-18.91
-14.59
-9.05
-1.76
7.74
19.96
35.46
54.70
77.78
104.05
132.05
159.57
184.08
203.18
214.90
217.98
211.99
197.42
175.79
149.47
121.36
94.24
70.10
49.66
32.35
16.75
1.44
-14.40
-30.50
-45.69
-58.50
-67.70
-72.89
-74.47
-73.41
-70.78
-67.48
-64.13
-61.17
-58.95
-57.50
-56.39
-54.53
-50.58
-43.48
-33.22
-21.11
-9.43
-0.70
3.33
2.14
-3.55
-12.22
-22.26
-32.32
-41.38
-48.64
-53.36
-54.88
-52.87
-47.57
-39.82
-31.04
-22.83
-16.51
-12.80
-11.63
-12.31
-13.82
-15.30
-16.32
-17.04
-18.11
-20.27
-24.00
-29.29
-35.60
-42.14
-48.09
-52.91
-56.33
-58.20
-58.33
-56.42
-52.18
-45.57
-37.00
-27.35
-17.72
-9.08
-2.00
3.34
7.08
9.49
10.79
11.18
10.78
9.74
8.20
6.24
3.98
1.54
-0.87
-2.97
-4.46
-5.16
-5.11
-4.60
-4.05
-3.89
-4.43
-5.82
-8.07
-11.03
-14.50
-18.21
-21.90
-25.38
-28.58
-31.62
-34.76
-38.35
-42.69
-47.91
-53.95
-60.41
-66.69
-71.94
-75.32
-76.13
-74.06
-69.26
-62.40
-54.33
-45.91
-37.66
-29.80
-22.34
-15.28
-8.77
-3.09
1.50
4.91
7.31
9.03
10.41
11.71
13.05
14.41
15.76
17.07
18.28
19.29
19.99
20.23
19.92
19.01
17.46
15.24
12.31
8.64
4.24
-0.77
-6.17
-11.67
-17.02
-22.02
-26.69
-31.27
-36.11
-41.59
-47.85
-54.67
-61.31
-66.69
-69.64
-69.35
-65.57
-58.73
-49.81
-39.96
-30.18
-21.08
-12.87
-5.58
0.77
5.99
9.81
12.08
13.00
13.13
13.28
14.23
16.44
19.92
24.28
28.91
33.16
36.52
38.68
39.48
38.92
37.14
34.40
31.07
27.60
24.47
22.07
20.55
19.75
19.17
18.10
15.85
11.99
6.40
-0.69
-8.92
-17.87
-27.08
-35.94
-43.58
-49.00
-51.22
-49.66
-44.35
-36.04
-26.02
-15.70
-6.26
1.65
7.98
13.13
17.66
22.05
26.47
30.76
34.53
37.33
38.83
38.93
37.84
35.99
33.92
32.16
31.12
31.02
31.94
33.78
36.30
39.12
41.72
43.49
43.88
42.52
39.36
34.70
29.12
23.27
17.67
12.58
7.94
3.50
-1.10
-6.24
-12.19
-19.04
-26.63
-34.44
-41.64
-47.17
-49.99
-49.36
-45.08
-37.55
-27.70
-16.68
-5.63
4.56
13.32
20.40
25.79
29.67
32.30
33.97
34.93
35.34
35.30
34.79
33.71
31.95
29.51
26.53
23.35
20.42
18.08
16.37
14.96
13.24
10.60
6.67
1.56
-4.28
-10.23
-15.78
-20.72
-25.09
-29.15
-33.25
-37.75
-42.94
-48.98
-55.69
-62.43
-68.06
-71.19
-70.58
-65.64
-56.71
-44.96
-32.09
-19.70
-8.87
0.13
7.61
14.19
20.23
25.71
30.27
33.53
35.36
36.09
36.32
36.60
37.19
37.98
38.66
39.04
39.21
39.55
40.40
41.83
43.39
44.28
43.65
40.98
36.32
30.25
23.62
17.20
11.40
6.23
1.31
-3.88
-9.85
-16.88
-24.88
-33.31
-41.17
-47.15
-49.93
-48.59
-43.03
-33.99
-22.94
-11.51
-0.99
8.05
15.73
22.60
29.19
35.61
41.51
46.27
49.32
50.36
49.50
47.12
43.67
39.60
35.28
31.06
27.34
24.52
22.95
22.69
23.48
24.70
25.49
24.99
22.53
17.90
11.39
3.73
-4.09
-11.18
-17.07
-21.85
-26.09
-30.55
-35.81
-41.99
-48.67
-54.94
-59.73
-62.02
-61.13
-56.86
-49.54
-40.00
-29.29
-18.51
-8.46
0.40
7.97
14.32
19.51
23.58
26.55
28.48
29.56
30.08
30.28
30.33
30.26
30.05
29.66
29.13
28.58
28.13
27.85
27.61
27.08
25.80
23.27
19.18
13.59
6.90
-0.21
-6.98
-12.83
-17.52
-21.14
-24.05
-26.83
-30.07
-34.23
-39.41
-45.12
-50.33
-53.54
-53.36
-48.95
-40.35
-28.56
-15.07
-1.47
11.09
22.02
31.16
38.53
44.06
47.56
48.77
47.72
44.77
40.78
36.78
33.72
32.12
31.89
32.48
33.15
33.36
32.95
32.06
30.93
29.61
27.90
25.40
21.81
17.11
11.62
5.91
0.55
-4.14
-8.22
-12.09
-16.31
-21.36
-27.53
-34.85
-43.07
-51.67
-59.81
-66.35
-70.00
-69.68
-64.86
-55.92
-44.07
-30.99
-18.29
-7.01
2.54
10.63
17.70
24.03
29.59
34.10
37.32
39.16
39.78
39.53
38.87
38.20
37.78
37.68
37.83
38.00
37.95
37.49
36.53
35.08
33.17
30.77
27.74
23.99
19.50
14.46
9.18
4.07
-0.62
-4.82
-8.71
-12.58
-16.76
-21.54
-27.14
-33.71
-41.23
-49.42
-57.58
-64.60
-69.17
-70.06
-66.62
-58.93
-47.90
-34.93
-21.55
-9.01
2.01
11.39
19.34
26.18
32.03
36.78
40.19
42.08
42.59
42.18
41.48
41.03
41.06
41.47
41.92
42.16
42.14
42.04
42.08
42.32
42.50
42.08
40.54
37.61
33.45
28.59
23.72
19.34
15.62
12.33
9.06
5.36
1.03
-3.90
-9.16
-14.34
-19.09
-23.16
-26.61
-29.80
-33.36
-38.01
-44.28
-52.24
-61.25
-70.08
-77.10
-80.76
-80.00
-74.58
-65.09
-52.76
-39.14
-25.66
-13.30
-2.56
6.54
14.17
20.54
25.77
29.88
32.89
34.90
36.05
36.54
36.57
36.34
36.08
36.07
36.51
37.45
38.72
40.01
40.96
41.30
40.92
39.86
38.18
35.96
33.23
30.06
26.55
22.90
19.31
15.92
12.79
9.86
7.02
4.11
0.94
-2.61
-6.62
-11.02
-15.60
-20.06
-24.08
-27.51
-30.42
-33.18
-36.37
-40.54
-46.08
-52.98
-60.75
-68.47
-74.90
-78.73
-78.94
-75.01
-67.17
-56.31
-43.86
-31.28
-19.79
-10.04
-2.13
4.26
9.58
14.18
18.22
21.68
24.49
26.64
28.28
29.66
31.08
32.75
34.73
36.91
39.10
41.11
42.84
44.25
45.33
46.03
46.18
45.64
44.29
42.17
39.45
36.36
33.10
29.74
26.25
22.51
18.51
14.34
10.18
6.27
2.77
-0.32
-3.17
-6.04
-9.23
-12.88
-16.97
-21.28
-25.50
-29.37
-32.80
-35.96
-39.22
-43.06
-47.85
-53.78
-60.62
-67.72
-74.02
-78.23
-79.18
-76.13
-69.07
-58.80
-46.69
-34.23
-22.67
-12.69
-4.41
2.40
8.08
12.88
16.89
20.16
22.74
24.73
26.25
27.41
28.31
29.00
29.54
30.06
30.70
31.54
32.60
33.76
34.76
35.31
35.16
34.21
32.46
30.03
27.14
24.03
20.98
18.22
15.90
13.98
12.30
10.61
8.69
6.48
4.09
1.71
-0.56
-2.80
-5.27
-8.27
-12.01
-16.38
-21.07
-25.63
-29.70
-33.18
-36.24
-39.33
-42.95
-47.54
-53.24
-59.78
-66.45
-72.12
-75.48
-75.35
-71.06
-62.70
-51.20
-38.08
-25.04
-13.50
-4.26
2.58
7.47
11.08
14.05
16.71
19.18
21.36
23.15
24.60
25.82
26.99
28.27
29.69
31.15
32.55
33.79
34.76
35.44
35.74
35.60
34.93
33.72
32.03
30.01
27.89
25.83
23.94
22.19
20.44
18.51
16.21
13.47
10.34
6.99
3.66
0.56
-2.20
-4.69
-7.14
-9.82
-12.98
-16.64
-20.61
-24.56
-28.16
-31.26
-34.06
-36.98
-40.59
-45.30
-51.21
-57.97
-64.74
-70.37
-73.56
-73.25
-68.86
-60.59
-49.31
-36.47
-23.60
-11.96
-2.26
5.39
11.28
15.85
19.44
22.24
24.30
25.70
26.57
27.11
27.56
28.09
28.82
29.76
30.94
32.36
34.03
35.88
37.72
39.28
40.23
40.34
39.50
37.76
35.32
32.37
29.13
25.78
22.48
19.37
16.52
13.94
11.50
9.03
6.42
3.68
0.98
-1.48
-3.65
-5.66
-7.82
-10.47
-13.74
-17.51
-21.45
-25.19
-28.49
-31.37
-34.09
-37.07
-40.77
-45.54
-51.48
-58.37
-65.50
-71.73
-75.69
-76.11
-72.27
-64.26
-53.03
-40.13
-27.19
-15.50
-5.74
2.03
8.11
12.91
16.71
19.66
21.86
23.45
24.65
25.67
26.65
27.64
28.70
29.80
31.02
32.39
33.89
35.41
36.76
37.74
38.13
37.79
36.62
34.67
32.13
29.36
26.73
24.52
22.76
21.25
19.63
17.57
14.95
11.92
8.71
5.60
2.68
-0.06
-2.77
-5.58
-8.55
-11.73
-15.14
-18.79
-22.66
-26.69
-30.76
-34.83
-38.98
-43.49
-48.72
-54.98
-62.25
-69.97
-77.11
-82.24
-84.01
-81.53
-74.63
-63.96
-50.76
-36.53
-22.64
-10.07
0.73
9.69
17.01
22.93
27.64
31.21
33.65
34.96
35.18
34.44
32.99
31.18
29.42
28.08
27.44
27.62
28.58
30.20
32.28
34.56
36.71
38.35
39.13
38.89
37.74
36.02
34.08
32.06
29.71
26.48
21.86
15.68
8.37
0.76
-6.21
-11.86
-16.03
-19.02
-21.48
-24.20
-27.93
-33.27
-40.38
-48.91
-57.78
-65.39
-69.97
-70.20
-65.64
-56.94
-45.56
-33.27
-21.62
-11.56
-3.42
2.93
7.80
11.53
14.39
16.58
18.27
19.56
20.58
21.35
21.97
22.56
23.24
24.12
25.23
26.46
27.64
28.60
29.22
29.40
29.03
27.95
26.05
23.28
19.81
15.97
12.10
8.45
5.04
1.67
-1.90
-5.79
-9.88
-13.88
-17.44
-20.44
-23.04
-25.80
-29.40
-34.43
-41.10
-49.06
-57.34
-64.56
-69.24
-70.18
-66.78
-59.20
-48.34
-35.63
-22.71
-11.01
-1.46
5.70
10.84
14.63
17.68
20.36
22.62
24.25
25.15
25.47
25.61
26.01
26.90
28.21
29.63
30.85
31.76
32.44
33.08
33.75
34.24
34.14
33.02
30.67
27.25
23.28
19.42
16.22
13.85
12.01
10.10
7.41
3.56
-1.38
-6.91
-12.34
-17.10
-20.99
-24.21
-27.28
-30.79
-35.29
-41.09
-48.18
-56.20
-64.28
-71.19
-75.45
-75.79
-71.54
-62.94
-51.17
-37.93
-24.92
-13.38
-3.79
3.94
10.30
15.68
20.32
24.19
27.18
29.25
30.60
31.53
32.41
33.51
34.91
36.46
37.93
39.10
39.85
40.20
40.27
40.10
39.62
38.61
36.89
34.36
31.16
27.57
23.96
20.65
17.73
15.13
12.60
9.90
6.79
3.18
-0.91
-5.33
-9.84
-14.20
-18.28
-22.12
-25.98
-30.32
-35.61
-42.18
-49.99
-58.51
-66.70
-73.19
-76.55
-75.75
-70.39
-60.89
-48.35
-34.29
-20.16
-7.10
4.30
13.90
21.88
28.52
34.11
38.83
42.84
46.20
48.95
51.11
52.73
53.85
54.63
55.26
55.93
56.82
58.01
59.45
60.92
62.10
62.57
61.93
59.99
56.82
52.80
48.47
44.39
40.88
37.95
35.29
32.43
29.03
24.99
20.52
16.02
11.89
8.27
5.04
1.84
-1.71
-5.86
-10.60
-15.69
-20.79
-25.59
-29.97
-34.05
-38.17
-42.79
-48.33
-55.03
-62.74
-70.73
-77.79
-82.40
-83.13
-79.18
-70.64
-58.58
-44.71
-30.85
-18.43
-8.09
0.24
7.12
13.15
18.76
24.01
28.77
32.84
36.11
38.61
40.49
41.93
43.08
44.03
44.81
45.45
46.03
46.66
47.40
48.22
48.88
49.04
48.40
46.82
44.43
41.54
38.52
35.62
32.90
30.27
27.58
24.71
21.63
18.38
15.07
11.81
8.67
5.69
2.73
-0.41
-3.96
-8.11
-12.77
-17.66
-22.42
-26.73
-30.52
-33.96
-37.38
-41.18
-45.72
-51.28
-57.96
-65.48
-73.12
-79.64
-83.50
-83.37
-78.56
-69.35
-56.95
-43.04
-29.27
-16.77
-5.99
3.14
10.96
17.77
23.72
28.79
32.91
36.06
38.33
39.88
40.92
41.64
42.25
42.89
43.70
44.73
45.94
47.22
48.41
49.34
49.87
49.92
49.40
48.25
46.43
43.97
41.02
37.85
34.76
31.99
29.65
27.68
25.88
24.06
22.06
19.85
17.44
14.89
12.26
9.54
6.76
3.96
1.20
-1.55
-4.40
-7.57
-11.30
-15.69
-20.58
-25.54
-30.04
-33.72
-36.55
-38.93
-41.56
-45.10
-50.00
-56.28
-63.49
-70.81
-77.11
-81.14
-81.71
-78.10
-70.27
-59.05
-45.93
-32.61
-20.51
-10.41
-2.36
4.06
9.39
14.03
18.16
21.79
24.89
27.45
29.55
31.27
32.72
34.01
35.22
36.43
37.73
39.12
40.59
42.06
43.38
44.32
44.63
44.10
42.69
40.51
37.83
35.01
32.38
30.12
28.25
26.66
25.15
23.56
21.82
19.98
18.16
16.49
15.02
13.74
12.50
11.09
9.31
7.01
4.19
0.95
-2.50
-5.90
-9.02
-11.76
-14.19
-16.57
-19.20
-22.29
-25.88
-29.76
-33.61
-37.13
-40.24
-43.11
-46.14
-49.80
-54.48
-60.24
-66.75
-73.15
-78.25
-80.70
-79.43
-74.02
-64.87
-53.13
-40.39
-28.11
-17.34
-8.54
-1.66
3.65
7.80
11.18
14.12
16.84
19.48
22.07
24.52
26.64
28.30
29.47
30.27
30.91
31.63
32.57
33.77
35.12
36.43
37.50
38.14
38.21
37.66
36.49
34.84
32.94
31.09
29.49
28.22
27.16
26.04
24.60
22.75
20.59
18.36
16.35
14.68
13.25
11.81
10.06
7.81
5.09
2.09
-0.85
-3.45
-5.59
-7.41
-9.21
-11.41
-14.29
-17.89
-21.99
-26.23
-30.23
-33.78
-36.91
-39.88
-43.05
-46.78
-51.38
-56.86
-63.02
-69.22
-74.48
-77.61
-77.49
-73.44
-65.47
-54.40
-41.61
-28.70
-17.06
-7.52
-0.34
4.82
8.60
11.69
14.58
17.47
20.25
22.63
24.34
25.32
25.71
25.84
26.05
26.59
27.54
28.88
30.49
32.23
33.88
35.16
35.75
35.40
34.09
31.98
29.47
26.98
24.80
23.05
21.66
20.42
19.18
17.85
16.39
14.81
13.07
11.08
8.74
6.03
3.11
0.18
-2.54
-5.00
-7.36
-9.92
-12.94
-16.50
-20.45
-24.45
-28.19
-31.49
-34.38
-37.10
-40.05
-43.66
-48.31
-54.16
-60.95
-67.92
-73.86
-77.32
-77.13
-72.69
-64.30
-53.02
-40.38
-27.92
-16.81
-7.65
-0.50
4.88
8.87
11.81
13.97
15.58
16.89
18.18
19.70
21.67
24.17
27.16
30.45
33.70
36.53
38.54
39.45
39.17
37.88
35.92
33.77
31.84
30.39
29.52
29.11
28.92
28.61
27.79
26.12
23.40
19.67
15.20
10.46
5.95
2.03
-1.20
-3.90
-6.42
-9.08
-12.04
-15.29
-18.63
-21.91
-25.12
-28.46
-32.26
-36.85
-42.38
-48.56
-54.66
-59.57
-62.08
-61.26
-56.74
-48.91
-38.82
-27.85
-17.34
-8.25
-1.00
4.46
8.49
11.48
13.72
15.40
16.61
17.46
18.04
18.46
18.84
19.27
19.82
20.50
21.33
22.24
23.19
24.11
24.96
25.65
25.99
25.74
24.62
22.46
19.35
15.71
12.07
8.94
6.52
4.66
2.90
0.81
-1.94
-5.32
-9.12
-13.02
-16.73
-20.09
-23.11
-25.92
-28.82
-32.22
-36.56
-42.07
-48.60
-55.42
-61.25
-64.60
-64.20
-59.56
-51.10
-40.10
-28.26
-17.11
-7.64
-0.21
5.38
9.58
12.90
15.67
18.16
20.43
22.47
24.18
25.45
26.30
26.84
27.30
27.86
28.62
29.54
30.49
31.34
32.07
32.67
33.08
33.17
32.72
31.55
29.58
26.94
23.91
20.82
17.93
15.34
12.96
10.62
8.14
5.43
2.47
-0.66
-3.89
-7.16
-10.43
-13.71
-16.99
-20.26
-23.56
-26.97
-30.66
-34.84
-39.71
-45.34
-51.52
-57.66
-62.79
-65.71
-65.38
-61.22
-53.45
-43.05
-31.48
-20.20
-10.27
-2.11
4.40
9.67
14.14
18.11
21.73
25.01
27.90
30.31
32.09
33.12
33.35
32.85
31.86
30.76
29.90
29.52
29.73
30.44
31.36
32.07
32.08
30.99
28.64
25.17
21.03
16.83
13.11
10.11
7.73
5.61
3.27
0.43
-2.96
-6.65
-10.31
-13.71
-16.76
-19.63
-22.66
-26.29
-30.88
-36.52
-42.98
-49.52
-55.05
-58.37
-58.44
-54.77
-47.60
-37.82
-26.72
-15.63
-5.60
2.78
9.37
14.39
18.20
21.15
23.51
25.40
26.88
27.94
28.57
28.76
28.59
28.21
27.86
27.73
27.96
28.56
29.44
30.38
31.14
31.47
31.12
29.90
27.73
24.74
21.25
17.68
14.40
11.55
8.99
6.36
3.31
-0.35
-4.51
-8.79
-12.79
-16.27
-19.28
-22.18
-25.54
-29.93
-35.67
-42.68
-50.31
-57.40
-62.53
-64.33
-61.97
-55.39
-45.45
-33.59
-21.45
-10.39
-1.16
6.13
11.79
16.28
20.02
23.25
26.08
28.53
30.57
32.15
33.23
33.84
34.07
34.13
34.30
34.83
35.86
37.32
38.91
40.18
40.72
40.28
38.88
36.74
34.16
31.38
28.53
25.57
22.46
19.21
15.92
12.81
10.01
7.53
5.18
2.64
-0.39
-4.04
-8.17
-12.43
-16.43
-19.97
-23.20
-26.61
-30.79
-36.21
-42.95
-50.65
-58.50
-65.37
-70.09
-71.59
-69.19
-62.82
-53.07
-41.16
-28.57
-16.73
-6.57
1.57
7.95
13.07
17.48
21.48
25.09
28.16
30.54
32.19
33.23
33.88
34.40
34.94
35.58
36.29
36.97
37.51
37.78
37.71
37.26
36.41
35.13
33.47
31.39
28.96
26.27
23.48
20.75
18.20
15.81
13.48
11.09
8.57
5.99
3.40
0.82
-1.87
-4.85
-8.28
-12.17
-16.32
-20.48
-24.44
-28.11
-31.60
-35.14
-39.03
-43.53
-48.74
-54.41
-59.91
-64.17
-65.97
-64.25
-58.62
-49.51
-38.19
-26.30
-15.27
-5.94
1.61
7.86
13.40
18.65
23.72
28.41
32.47
35.76
38.25
40.06
41.31
42.17
42.75
43.20
43.65
44.20
44.90
45.65
46.31
46.62
46.31
45.16
43.09
40.19
36.80
33.36
30.26
27.74
25.77
24.12
22.39
20.24
17.48
14.17
10.58
7.10
4.07
1.62
-0.43
-2.46
-4.92
-8.08
-11.89
-16.07
-20.19
-23.92
-27.16
-30.03
-32.82
-35.85
-39.43
-43.81
-49.09
-55.14
-61.48
-67.16
-70.96
-71.66
-68.46
-61.31
-51.03
-39.08
-27.04
-16.19
-7.14
0.13
6.02
11.01
15.37
19.17
22.34
24.85
26.75
28.20
29.32
30.22
30.97
31.63
32.26
32.90
33.59
34.31
35.02
35.62
36.02
36.05
35.54
34.34
32.38
29.82
26.97
24.24
21.99
20.35
19.21
18.20
16.94
15.08
12.60
9.66
6.66
3.96
1.72
-0.13
-1.89
-3.90
-6.39
-9.43
-12.92
-16.63
-20.37
-23.97
-27.38
-30.69
-34.10
-37.92
-42.46
-47.84
-53.85
-59.85
-64.80
-67.49
-66.86
-62.37
-54.23
-43.41
-31.37
-19.67
-9.47
-1.36
4.71
9.23
12.81
15.90
18.70
21.17
23.17
24.61
25.55
26.18
26.78
27.55
28.55
29.74
30.99
32.22
33.40
34.49
35.41
36.00
36.01
35.30
33.86
31.87
29.63
27.36
25.24
23.30
21.55
19.95
18.43
16.88
15.15
13.09
10.63
7.87
5.01
2.33
0.02
-1.91
-3.64
-5.46
-7.68
-10.46
-13.82
-17.60
-21.54
-25.35
-28.81
-31.87
-34.63
-37.43
-40.69
-44.82
-50.05
-56.20
-62.62
-68.25
-71.78
-72.04
-68.35
-60.75
-50.09
-37.77
-25.37
-14.23
-5.13
1.79
6.89
10.73
13.90
16.72
19.27
21.47
23.23
24.55
25.55
26.39
27.20
28.02
28.81
29.55
30.25
30.99
31.79
32.60
33.25
33.48
33.10
32.03
30.34
28.22
25.93
23.68
21.66
19.95
18.55
17.36
16.24
15.00
13.53
11.82
9.92
7.91
5.90
3.96
2.14
0.42
-1.31
-3.20
-5.45
-8.23
-11.58
-15.42
-19.54
-23.64
-27.50
-30.97
-34.09
-37.09
-40.31
-44.21
-49.09
-54.94
-61.23
-66.95
-70.79
-71.51
-68.41
-61.52
-51.67
-40.19
-28.58
-18.06
-9.37
-2.70
2.20
5.78
8.56
10.94
13.13
15.20
17.14
18.86
20.36
21.68
22.88
24.04
25.18
26.33
27.47
28.63
29.75
30.79
31.58
31.91
31.57
30.47
28.65
26.29
23.67
21.08
18.77
16.80
15.10
13.46
11.63
9.42
6.81
3.96
1.11
-1.49
-3.79
-5.93
-8.19
-10.87
-14.08
-17.73
-21.53
-25.15
-28.37
-31.18
-33.78
-36.54
-39.80
-43.87
-48.83
-54.46
-60.21
-65.15
-68.12
-68.00
-64.13
-56.55
-46.12
-34.28
-22.61
-12.37
-4.20
1.90
6.39
9.89
12.88
15.59
18.02
20.05
21.60
22.72
23.59
24.42
25.38
26.51
27.78
29.11
30.48
31.89
33.30
34.48
35.17
35.06
34.03
32.22
29.97
27.72
25.79
24.29
23.14
22.18
21.25
20.29
19.32
18.35
17.35
16.22
14.86
13.29
11.67
10.24
9.20
8.53
7.94
7.04
5.44
2.97
-0.32
-4.32
-9.03
-14.60
-21.19
-28.70
-36.54
-43.62
-48.61
-50.40
-48.46
-43.05
-35.09
-25.88
-16.78
-8.87
-2.82
1.21
3.45
4.39
4.56
4.44
4.30
4.24
4.31
4.54
4.99
5.73
6.80
8.16
9.74
11.42
13.08
14.62
15.92
16.83
17.26
17.09
16.27
14.83
12.86
10.57
8.19
5.94
3.95
2.13
0.28
-1.92
-4.69
-8.08
-11.94
-15.95
-19.76
-23.09
-25.87
-28.31
-30.85
-34.04
-38.34
-43.90
-50.34
-56.82
-62.02
-64.61
-63.56
-58.52
-49.94
-38.98
-27.17
-15.92
-6.29
1.33
7.06
11.31
14.54
17.04
18.98
20.36
21.27
21.90
22.47
23.26
24.35
25.70
27.09
28.25
29.04
29.50
29.84
30.31
30.97
31.57
31.66
30.70
28.42
24.97
20.90
16.88
13.47
10.88
8.88
7.05
4.92
2.23
-1.07
-4.77
-8.60
-12.26
-15.53
-18.41
-21.06
-23.82
-27.13
-31.43
-36.95
-43.62
-50.93
-57.90
-63.26
-65.72
-64.35
-58.93
-50.10
-39.12
-27.54
-16.70
-7.46
-0.08
5.61
10.06
13.71
16.95
20.01
22.93
25.57
27.68
29.10
29.78
29.91
29.77
29.66
29.77
30.20
30.95
31.98
33.16
34.32
35.15
35.32
34.59
32.84
30.17
26.80
23.05
19.21
15.59
12.32
9.43
6.71
3.88
0.70
-2.88
-6.61
-10.10
-13.08
-15.51
-17.74
-20.32
-23.75
-28.31
-33.97
-40.46
-47.29
-53.82
-59.18
-62.40
-62.53
-59.00
-51.86
-41.83
-30.20
-18.42
-7.69
1.25
8.21
13.41
17.32
20.38
22.96
25.21
27.18
28.81
30.05
30.93
31.56
32.10
32.69
33.44
34.37
35.43
36.55
37.61
38.47
38.94
38.86
38.02
36.36
33.87
30.68
27.03
23.22
19.56
16.30
13.52
11.12
8.85
6.39
3.46
0.02
-3.80
-7.69
-11.34
-14.58
-17.42
-20.11
-23.07
-26.68
-31.29
-37.05
-43.90
-51.42
-58.85
-65.02
-68.65
-68.61
-64.33
-56.05
-44.82
-32.25
-19.98
-9.25
-0.64
5.97
11.12
15.45
19.40
23.13
26.54
29.44
31.70
33.38
34.68
35.86
37.09
38.37
39.59
40.58
41.25
41.65
41.93
42.19
42.36
42.20
41.35
39.56
36.82
33.39
29.69
26.13
22.94
20.14
17.59
15.07
12.38
9.42
6.17
2.67
-0.97
-4.64
-8.18
-11.52
-14.67
-17.79
-21.21
-25.26
-30.24
-36.25
-43.01
-49.84
-55.74
-59.57
-60.39
-57.68
-51.59
-42.84
-32.57
-22.00
-12.16
-3.64
3.39
9.10
13.77
17.68
20.99
23.72
25.87
27.41
28.36
28.80
28.88
28.77
28.69
28.82
29.26
29.99
30.90
31.72
32.12
31.78
30.47
28.15
24.97
21.21
17.26
13.44
9.98
6.93
4.17
1.53
-1.14
-3.91
-6.76
-9.58
-12.26
-14.77
-17.22
-19.82
-22.90
-26.77
-31.58
-37.14
-42.82
-47.60
-50.29
-49.89
-45.93
-38.70
-29.19
-18.79
-8.81
-0.15
6.83
12.25
16.45
19.77
22.42
24.48
25.99
26.99
27.56
27.84
27.98
28.14
28.47
29.08
29.97
31.03
32.07
32.86
33.23
33.06
32.32
31.00
29.10
26.60
23.55
20.11
16.55
13.23
10.39
8.10
6.13
4.06
1.47
-1.89
-5.92
-10.29
-14.55
-18.35
-21.57
-24.35
-27.05
-30.15
-34.06
-39.09
-45.20
-51.95
-58.43
-63.38
-65.52
-63.88
-58.25
-49.21
-38.06
-26.40
-15.66
-6.73
0.24
5.63
10.13
14.34
18.59
22.79
26.64
29.76
31.91
33.05
33.37
33.23
32.98
32.89
33.12
33.63
34.32
34.97
35.42
35.54
35.20
34.29
32.69
30.29
27.14
23.44
19.55
15.86
12.63
9.91
7.56
5.34
3.03
0.46
-2.47
-5.82
-9.59
-13.67
-17.82
-21.72
-25.12
-27.99
-30.58
-33.40
-36.97
-41.69
-47.60
-54.33
-61.06
-66.64
-69.77
-69.39
-64.96
-56.70
-45.60
-33.14
-20.90
-10.09
-1.30
5.55
10.96
15.56
19.81
23.84
27.54
30.67
33.07
34.70
35.72
36.31
36.59
36.59
36.32
35.85
35.33
34.97
34.90
35.05
35.16
34.87
33.89
32.06
29.48
26.35
23.00
19.70
16.65
13.97
11.64
9.52
7.36
4.93
2.04
-1.33
-5.01
-8.74
-12.30
-15.60
-18.72
-21.97
-25.69
-30.21
-35.67
-41.93
-48.46
-54.41
-58.63
-60.03
-57.82
-51.89
-42.89
-32.12
-21.11
-11.17
-3.01
3.36
8.45
12.86
17.02
20.99
24.51
27.30
29.19
30.27
30.81
31.14
31.45
31.80
32.11
32.30
32.32
32.20
31.92
31.43
30.60
29.26
27.31
24.74
21.68
18.35
14.98
11.80
8.91
6.27
3.69
0.91
-2.33
-6.11
-10.29
-14.61
-18.72
-22.37
-25.46
-28.09
-30.50
-33.01
-36.02
-39.88
-44.76
-50.49
-56.37
-61.24
-63.77
-62.84
-58.01
-49.72
-39.14
-27.85
-17.25
-8.24
-1.09
4.53
9.13
13.16
16.84
20.11
22.78
24.75
26.01
26.73
27.17
27.54
27.97
28.46
28.98
29.51
30.01
30.49
30.89
31.11
30.98
30.30
28.92
26.79
24.02
20.84
17.52
14.38
11.63
9.32
7.36
5.51
3.48
1.00
-2.07
-5.69
-9.70
-13.77
-17.56
-20.80
-23.41
-25.50
-27.43
-29.71
-32.89
-37.39
-43.25
-49.98
-56.51
-61.46
-63.49
-61.76
-56.25
-47.72
-37.49
-26.95
-17.21
-8.87
-2.01
3.55
8.08
11.82
14.82
17.12
18.72
19.67
20.10
20.15
20.03
19.90
19.96
20.34
21.15
22.42
24.07
25.91
27.62
28.87
29.36
28.93
27.62
25.63
23.21
20.69
18.28
16.13
14.27
12.66
11.26
9.99
8.75
7.42
5.77
3.66
1.01
-2.07
-5.31
-8.42
-11.23
-13.78
-16.29
-19.12
-22.57
-26.91
-32.09
-37.83
-43.47
-48.10
-50.76
-50.63
-47.40
-41.30
-33.13
-23.97
-14.92
-6.83
-0.18
4.91
8.63
11.33
13.43
15.25
16.96
18.56
19.97
21.13
22.05
22.85
23.62
24.49
25.46
26.50
27.52
28.37
28.87
28.77
27.88
26.07
23.42
20.18
16.68
13.29
10.22
7.50
5.02
2.59
0.01
-2.76
-5.73
-8.82
-11.96
-15.13
-18.37
-21.80
-25.56
-29.83
-34.71
-40.14
-45.76
-50.75
-54.04
-54.53
-51.51
-44.99
-35.83
-25.44
-15.32
-6.65
0.09
5.01
8.64
11.55
14.09
16.33
18.16
19.47
20.26
20.73
21.12
21.64
22.38
23.24
24.10
24.85
25.51
26.16
26.86
27.51
27.83
27.44
26.04
23.54
20.17
16.40
12.74
9.60
7.09
5.02
2.99
0.58
-2.52
-6.29
-10.43
-14.49
-18.02
-20.84
-23.12
-25.32
-28.08
-31.85
-36.79
-42.55
-48.34
-53.06
-55.56
-54.96
-50.86
-43.58
-34.02
-23.49
-13.35
-4.67
2.02
6.77
10.08
12.62
14.96
17.37
19.74
21.78
23.15
23.69
23.56
23.17
23.00
23.36
24.35
25.75
27.24
28.55
29.53
30.13
30.36
30.15
29.44
28.20
26.52
24.60
22.62
20.69
18.76
16.70
14.38
11.74
8.85
5.82
2.77
-0.16
-2.89
-5.41
-7.78
-10.14
-12.64
-15.34
-18.19
-21.06
-23.86
-26.71
-29.92
-33.97
-39.23
-45.65
-52.61
-58.92
-63.16
-64.07
-60.99
-54.16
-44.68
-34.14
-24.10
-15.65
-9.10
-4.15
-0.16
3.49
7.08
10.58
13.75
16.30
18.11
19.28
20.06
20.77
21.70
22.99
24.67
26.63
28.72
30.74
32.50
33.80
34.49
34.47
33.73
32.35
30.49
28.34
26.07
23.93
22.09
20.69
19.69
18.84
17.82
16.31
14.19
11.61
8.96
6.56
4.58
2.88
1.10
-1.16
-4.18
-7.96
-12.26
-16.68
-20.84
-24.42
-27.36
-29.76
-32.01
-34.58
-38.00
-42.55
-48.07
-53.88
-58.77
-61.34
-60.45
-55.65
-47.44
-37.08
-26.18
-16.14
-7.79
-1.27
3.73
7.67
10.94
13.73
16.17
18.33
20.26
22.00
23.52
24.75
25.64
26.21
26.57
26.89
27.31
27.91
28.66
29.48
30.16
30.53
30.39
29.61
28.19
26.22
23.92
21.61
19.57
17.98
16.83
15.96
15.05
13.84
12.16
10.12
7.94
5.88
4.12
2.63
1.17
-0.55
-2.78
-5.59
-8.86
-12.36
-15.79
-18.97
-21.83
-24.52
-27.27
-30.43
-34.27
-38.98
-44.43
-50.14
-55.19
-58.43
-58.77
-55.53
-48.79
-39.39
-28.69
-18.18
-9.01
-1.75
3.62
7.54
10.53
13.02
15.24
17.22
18.91
20.25
21.25
22.01
22.66
23.30
24.05
24.89
25.83
26.84
27.92
29.03
30.08
30.91
31.24
30.81
29.50
27.39
24.82
22.23
20.02
18.41
17.34
16.53
15.64
14.35
12.49
10.14
7.55
5.03
2.89
1.28
0.10
-0.93
-2.24
-4.22
-7.05
-10.61
-14.48
-18.08
-20.92
-22.84
-24.09
-25.24
-27.01
-29.94
-34.25
-39.75
-45.82
-51.56
-55.95
-57.96
-56.86
-52.38
-44.85
-35.21
-24.73
-14.70
-6.03
0.88
6.12
10.01
12.91
15.05
16.58
17.64
18.42
19.12
19.90
20.81
21.76
22.65
23.44
24.19
25.00
25.87
26.75
27.45
27.79
27.69
27.18
26.35
25.25
23.87
22.19
20.22
18.07
15.96
14.04
12.39
10.94
9.53
8.02
6.35
4.58
2.83
1.16
-0.39
-1.87
-3.39
-5.03
-6.90
-9.06
-11.51
-14.18
-16.94
-19.65
-22.23
-24.72
-27.25
-30.05
-33.33
-37.24
-41.79
-46.79
-51.69
-55.66
-57.69
-56.89
-52.84
-45.73
-36.47
-26.29
-16.46
-7.89
-1.01
4.19
8.03
10.90
13.17
15.11
16.82
18.26
19.36
20.04
20.33
20.41
20.54
20.94
21.77
23.00
24.43
25.83
26.93
27.56
27.60
27.04
25.96
24.42
22.54
20.40
18.12
15.86
13.80
12.14
10.93
10.04
9.23
8.22
6.84
5.13
3.29
1.61
0.26
-0.86
-2.06
-3.76
-6.26
-9.56
-13.32
-17.01
-20.16
-22.63
-24.61
-26.67
-29.40
-33.23
-38.25
-44.12
-50.09
-55.20
-58.42
-58.94
-56.31
-50.63
-42.58
-33.25
-23.79
-15.19
-8.03
-2.43
1.84
5.14
7.83
10.15
12.19
13.91
15.28
16.32
17.16
18.00
19.00
20.23
21.68
23.24
24.80
26.29
27.68
28.93
29.91
30.40
30.20
29.22
27.52
25.31
22.89
20.51
18.37
16.54
14.95
13.49
12.00
10.38
8.59
6.73
4.95
3.36
1.94
0.49
-1.31
-3.75
-6.92
-10.69
-14.68
-18.48
-21.77
-24.46
-26.75
-29.02
-31.73
-35.32
-40.04
-45.76
-51.98
-57.74
-61.85
-63.17
-60.94
-55.08
-46.23
-35.67
-24.87
-15.11
-7.16
-1.21
3.05
6.15
8.59
10.72
12.68
14.52
16.31
18.08
19.88
21.64
23.20
24.42
25.26
25.86
26.50
27.45
28.81
30.42
31.92
32.88
32.98
32.10
30.38
28.14
25.70
23.34
21.19
19.22
17.27
15.15
12.79
10.25
7.65
5.18
2.98
1.04
-0.72
-2.47
-4.39
-6.68
-9.42
-12.61
-16.09
-19.62
-22.92
-25.88
-28.62
-31.48
-34.98
-39.54
-45.28
-51.76
-58.05
-62.85
-64.91
-63.40
-58.20
-49.95
-39.84
-29.23
-19.26
-10.63
-3.58
2.02
6.46
10.07
13.11
15.79
18.19
20.30
22.08
23.49
24.57
25.48
26.41
27.55
28.97
30.62
32.39
34.15
35.75
37.07
37.87
37.95
37.15
35.50
33.24
30.80
28.57
26.76
25.30
23.90
22.26
20.21
17.83
15.34
12.93
10.66
8.42
5.98
3.15
-0.17
-3.91
-7.93
-12.02
-16.04
-19.86
-23.44
-26.90
-30.46
-34.49
-39.37
-45.31
-52.08
-58.90
-64.52
-67.55
-66.86
-62.08
-53.66
-42.81
-31.04
-19.69
-9.68
-1.41
5.08
9.99
13.61
16.24
18.29
20.12
22.00
23.97
25.90
27.55
28.79
29.72
30.58
31.64
33.05
34.74
36.48
37.93
38.86
39.11
38.68
37.60
36.02
34.04
31.85
29.65
27.58
25.69
23.88
21.98
19.79
17.22
14.32
11.23
8.20
5.36
2.75
0.22
-2.42
-5.32
-8.49
-11.77
-14.94
-17.84
-20.50
-23.20
-26.40
-30.58
-36.03
-42.68
-49.95
-56.82
-61.99
-64.25
-62.77
-57.41
-48.79
-38.12
-26.84
-16.19
-6.99
0.59
6.76
11.89
16.29
20.14
23.46
26.29
28.71
30.88
32.86
34.69
36.26
37.49
38.35
38.90
39.26
39.53
39.71
39.75
39.57
39.07
38.19
36.89
35.10
32.87
30.32
27.67
25.16
22.90
20.84
18.81
16.59
14.12
11.51
8.96
6.63
4.48
2.26
-0.34
-3.55
-7.36
-11.52
-15.65
-19.43
-22.76
-25.73
-28.60
-31.73
-35.48
-40.16
-45.94
-52.59
-59.41
-65.17
-68.41
-67.88
-62.99
-54.18
-42.70
-30.24
-18.40
-8.24
-0.13
6.13
10.99
14.89
18.10
20.74
22.86
24.54
25.92
27.18
28.45
29.76
31.09
32.36
33.58
34.84
36.22
37.73
39.23
40.45
41.08
40.94
39.99
38.38
36.36
34.24
32.24
30.46
28.89
27.34
25.59
23.44
20.80
17.79
14.66
11.72
9.25
7.33
5.84
4.48
2.85
0.61
-2.46
-6.32
-10.77
-15.48
-20.14
-24.60
-28.92
-33.32
-38.19
-43.84
-50.35
-57.37
-64.00
-68.93
-70.81
-68.68
-62.40
-52.77
-41.22
-29.40
-18.63
-9.63
-2.54
2.91
7.11
10.44
13.26
15.83
18.36
20.94
23.51
25.92
27.97
29.61
30.87
31.90
32.87
33.88
34.97
36.06
37.02
37.69
37.91
37.51
36.41
34.67
32.45
29.98
27.50
25.11
22.84
20.56
18.15
15.55
12.80
9.97
7.13
4.26
1.26
-1.96
-5.45
-9.14
-12.86
-16.42
-19.70
-22.72
-25.70
-28.98
-32.97
-37.98
-44.05
-50.82
-57.49
-62.89
-65.75
-65.04
-60.41
-52.24
-41.62
-30.03
-18.85
-9.11
-1.22
4.92
9.70
13.59
16.90
19.74
22.11
23.98
25.40
26.54
27.56
28.56
29.54
30.42
31.14
31.74
32.32
32.99
33.76
34.43
34.70
34.28
33.06
31.15
28.84
26.46
24.17
21.96
19.66
17.10
14.24
11.22
8.30
5.65
3.28
1.02
-1.40
-4.17
-7.34
-10.75
-14.26
-17.76
-21.23
-24.75
-28.41
-32.32
-36.67
-41.72
-47.69
-54.58
-61.91
-68.63
-73.32
-74.58
-71.53
-64.22
-53.57
-41.08
-28.41
-16.89
-7.26
0.29
5.99
10.27
13.55
16.16
18.26
19.97
21.34
22.52
23.65
24.90
26.36
28.02
29.73
31.36
32.82
34.11
35.31
36.39
37.23
37.53
36.96
35.32
32.66
29.31
25.84
22.79
20.50
18.98
17.92
16.79
15.10
12.57
9.22
5.37
1.52
-1.75
-4.01
-5.10
-5.20
-4.89
-5.04
-6.58
-10.23
-16.20
-24.05
-32.67
-40.47
-45.76
-47.25
-44.34
-37.37
-27.44
-16.13
-5.02
4.69
12.33
17.78
21.26
23.08
23.61
23.21
22.28
21.23
20.37
19.85
19.61
19.43
19.12
18.65
18.19
18.00
18.32
19.21
20.39
21.40
21.73
21.00
19.11
16.27
12.88
9.38
6.15
3.33
0.85
-1.51
-4.03
-6.92
-10.20
-13.72
-17.22
-20.47
-23.39
-26.13
-29.03
-32.49
-36.80
-42.03
-47.81
-53.44
-57.89
-60.10
-59.19
-54.81
-47.28
-37.50
-26.76
-16.30
-7.05
0.58
6.56
11.14
14.60
17.17
19.04
20.36
21.31
22.00
22.53
22.96
23.30
23.62
23.98
24.40
24.87
25.28
25.52
25.48
25.05
24.15
22.67
20.48
17.55
13.97
10.03
6.08
2.40
-0.86
-3.77
-6.50
-9.13
-11.69
-14.14
-16.51
-19.05
-22.17
-26.35
-31.85
-38.47
-45.46
-51.57
-55.43
-55.90
-52.53
-45.68
-36.42
-26.13
-16.12
-7.24
0.19
6.31
11.42
15.81
19.62
22.85
25.41
27.28
28.49
29.19
29.57
29.85
30.17
30.60
31.17
31.85
32.63
33.48
34.33
35.05
35.42
35.20
34.16
32.19
29.34
25.88
22.18
18.61
15.42
12.64
10.04
7.23
3.84
-0.30
-5.08
-10.14
-14.97
-19.14
-22.48
-25.13
-27.53
-30.24
-33.83
-38.65
-44.75
-51.77
-58.88
-64.88
-68.46
-68.56
-64.68
-57.16
-47.07
-35.89
-25.07
-15.58
-7.77
-1.43
3.97
8.94
13.70
18.19
22.14
25.22
27.24
28.26
28.55
28.50
28.51
28.83
29.56
30.62
31.81
32.92
33.74
34.12
33.95
33.12
31.59
29.33
26.44
23.17
19.90
16.98
14.56
12.51
10.43
7.82
4.41
0.25
-4.30
-8.69
-12.50
-15.58
-18.11
-20.52
-23.34
-27.00
-31.82
-37.80
-44.61
-51.47
-57.26
-60.70
-60.71
-56.83
-49.34
-39.33
-28.29
-17.71
-8.58
-1.24
4.53
9.28
13.54
17.53
21.22
24.39
26.81
28.41
29.33
29.83
30.24
30.83
31.74
32.97
34.39
35.77
36.90
37.56
37.61
37.02
35.89
34.40
32.83
31.37
30.09
28.91
27.62
26.04
24.07
21.71
19.01
15.97
12.51
8.50
3.89
-1.18
-6.33
-11.13
-15.26
-18.70
-21.75
-24.96
-28.90
-33.97
-40.21
-47.27
-54.39
-60.60
-64.81
-66.08
-63.85
-58.12
-49.52
-39.15
-28.35
-18.26
-9.64
-2.72
2.70
7.04
10.70
13.97
16.95
19.62
21.93
23.84
25.38
26.64
27.70
28.64
29.54
30.43
31.37
32.40
33.49
34.55
35.32
35.55
35.04
33.71
31.65
29.06
26.15
23.09
20.05
17.14
14.47
12.13
10.09
8.25
6.39
4.30
1.76
-1.28
-4.77
-8.51
-12.29
-15.90
-19.27
-22.46
-25.65
-29.11
-33.20
-38.23
-44.29
-51.05
-57.70
-62.94
-65.37
-63.89
-58.18
-48.89
-37.45
-25.56
-14.69
-5.70
1.30
6.67
10.98
14.72
18.10
21.07
23.42
24.97
25.69
25.81
25.67
25.67
26.05
26.83
27.89
29.04
30.11
31.04
31.77
32.17
32.08
31.33
29.80
27.55
24.78
21.72
18.60
15.57
12.73
10.14
7.82
5.72
3.70
1.58
-0.84
-3.67
-6.85
-10.17
-13.39
-16.30
-18.91
-21.35
-23.94
-27.00
-30.82
-35.55
-41.17
-47.30
-53.22
-57.85
-60.06
-58.92
-54.11
-46.04
-35.74
-24.62
-14.00
-4.86
2.36
7.73
11.71
14.87
17.68
20.37
22.86
24.89
26.18
26.66
26.50
26.05
25.69
25.65
26.00
26.64
27.44
28.25
28.94
29.35
29.32
28.70
27.41
25.48
23.04
20.32
17.53
14.84
12.35
10.08
8.05
6.20
4.43
2.61
0.54
-1.94
-4.91
-8.29
-11.84
-15.24
-18.26
-20.89
-23.38
-26.16
-29.68
-34.23
-39.76
-45.93
-51.99
-56.95
-59.73
-59.46
-55.69
-48.64
-39.18
-28.57
-18.20
-9.13
-1.92
3.42
7.32
10.39
13.15
15.86
18.51
20.91
22.82
24.20
25.21
26.14
27.29
28.78
30.49
32.17
33.59
34.60
35.23
35.53
35.48
34.95
33.74
31.77
29.17
26.28
23.49
21.03
18.85
16.63
13.98
10.63
6.57
2.09
-2.43
-6.64
-10.31
-13.41
-16.06
-18.47
-21.01
-24.11
-28.13
-33.18
-38.96
-44.70
-49.27
-51.54
-50.67
-46.44
-39.40
-30.65
-21.51
-13.18
-6.37
-1.26
2.39
4.98
6.80
8.01
8.67
8.92
9.06
9.47
10.49
12.20
14.41
16.70
18.68
20.13
21.03
21.51
21.67
21.54
21.00
19.93
18.29
16.13
13.63
10.95
8.23
5.51
2.77
-0.03
-2.87
-5.75
-8.68
-11.67
-14.71
-17.72
-20.55
-23.02
-25.04
-26.73
-28.46
-30.74
-34.06
-38.70
-44.50
-50.91
-56.91
-61.32
-62.97
-61.05
-55.42
-46.67
-36.02
-24.96
-14.85
-6.53
-0.19
4.46
7.99
11.00
13.89
16.81
19.71
22.40
24.68
26.41
27.55
28.24
28.58
28.74
28.74
28.63
28.43
28.12
27.76
27.28
26.48
25.09
22.85
19.72
15.89
11.83
8.08
5.05
2.86
1.28
-0.11
-1.81
-4.14
-7.19
-10.73
-14.40
-17.80
-20.74
-23.26
-25.77
-28.81
-32.88
-38.21
-44.50
-50.99
-56.55
-60.00
-60.41
-57.34
-50.98
-42.08
-31.79
-21.44
-12.18
-4.77
0.62
4.36
7.08
9.42
11.74
14.03
16.08
17.68
18.86
19.91
21.15
22.77
24.61
26.24
27.16
27.09
26.12
24.62
23.15
22.05
21.42
21.05
20.58
19.67
18.14
16.00
13.41
10.57
7.66
4.79
1.99
-0.70
-3.26
-5.69
-8.03
-10.43
-13.11
-16.32
-20.29
-25.10
-30.62
-36.50
-42.13
-46.76
-49.59
-50.00
-47.68
-42.72
-35.67
-27.38
-18.75
-10.51
-3.05
3.53
9.35
14.49
18.88
22.29
24.47
25.32
25.07
24.25
23.52
23.43
24.15
25.48
26.96
28.08
28.50
28.12
27.09
25.67
24.16
22.80
21.73
21.00
20.53
20.06
19.20
17.48
14.59
10.43
5.34
-0.10
-5.19
-9.36
-12.42
-14.62
-16.56
-19.02
-22.65
-27.68
-33.76
-40.00
-45.13
-47.83
-47.13
-42.76
-35.22
-25.65
-15.50
-6.09
1.72
7.61
11.78
14.63
16.63
18.10
19.17
19.81
20.01
19.78
19.29
18.81
18.60
18.85
19.51
20.40
21.21
21.66
21.66
21.24
20.54
19.66
18.55
17.06
14.99
12.24
8.81
4.92
0.87
-2.95
-6.27
-8.95
-11.14
-13.20
-15.61
-18.84
-23.16
-28.56
-34.71
-40.95
-46.36
-49.94
-50.79
-48.31
-42.52
-34.04
-24.03
-13.85
-4.72
2.61
7.98
11.67
14.21
16.11
17.68
18.99
20.01
20.66
21.03
21.36
21.92
22.89
24.24
25.70
26.90
27.51
27.43
26.75
25.67
24.34
22.75
20.76
18.16
14.88
11.00
6.79
2.57
-1.39
-4.96
-8.13
-11.00
-13.76
-16.63
-19.85
-23.69
-28.35
-33.93
-40.31
-47.03
-53.24
-57.85
-59.73
-58.10
-52.76
-44.23
-33.60
-22.26
-11.46
-2.05
5.64
11.70
16.46
20.23
23.26
25.73
27.77
29.59
31.40
33.34
35.52
37.88
40.31
42.60
44.59
46.04
46.77
46.69
45.82
44.43
42.94
41.72
40.89
40.23
39.27
37.54
34.82
31.30
27.46
23.85
20.78
18.26
16.00
13.59
10.67
7.10
2.99
-1.20
-4.75
-6.74
-6.28
-2.81
3.72
12.73
23.18
33.89
43.93
52.80
60.41
66.91
72.44
76.93
80.18
81.90
81.96
80.43
77.58
73.87
69.75
65.56
61.45
57.40
53.23
48.75
43.85
38.50
32.80
26.87
20.87
15.12
10.11
6.60
5.39
7.09
11.78
18.81
26.85
34.22
39.28
40.95
38.87
33.41
25.42
15.92
5.86
-4.05
-13.27
-21.37
-28.02
-33.03
-36.47
-38.77
-40.65
-42.83
-45.75
-49.30
-52.82
-55.37
-56.11
-54.66
-51.29
-46.82
-42.23
-38.35
-35.53
-33.74
-32.69
-32.14
-31.92
-31.99
-32.27
-32.52
-32.34
-31.36
-29.40
-26.67
-23.76
-21.42
-20.34
-20.87
-22.92
-25.99
-29.33
-32.24
-34.19
-34.94
-34.62
-33.59
-32.38
-31.53
-31.45
-32.24
-33.68
-35.24
-36.33
-36.48
-35.55
-33.72
-31.38
-28.89
-26.43
-24.01
-21.52
-18.99
-16.60
-14.65
-13.38
-12.84
-12.89
-13.27
-13.78
-14.32
-14.89
-15.49
-16.02
-16.37
-16.43
-16.21
-15.85
-15.52
-15.42
-15.68
-16.45
-17.81
-19.87
-22.57
-25.74
-28.94
-31.71
-33.64
-34.64
-34.96
-35.15
-35.82
-37.42
-39.95
-43.06
-46.01
-47.97
-48.24
-46.40
-42.40
-36.55
-29.42
-21.77
-14.37
-7.95
-3.04
0.11
1.53
1.47
0.31
-1.49
-3.47
-5.18
-6.17
-6.14
-5.02
-3.11
-1.00
0.60
1.14
0.46
-1.16
-3.20
-5.15
-6.70
-7.91
-9.03
-10.41
-12.28
-14.70
-17.59
-20.74
-23.90
-26.84
-29.40
-31.58
-33.56
-35.55
-37.68
-39.77
-41.26
-41.39
-39.45
-35.14
-28.67
-20.70
-12.11
-3.69
4.01
10.73
16.35
20.80
23.97
25.81
26.41
26.00
25.04
24.02
23.35
23.30
23.88
24.95
26.25
27.52
28.55
29.21
29.44
29.19
28.40
26.95
24.73
21.75
18.24
14.69
11.65
9.55
8.36
7.61
6.42
3.93
-0.35
-6.38
-13.54
-20.83
-27.17
-31.56
-33.26
-31.95
-27.83
-21.60
-14.31
-7.08
-0.84
3.94
7.26
9.44
10.97
12.28
13.71
15.42
17.36
19.35
21.02
21.96
21.88
20.69
18.58
16.04
13.62
11.86
11.05
11.16
11.90
12.74
13.14
12.69
11.20
8.73
5.55
1.97
-1.75
-5.46
-9.15
-12.90
-16.82
-20.92
-25.02
-28.78
-31.64
-33.00
-32.36
-29.54
-24.73
-18.48
-11.61
-4.87
1.17
6.36
10.86
14.99
19.02
22.89
26.24
28.45
29.01
27.73
24.88
21.14
17.33
14.11
11.91
10.90
11.00
12.05
13.67
15.30
16.21
15.72
13.39
9.22
3.67
-2.52
-8.55
-13.81
-18.00
-21.15
-23.67
-26.11
-29.09
-33.02
-37.81
-42.79
-46.76
-48.39
-46.70
-41.49
-33.43
-23.79
-14.00
-5.10
2.51
8.97
14.60
19.56
23.65
26.50
27.82
27.70
26.62
25.24
24.09
23.44
23.26
23.43
23.87
24.59
25.58
26.70
27.61
27.85
26.98
24.79
21.38
17.14
12.62
8.41
4.91
2.28
0.30
-1.52
-3.82
-7.18
-11.92
-17.94
-24.58
-30.79
-35.30
-37.02
-35.30
-30.24
-22.60
-13.58
-4.47
3.74
10.57
15.95
20.08
23.17
25.36
26.75
27.45
27.70
27.73
27.72
27.72
27.66
27.45
27.03
26.47
25.87
25.34
24.86
24.28
23.39
21.92
19.75
16.91
13.64
10.27
7.21
4.69
2.74
1.15
-0.46
-2.53
-5.43
-9.40
-14.44
-20.18
-25.87
-30.48
-32.88
-32.27
-28.41
-21.74
-13.23
-4.08
4.62
12.17
18.18
22.63
25.62
27.27
27.77
27.23
25.91
24.06
22.05
20.19
18.72
17.76
17.28
17.15
17.14
17.12
16.93
16.51
15.76
14.53
12.63
9.92
6.44
2.41
-1.78
-5.72
-9.14
-12.00
-14.51
-17.05
-20.03
-23.74
-28.16
-32.95
-37.39
-40.58
-41.66
-40.12
-36.01
-29.94
-22.93
-16.00
-9.84
-4.62
-0.11
4.11
8.29
12.34
15.83
18.27
19.34
19.11
18.01
16.66
15.55
14.92
14.69
14.67
14.68
14.72
14.92
15.42
16.18
16.97
17.36
16.85
15.15
12.28
8.59
4.61
0.89
-2.26
-4.84
-7.11
-9.36
-11.78
-14.29
-16.62
-18.42
-19.37
-19.31
-18.20
-16.10
-13.10
-9.30
-4.84
0.11
5.33
10.52
15.32
19.38
22.35
23.91
23.87
22.28
19.53
16.33
13.60
12.12
12.35
14.14
16.86
19.62
21.65
22.52
22.17
20.79
18.64
15.90
12.77
9.45
6.25
3.46
1.31
-0.22
-1.39
-2.65
-4.52
-7.41
-11.50
-16.63
-22.24
-27.43
-31.16
-32.57
-31.19
-27.16
-21.09
-13.90
-6.58
0.10
5.63
9.82
12.69
14.43
15.24
15.37
14.99
14.26
13.33
12.39
11.59
11.04
10.77
10.67
10.60
10.44
10.12
9.67
9.16
8.53
7.71
6.52
4.81
2.46
-0.55
-4.18
-8.28
-12.67
-17.11
-21.39
-25.41
-29.18
-32.78
-36.13
-38.86
-40.31
-39.73
-36.63
-31.13
-23.96
-16.23
-9.02
-3.01
1.64
5.19
7.97
10.28
12.24
13.90
15.34
16.71
18.19
19.88
21.68
23.37
24.59
25.01
24.39
22.69
20.02
16.65
12.86
8.88
4.91
1.14
-2.24
-4.95
-6.75
-7.55
-7.48
-6.91
-6.40
-6.51
-7.73
-10.30
-14.13
-18.72
-23.20
-26.43
-27.31
-25.12
-19.80
-12.10
-3.27
5.28
12.51
17.97
21.84
24.52
26.34
27.28
27.13
25.67
22.99
19.63
16.41
14.09
13.02
13.05
13.67
14.25
14.44
14.19
13.67
13.08
12.42
11.47
9.95
7.64
4.59
1.06
-2.56
-5.96
-8.90
-11.40
-13.58
-15.68
-17.96
-20.63
-23.79
-27.33
-30.89
-33.89
-35.65
-35.59
-33.40
-29.21
-23.52
-17.13
-10.86
-5.32
-0.79
2.79
5.64
7.97
9.81
11.03
11.48
11.16
10.29
9.23
8.36
7.86
7.65
7.48
7.11
6.43
5.51
4.47
3.36
2.07
0.39
-1.86
-4.70
-7.90
-11.09
-13.95
-16.32
-18.37
-20.43
-22.96
-26.24
-30.28
-34.79
-39.19
-42.76
-44.70
-44.42
-41.56
-36.17
-28.75
-20.17
-11.46
-3.57
2.93
7.89
11.59
14.49
16.97
19.20
21.17
22.74
23.83
24.50
24.92
25.25
25.54
25.70
25.55
24.94
23.82
22.28
20.54
18.81
17.20
15.74
14.28
12.68
10.79
8.59
6.18
3.68
1.20
-1.32
-3.95
-6.83
-10.01
-13.40
-16.79
-19.90
-22.37
-23.84
-24.01
-22.66
-19.78
-15.58
-10.46
-4.89
0.70
6.09
11.13
15.76
19.82
23.03
25.04
25.59
24.68
22.62
20.01
17.55
15.81
15.10
15.42
16.47
17.85
19.12
19.94
19.98
19.06
17.06
13.99
10.01
5.42
0.63
-3.84
-7.52
-10.08
-11.48
-11.97
-12.12
-12.59
-13.96
-16.52
-20.13
-24.26
-28.18
-31.14
-32.57
-32.19
-30.03
-26.30
-21.45
-15.95
-10.27
-4.81
0.17
4.54
8.26
11.34
13.78
15.53
16.51
16.70
16.20
15.24
14.16
13.35
13.08
13.47
14.36
15.48
16.46
17.02
17.04
16.52
15.54
14.16
12.40
10.24
7.71
4.90
2.02
-0.72
-3.18
-5.34
-7.32
-9.33
-11.61
-14.29
-17.44
-21.02
-24.84
-28.59
-31.77
-33.77
-34.04
-32.22
-28.35
-22.87
-16.56
-10.28
-4.74
-0.29
3.08
5.58
7.49
9.04
10.30
11.24
11.78
11.87
11.54
10.91
10.21
9.74
9.77
10.43
11.65
13.15
14.46
15.14
14.85
13.50
11.26
8.55
5.88
3.76
2.50
2.08
2.12
2.05
1.33
-0.33
-2.85
-5.86
-8.96
-11.80
-14.31
-16.53
-18.63
-20.80
-23.19
-25.90
-28.83
-31.67
-33.81
-34.52
-33.16
-29.56
-24.05
-17.47
-10.86
-5.04
-0.42
3.05
5.73
8.00
10.09
12.00
13.59
14.74
15.38
15.53
15.31
14.86
14.34
13.91
13.69
13.73
13.92
14.12
14.14
13.85
13.25
12.46
11.58
10.66
9.60
8.25
6.44
4.13
1.46
-1.33
-3.96
-6.22
-8.02
-9.45
-10.68
-11.99
-13.70
-16.06
-19.22
-23.13
-27.44
-31.55
-34.69
-36.10
-35.25
-32.10
-27.07
-20.99
-14.88
-9.54
-5.38
-2.31
0.10
2.44
5.09
8.11
11.20
13.92
15.96
17.25
17.95
18.30
18.43
18.26
17.68
16.71
15.66
15.07
15.48
17.15
19.81
22.84
25.50
27.22
27.83
27.45
26.25
24.28
21.41
17.50
12.55
6.89
1.11
-4.05
-8.10
-10.81
-12.36
-13.15
-13.65
-14.18
-14.78
-15.29
-15.43
-14.97
-13.80
-11.98
-9.67
-6.95
-3.86
-0.36
3.60
8.00
12.78
17.82
22.95
27.86
32.16
35.45
37.43
37.96
37.05
34.72
30.87
25.40
18.34
10.08
1.43
-6.59
-13.11
-17.86
-21.32
-24.45
-28.24
-33.23
-39.29
-45.69
-51.58
-56.30
-59.72
-62.24
-64.71
-68.21
-73.81
-82.48
-94.69
-110.19
-127.59
-144.43
-157.53
-163.94
-161.80
-151.14
-133.78
-112.57
-90.44
-69.28
-49.59
-30.74
-11.55
8.90
31.10
55.24
81.64
110.89
143.39
178.44
213.48
244.12
265.24
272.63
264.46
241.65
207.14
164.77
118.44
72.00
29.53
-4.72
-27.05
-35.66
-31.49
-18.18
-0.38
18.08
35.64
53.00
71.75
92.73
115.05
136.33
153.95
166.54
174.82
181.28
188.73
198.66
210.13
220.00
224.35
220.22
206.80
185.38
158.22
127.18
93.12
56.20
17.10
-22.16
-58.25
-87.62
-108.01
-119.45
-124.09
-125.06
-124.98
-125.06
-125.02
-123.86
-120.85
-116.17
-110.94
-106.61
-104.29
-104.26
-105.96
-108.29
-110.17
-110.93
-110.52
-109.48
-108.70
-109.21
-111.75
-116.58
-123.25
-130.61
-137.04
-140.82
-140.71
-136.34
-128.35
-118.15
-107.30
-96.99
-87.65
-79.09
-70.86
-62.77
-55.07
-48.32
-42.97
-39.01
-35.92
-32.99
-29.67
-25.89
-22.01
-18.46
-15.46
-12.84
-10.25
-7.48
-4.65
-2.26
-0.94
-1.13
-2.80
-5.53
-8.59
-11.31
-13.21
-14.20
-14.48
-14.49
-14.70
-15.43
-16.70
-18.19
-19.30
-19.36
-17.75
-14.09
-8.31
-0.63
8.52
18.50
28.63
38.18
46.45
52.80
56.74
58.03
56.71
53.23
48.37
43.17
38.73
35.87
34.90
35.49
36.80
37.79
37.67
36.17
33.59
30.58
27.77
25.47
23.63
21.95
20.12
17.93
15.31
12.09
7.94
2.41
-4.83
-13.65
-23.31
-32.43
-39.32
-42.46
-40.91
-34.56
-24.22
-11.36
2.24
14.87
25.19
32.40
36.34
37.40
36.34
34.07
31.41
28.88
26.69
24.82
23.19
21.66
20.10
18.30
15.90
12.51
7.83
1.82
-5.22
-12.73
-20.07
-26.74
-32.47
-37.21
-41.03
-44.02
-46.24
-47.84
-49.17
-50.88
-53.68
-58.06
-63.87
-70.10
-75.07
-76.96
-74.53
-67.54
-56.88
-44.12
-30.92
-18.45
-7.20
2.82
11.66
19.18
24.98
28.61
29.95
29.44
27.94
26.51
25.93
26.49
27.91
29.58
30.86
31.37
30.98
29.80
28.04
25.80
23.10
19.83
15.88
11.18
5.77
-0.20
-6.50
-12.85
-19.00
-24.56
-29.06
-31.85
-32.24
-29.76
-24.41
-16.84
-8.16
0.29
7.45
12.82
16.41
18.53
19.45
19.21
17.69
14.76
10.64
5.97
1.72
-1.16
-2.07
-1.02
1.35
4.07
6.19
7.13
6.82
5.67
4.29
3.17
2.49
2.11
1.67
0.79
-0.86
-3.54
-7.39
-12.36
-18.00
-23.25
-26.62
-26.41
-21.40
-11.33
2.86
19.28
35.56
49.59
60.00
66.40
69.24
69.58
68.70
67.73
67.39
67.77
68.41
68.53
67.36
64.47
59.93
54.30
48.31
42.68
37.95
34.42
32.21
31.25
31.31
31.95
32.61
32.70
31.80
29.69
26.30
21.61
15.51
7.87
-1.34
-11.74
-22.39
-31.85
-38.49
-41.08
-39.13
-33.15
-24.49
-14.88
-5.95
1.13
5.81
8.05
8.13
6.54
3.92
1.01
-1.43
-2.77
-2.77
-1.64
0.05
1.61
2.58
2.77
2.36
1.61
0.71
-0.30
-1.47
-2.89
-4.58
-6.52
-8.63
-10.90
-13.23
-15.55
-17.73
-19.77
-21.82
-24.19
-27.22
-31.01
-35.24
-39.08
-41.38
-41.11
-37.71
-31.38
-23.00
-13.81
-5.03
2.52
8.47
12.90
16.08
18.30
19.78
20.71
21.22
21.43
21.40
21.21
20.91
20.58
20.26
19.90
19.38
18.51
17.21
15.51
13.67
11.95
10.53
9.32
8.04
6.31
3.85
0.60
-3.31
-7.72
-12.51
-17.60
-22.79
-27.64
-31.35
-33.04
-31.99
-28.09
-21.89
-14.48
-7.00
-0.31
5.28
9.89
13.80
17.11
19.69
21.23
21.51
20.55
18.65
16.26
13.76
11.42
9.39
7.76
6.62
6.03
5.94
6.13
6.25
5.83
4.58
2.38
-0.53
-3.74
-6.81
-9.47
-11.74
-13.87
-16.22
-19.12
-22.75
-27.10
-31.92
-36.64
-40.47
-42.48
-41.82
-38.06
-31.43
-22.75
-13.23
-4.07
3.91
10.43
15.57
19.61
22.70
24.84
25.90
25.78
24.54
22.41
19.87
17.42
15.62
14.87
15.39
17.06
19.56
22.31
24.64
25.96
25.75
23.72
19.81
14.24
7.53
0.39
-6.46
-12.52
-17.67
-22.23
-26.69
-31.47
-36.61
-41.69
-45.90
-48.30
-48.22
-45.38
-40.11
-33.16
-25.53
-18.21
-11.95
-6.99
-3.12
0.19
3.49
7.08
10.88
14.48
17.34
19.03
19.45
18.81
17.50
15.97
14.51
13.27
12.28
11.58
11.17
11.03
11.05
11.04
10.71
9.80
8.09
5.53
2.18
-1.74
-5.98
-10.26
-14.34
-18.02
-21.13
-23.46
-24.69
-24.40
-22.22
-18.06
-12.25
-5.71
0.44
5.15
7.91
8.86
8.69
8.22
8.06
8.33
8.74
8.87
8.45
7.46
6.14
4.88
4.00
3.76
4.21
5.25
6.61
7.94
8.82
8.93
8.09
6.30
3.74
0.65
-2.73
-6.22
-9.63
-12.81
-15.71
-18.43
-21.24
-24.39
-27.89
-31.29
-33.69
-33.99
-31.33
-25.46
-16.99
-7.18
2.54
10.97
17.48
21.99
24.73
26.04
26.16
25.27
23.56
21.28
18.79
16.37
14.23
12.34
10.61
8.88
7.10
5.25
3.36
1.38
-0.81
-3.31
-6.15
-9.26
-12.40
-15.33
-17.92
-20.22
-22.48
-25.06
-28.30
-32.32
-36.91
-41.46
-45.13
-46.96
-46.15
-42.35
-35.73
-27.04
-17.36
-7.83
0.65
7.59
12.94
16.94
19.94
22.24
24.00
25.29
26.18
26.77
27.12
27.23
27.03
26.37
25.19
23.57
21.72
19.92
18.32
16.87
15.31
13.31
10.69
7.49
4.02
0.59
-2.55
-5.40
-8.24
-11.42
-15.28
-19.91
-25.03
-29.97
-33.82
-35.60
-34.66
-30.83
-24.52
-16.60
-8.13
-0.05
6.96
12.57
16.69
19.39
20.83
21.26
20.91
20.04
18.82
17.43
16.01
14.73
13.74
13.14
12.87
12.66
12.14
11.02
9.18
6.78
4.13
1.53
-0.86
-3.07
-5.30
-7.77
-10.69
-14.20
-18.31
-22.98
-28.00
-32.97
-37.22
-39.91
-40.19
-37.55
-32.03
-24.24
-15.29
-6.39
1.48
7.79
12.53
16.02
18.67
20.72
22.19
22.90
22.70
21.57
19.66
17.38
15.21
13.52
12.54
12.23
12.31
12.36
12.03
11.08
9.52
7.51
5.29
3.03
0.76
-1.65
-4.38
-7.64
-11.61
-16.37
-21.86
-27.79
-33.58
-38.45
-41.49
-42.00
-39.70
-34.88
-28.28
-20.92
-13.75
-7.42
-2.31
1.52
4.13
5.60
6.03
5.54
4.28
2.42
0.09
-2.64
-5.76
-9.33
-13.37
-17.79
-22.37
-26.81
-30.79
-34.08
-36.69
-38.83
-40.96
-43.60
-47.19
-51.85
-57.29
-62.72
-67.09
-69.47
-69.17
-65.90
-59.76
-51.29
-41.39
-31.07
-21.06
-11.52
-2.08
7.88
18.78
30.35
41.52
50.72
56.52
58.67
57.97
55.89
53.91
53.16
54.37
58.04
64.48
73.73
85.84
99.84
113.30
122.84
125.53
120.20
107.76
90.66
71.83
55.12
43.00
35.49
30.58
25.83
19.97
13.13
6.11
-0.51
-4.95
-6.88
-8.33
-12.87
-22.96
-37.79
-53.43
-64.36
-65.05
-48.07
-8.14
54.94
135.62
224.05
309.21
381.41
434.39
448.66
415.77
345.77
263.31
191.33
138.89
103.80
80.15
63.43
51.71
47.22
52.14
63.65
76.69
86.30
90.65
90.68
88.67
86.27
85.91
88.07
90.02
90.01
85.71
76.75
64.64
51.50
38.90
28.74
21.78
17.19
13.35
8.57
2.57
-3.94
-10.10
-15.68
-20.51
-24.94
-29.75
-35.48
-42.32
-49.58
-56.31
-62.06
-67.46
-73.83
-82.84
-96.01
-114.05
-137.09
-164.49
-195.56
-230.06
-268.40
-311.63
-361.26
-419.01
-486.06
-561.93
-642.99
-721.72
-787.54
-829.56
-839.96
-816.72
-764.38
-692.38
-612.05
-533.12
-461.66
-399.64
-345.95
-297.97
-253.13
-209.79
-167.64
-127.42
-90.40
-57.54
-28.82
-3.07
21.41
46.30
72.56
100.48
130.20
162.05
196.90
235.96
280.31
330.56
386.79
448.85
516.35
588.07
660.83
728.76
783.72
817.22
823.22
800.32
752.20
685.96
609.24
527.89
445.08
362.19
279.98
199.77
123.00
50.31
-19.23
-88.07
-159.48
-236.42
-320.47
-410.84
-503.50
-591.37
-665.47
-717.41
-742.20
-740.07
-716.40
-679.39
-636.99
-594.36
-553.33
-513.60
-474.54
-436.57
-400.93
-368.76
-339.94
-313.04
-285.95
-257.26
-226.87
-195.92
-166.22
-139.06
-114.67
-92.19
-70.23
-47.64
-24.10
-0.18
23.15
45.05
65.50
85.17
105.14
126.16
148.23
170.62
192.21
212.13
230.22
247.24
264.56
283.83
306.58
333.61
364.36
396.35
425.27
446.07
454.93
451.20
437.90
420.60
404.68
392.61
382.69
370.00
348.96
316.28
272.67
222.64
172.88
130.17
99.66
83.96
82.78
92.90
108.51
122.44
127.71
119.41
96.12
60.26
17.16
-26.14
-62.89
-87.87
-97.93
-92.27
-72.74
-44.22
-14.34
8.06
15.78
5.69
-19.93
-53.95
-87.02
-110.72
-120.21
-114.82
-97.11
-70.30
-38.16
-5.08
23.68
42.67
47.67
37.23
13.32
-19.27
-52.68
-80.73
-100.43
-111.65
-114.96
-109.78
-94.23
-66.40
-25.98
28.62
94.39
163.25
224.04
266.91
286.99
285.27
267.30
240.91
220.23
215.06
228.13
255.94
293.21
336.41
384.17
435.16
486.02
539.18
592.40
638.33
668.01
677.29
669.62
653.58
637.43
570.38
426.31
212.54
-32.24
-264.10
-455.09
-596.59
-692.75
-753.91
-791.76
-807.25
-800.21
-774.34
-736.58
-693.73
-650.78
-610.43
-573.81
-540.99
-504.35
-457.56
-397.92
-332.06
-266.88
-207.86
-158.36
-120.05
-93.48
-74.00
-57.83
-43.83
-33.71
-29.43
-32.24
-42.08
-57.98
-78.42
-99.59
-118.39
-133.46
-145.12
-153.97
-160.47
-164.68
-166.40
-165.40
-160.79
-152.19
-139.98
-125.35
-109.45
-93.39
-78.04
-64.04
-51.88
-41.90
-34.36
-29.39
-27.04
-27.04
-29.05
-32.66
-37.44
-42.95
-48.77
-54.51
-59.85
-64.54
-68.33
-71.08
-72.73
-73.34
-73.00
-71.87
-70.08
-67.72
-64.84
-61.44
-57.53
-53.16
-48.45
-43.54
-38.63
-33.84
-29.17
-24.50
-19.63
-14.37
-8.65
-2.55
3.67
9.72
15.43
20.85
26.31
32.26
39.11
47.04
55.85
65.05
74.08
82.58
90.61
98.66
107.50
117.82
129.95
143.64
158.28
173.09
187.54
201.54
215.45
229.96
245.99
264.58
286.72
312.75
341.74
370.98
396.22
412.76
417.03
407.99
387.54
359.59
328.57
297.87
269.18
242.84
218.66
196.67
177.26
160.79
147.11
135.44
124.74
114.21
103.67
93.50
84.38
76.83
70.84
65.89
61.17
55.83
49.35
41.64
33.08
24.34
16.10
8.90
2.92
-1.95
-6.01
-9.62
-13.00
-16.21
-19.15
-21.63
-23.43
-24.47
-24.80
-24.64
-24.31
-24.19
-24.58
-25.58
-27.01
-28.40
-29.13
-28.59
-26.51
-22.99
-18.63
-14.29
-10.89
-9.12
-9.25
-11.12
-14.18
-17.62
-20.57
-22.28
-22.35
-20.93
-18.67
-16.55
-15.42
-15.58
-16.69
-17.97
-18.65
-18.40
-17.50
-16.63
-16.43
-17.16
-18.57
-20.03
-20.90
-20.83
-19.87
-18.44
-17.10
-16.29
-16.19
-16.65
-17.33
-17.89
-18.23
-18.48
-18.92
-19.66
-20.52
-20.95
-20.39
-18.54
-15.60
-12.17
-9.02
-6.70
-5.30
-4.56
-4.06
-3.51
-2.88
-2.37
-2.23
-2.59
-3.40
-4.44
-5.48
-6.37
-7.09
-7.77
-8.58
-9.61
-10.79
-11.93
-12.71
-13.01
-12.93
-12.80
-13.08
-14.06
-15.70
-17.70
-19.56
-20.92
-21.58
-21.62
-21.16
-20.31
-19.15
-17.73
-16.19
-14.71
-13.43
-12.39
-11.43
-10.33
-8.94
-7.29
-5.62
-4.27
-3.46
-3.21
-3.30
-3.45
-3.43
-3.26
-3.17
-3.47
-4.35
-5.73
-7.31
-8.64
-9.38
-9.40
-8.90
-8.28
-8.03
-8.44
-9.59
-11.21
-12.83
-13.94
-14.25
-13.75
-12.73
-11.56
-10.52
-9.63
-8.70
-7.46
-5.77
-3.71
-1.58
0.29
1.73
2.76
3.55
4.23
4.77
5.02
4.87
4.38
3.84
3.59
3.83
4.41
4.85
4.60
3.28
0.96
-1.88
-4.64
-6.85
-8.36
-9.29
-9.88
-10.33
-10.75
-11.14
-11.53
-11.92
-12.35
-12.81
-13.20
-13.38
-13.19
-12.48
-11.20
-9.39
-7.16
-4.73
-2.37
-0.38
0.97
1.54
1.26
0.33
-1.04
-2.54
-3.93
-5.06
-5.88
-6.38
-6.53
-6.33
-5.82
-5.07
-4.21
-3.27
-2.23
-1.13
-0.07
0.77
1.20
1.06
0.26
-1.17
-2.94
-4.78
-6.45
-7.88
-9.01
-9.79
-10.06
-9.73
-8.86
-7.43
-5.80
-4.52
-4.12
-4.77
-6.12
-7.50
-8.43
-8.92
-8.68
-7.92
-7.24
-7.17
-7.82
-8.69
-8.83
-7.40
-3.95
3.34
15.43
32.04
51.75
72.66
93.18
112.25
128.98
142.49
154.86
167.51
180.59
193.07
203.64
212.03
219.67
229.30
244.37
271.41
313.39
367.32
424.36
472.96
503.70
512.72
502.01
453.64
362.32
235.38
91.82
-46.30
-163.42
-253.12
-315.68
-355.85
-379.94
-390.83
-391.28
-384.12
-372.71
-360.14
-348.39
-338.60
-332.50
-331.27
-332.79
-334.40
-333.62
-328.89
-320.94
-311.89
-299.34
-284.28
-268.81
-254.22
-241.91
-235.79
-235.87
-241.58
-251.05
-260.73
-267.81
-267.59
-259.54
-247.67
-236.48
-228.48
-222.67
-214.26
-197.46
-170.06
-134.68
-97.87
-65.96
-38.74
-11.41
21.32
61.97
108.94
157.27
202.11
240.48
272.74
305.02
343.22
388.95
438.98
487.38
528.02
557.17
573.94
558.66
502.91
411.90
302.70
194.79
100.85
24.72
-35.13
-81.85
-118.10
-142.16
-150.86
-145.83
-130.86
-110.37
-88.46
-68.45
-53.14
-44.77
-42.08
-42.99
-45.62
-50.73
-57.57
-64.84
-71.41
-76.86
-81.48
-84.09
-83.67
-80.12
-74.23
-67.31
-61.03
-56.69
-54.84
-55.10
-55.65
-54.53
-50.86
-44.93
-37.76
-30.82
-25.38
-21.99
-20.44
-19.73
-18.80
-17.12
-14.70
-11.77
-8.81
-6.16
-4.03
-2.49
-1.50
-0.96
-0.78
-0.81
-0.82
-0.75
-0.60
-0.49
-0.43
-0.38
-0.27
-0.09
0.04
-0.01
-0.43
-1.25
-2.40
-3.72
-5.04
-6.25
-7.37
-8.40
-9.30
-9.96
-10.18
-9.84
-8.90
-7.47
-5.81
-4.19
-2.88
-2.06
-1.83
-2.18
-3.01
-4.13
-5.28
-6.22
-6.74
-6.81
-6.52
-6.09
-5.75
-5.65
-5.82
-6.23
-6.76
-7.32
-7.83
-8.24
-8.57
-8.80
-8.98
-9.15
-9.37
-9.61
-9.77
-9.65
-8.98
-7.49
-5.00
-1.48
3.01
8.35
14.44
21.11
28.13
35.04
41.15
45.74
48.25
48.48
46.64
43.14
38.31
32.28
25.04
16.77
8.04
-0.04
-6.20
-9.51
-9.84
-8.01
-5.56
-4.13
-4.81
-7.76
-12.18
-16.73
-20.10
-21.57
-21.33
-20.26
-19.53
-19.86
-21.08
-21.94
-20.52
-14.72
-3.00
14.97
37.89
62.64
84.57
98.22
98.69
83.39
53.38
13.87
-27.09
-61.13
-82.45
-89.68
-85.78
-75.92
-64.84
-54.79
-45.40
-35.00
-22.51
-8.51
5.08
16.25
24.23
29.90
35.00
40.80
47.16
52.57
54.90
52.70
45.98
36.36
26.41
18.67
14.68
14.59
17.26
20.95
24.16
26.19
27.27
28.16
29.57
31.72
34.20
36.28
37.15
36.23
33.21
27.94
20.41
10.79
-0.52
-12.86
-25.37
-37.18
-47.53
-55.88
-61.89
-65.56
-67.16
-67.28
-66.63
-65.91
-65.52
-65.47
-65.44
-64.95
-63.56
-60.96
-57.05
-51.85
-45.55
-38.54
-31.44
-24.95
-19.68
-15.90
-13.44
-11.74
-10.06
-7.86
-4.97
-1.66
1.56
4.27
6.36
8.17
10.26
13.09
16.69
20.42
23.07
23.28
20.05
13.21
3.59
-7.13
-16.89
-23.86
-26.98
-26.18
-22.28
-16.67
-10.89
-6.28
-3.84
-4.16
-7.35
-12.91
-19.75
-26.29
-30.89
-32.40
-30.58
-26.04
-19.82
-12.84
-5.57
2.01
9.79
17.26
23.39
27.03
27.50
24.97
20.47
15.37
10.76
7.08
4.12
1.44
-1.32
-4.14
-6.66
-8.47
-9.33
-9.31
-8.80
-8.36
-8.50
-9.49
-11.27
-13.51
-15.66
-17.24
-17.93
-17.62
-16.35
-14.14
-10.91
-6.52
-0.94
5.43
11.76
16.98
20.13
20.91
19.81
17.93
16.41
15.95
16.47
17.37
17.88
17.54
16.33
14.51
12.33
9.88
7.13
4.08
0.98
-1.78
-3.79
-4.88
-5.10
-4.64
-3.64
-2.11
0.01
2.68
5.64
8.48
10.79
12.41
13.39
13.93
14.19
14.17
13.76
12.87
11.63
10.38
9.59
9.61
10.48
11.88
13.25
13.96
13.62
12.18
9.90
7.23
4.72
2.79
1.76
1.69
2.36
3.32
3.92
3.56
1.86
-1.11
-4.84
-8.61
-11.76
-13.99
-15.42
-16.38
-17.18
-17.79
-17.91
-17.09
-15.07
-11.95
-8.22
-4.54
-1.43
0.88
2.51
3.74
4.82
5.77
6.41
6.46
5.84
4.64
3.17
1.71
0.35
-1.05
-2.73
-4.85
-7.32
-9.77
-11.69
-12.67
-12.59
-11.59
-10.03
-8.29
-6.62
-5.16
-3.92
-2.88
-2.08
-1.54
-1.33
-1.43
-1.67
-1.72
-1.12
0.55
3.53
7.73
12.76
18.07
23.18
27.85
32.03
35.84
39.29
42.23
44.26
44.96
44.10
41.80
38.61
35.31
32.71
31.26
30.89
31.01
30.84
29.71
27.37
24.02
20.03
15.67
10.93
5.60
-0.44
-7.00
-13.62
-19.79
-25.17
-29.74
-33.60
-36.76
-38.97
-39.96
-39.68
-38.53
-37.31
-36.78
-37.27
-38.46
-39.58
-39.85
-38.90
-36.92
-34.45
-31.98
-29.69
-27.45
-24.99
-22.18
-19.06
-15.83
-12.63
-9.47
-6.22
-2.80
0.72
4.11
6.97
8.93
9.82
9.72
8.90
7.72
6.46
5.24
3.96
2.52
0.82
-0.98
-2.55
-3.37
-2.96
-1.05
2.33
6.72
11.31
15.19
17.69
18.64
18.57
18.46
19.36
21.94
26.17
31.46
36.93
41.82
45.63
48.12
49.17
48.63
46.44
42.70
37.82
32.43
27.26
22.83
19.29
16.45
13.88
11.11
7.92
4.41
1.03
-1.65
-3.19
-3.56
-3.18
-2.74
-2.82
-3.67
-5.06
-6.49
-7.54
-8.12
-8.44
-8.92
-9.81
-11.06
-12.34
-13.23
-13.45
-12.98
-12.04
-10.90
-9.77
-8.71
-7.68
-6.61
-5.41
-4.07
-2.57
-1.01
0.49
1.75
2.63
3.04
3.03
2.81
2.67
2.92
3.80
5.35
7.40
9.62
11.56
12.87
13.36
13.05
12.18
11.07
9.99
9.13
8.58
8.43
8.79
9.81
11.63
14.33
17.89
22.19
27.07
32.36
37.89
43.38
48.41
52.37
54.55
54.33
51.37
45.79
38.16
29.40
20.49
12.22
5.01
-1.07
-6.12
-10.10
-12.50
-12.49
-9.09
-1.92
8.14
18.72
26.10
25.90
13.94
-12.40
-53.00
-103.82
-156.90
-201.66
-227.53
-227.00
-197.72
-143.16
-71.53
6.39
79.58
138.70
177.49
193.58
188.75
168.48
140.43
112.21
89.26
73.55
63.92
57.55
51.70
44.49
35.08
23.10
8.16
-9.89
-30.55
-52.14
-71.95
-86.79
-94.21
-93.44
-85.83
-74.51
-63.36
-55.75
-53.60
-57.08
-64.97
-75.53
-87.16
-99.00
-110.90
-123.05
-135.59
-148.22
-160.21
-170.72
-179.06
-184.88
-188.16
-189.09
-187.74
-183.82
-176.57
-164.75
-147.13
-122.75
-91.19
-52.50
-7.06
44.33
99.87
155.92
206.85
245.56
265.33
262.06
235.58
189.31
128.36
57.46
-19.78
-99.83
-177.48
-245.01
-293.59
-316.36
-311.53
-283.31
-240.01
-190.41
-140.58
-92.96
-47.61
-4.57
34.51
66.72
89.47
102.33
107.56
109.24
111.42
116.55
124.83
134.45
142.82
147.80
148.49
145.44
140.16
134.30
128.88
123.95
118.81
112.73
105.59
98.07
91.21
85.75
81.59
77.80
73.15
66.81
58.86
50.12
41.74
34.58
28.90
24.50
20.98
18.06
15.66
13.79
12.41
11.31
10.24
9.04
7.75
6.55
5.65
5.07
4.66
4.16
3.35
2.20
0.81
-0.64
-1.98
-3.08
-3.90
-4.40
-4.61
-4.59
-4.51
-4.58
-4.97
-5.72
-6.69
-7.64
-8.31
-8.62
-8.68
-8.79
-9.25
-10.22
-11.69
-13.44
-15.21
-16.76
-17.94
-18.67
-18.85
-18.36
-17.12
-15.17
-12.72
-10.10
-7.63
-5.48
-3.63
-1.88
-0.01
2.06
4.15
6.00
7.33
7.99
8.08
7.84
7.56
7.40
7.42
7.58
7.83
8.21
8.76
9.48
10.25
10.81
10.87
10.21
8.86
7.03
5.00
3.05
