1520868246.00
64.000000
-0.00
-0.00
-0.00
-0.00
-0.00
-0.00
-0.00
-0.00
-0.00
-0.00
0.00
0.01
0.01
-0.00
-0.03
-0.05
-0.05
0.00
0.13
0.36
0.66
1.01
1.37
1.72
2.06
2.40
2.79
3.24
3.80
4.42
5.06
5.66
6.20
6.68
7.15
7.68
8.31
9.14
10.09
11.04
11.88
12.56
13.14
13.76
14.65
15.96
17.91
20.32
22.90
25.38
27.58
29.57
31.68
34.32
37.81
42.54
48.15
54.10
59.83
64.97
69.58
74.14
79.34
85.71
93.76
103.00
112.62
121.73
129.77
136.75
143.30
150.75
157.77
166.64
177.95
191.79
206.97
220.57
228.25
225.36
208.53
176.87
132.76
80.05
23.07
-34.94
-92.44
-149.16
-205.23
-260.37
-313.74
-363.87
-409.83
-450.91
-486.50
-515.74
-537.23
-549.22
-549.96
-538.37
-514.21
-478.67
-433.88
-382.45
-327.02
-269.84
-212.63
-156.66
-102.95
-52.37
-5.90
35.58
71.43
101.35
125.50
144.38
158.69
169.15
176.37
180.75
182.57
182.07
179.51
175.23
169.65
163.18
156.15
148.81
141.30
133.69
126.02
118.33
110.69
103.16
95.80
88.68
81.83
75.25
68.95
62.95
57.25
51.86
46.78
42.03
37.59
33.45
29.61
26.07
22.81
19.83
17.11
14.67
12.48
10.54
8.83
7.35
6.07
4.97
4.05
3.27
2.62
2.09
1.65
1.30
1.01
0.79
0.61
0.48
0.37
0.29
0.22
0.18
0.14
0.11
0.09
0.08
0.07
0.07
0.07
0.07
0.09
0.10
0.12
0.15
0.18
0.21
0.25
0.29
0.34
0.39
0.43
0.48
0.53
0.59
0.64
0.70
0.76
0.83
0.90
0.98
1.07
1.16
1.27
1.38
1.51
1.66
1.82
2.01
2.21
2.44
2.69
2.97
3.28
3.62
3.99
4.40
4.84
5.32
5.84
6.40
7.01
7.65
8.34
9.07
9.86
10.68
11.56
12.48
13.46
14.48
15.57
16.72
17.94
19.23
20.54
21.87
23.15
24.31
25.25
25.83
25.95
25.47
24.32
22.43
19.80
16.48
12.54
8.17
3.54
-1.14
-5.66
-9.82
-13.45
-16.42
-18.68
-20.20
-21.01
-21.23
-20.95
-20.27
-19.25
-17.97
-16.46
-14.77
-12.94
-11.02
-9.13
-7.34
-5.65
-4.06
-2.51
-0.93
0.71
2.43
4.24
5.98
7.59
9.06
10.48
12.00
13.75
15.81
18.17
20.78
23.24
25.32
26.98
28.41
29.92
31.81
34.26
37.22
40.53
43.41
45.42
46.52
47.03
47.57
48.70
50.70
53.43
56.43
58.42
58.60
56.70
53.04
48.13
42.25
34.86
24.15
12.00
-2.08
-18.73
-38.44
-61.30
-86.74
-113.36
-138.74
-159.87
-173.86
-179.81
-178.57
-172.75
-165.66
-159.68
-155.13
-150.11
-141.56
-126.90
-105.88
-80.17
-52.73
-26.54
-3.50
15.73
31.48
44.23
54.25
60.98
63.91
62.95
58.69
52.37
45.47
39.26
34.48
31.19
28.87
26.88
24.70
22.08
19.01
15.59
11.92
7.95
3.46
-1.90
-8.43
-16.02
-24.17
-31.89
-38.07
-41.88
-43.06
-42.08
-39.90
-37.69
-36.52
-37.22
-40.26
-45.65
-52.70
-59.82
-64.65
-64.52
-57.41
-42.71
-21.62
3.17
28.41
51.21
69.80
83.71
93.42
99.79
103.55
105.12
104.62
102.20
98.20
93.32
88.41
84.24
81.18
79.05
77.22
74.94
71.74
67.57
62.87
58.22
53.91
49.73
44.97
38.76
30.46
20.11
8.36
-3.68
-14.94
-24.77
-33.05
-40.21
-46.95
-54.10
-62.42
-72.58
-85.02
-99.63
-115.50
-130.69
-142.57
-148.40
-146.27
-135.85
-118.50
-96.85
-73.88
-52.02
-32.69
-16.30
-2.69
8.37
16.97
23.07
26.74
28.36
28.70
28.67
29.13
30.62
33.17
36.25
39.02
40.58
40.38
38.44
35.43
32.24
29.53
27.36
25.05
21.53
15.91
8.03
-1.35
-10.89
-19.24
-25.67
-30.28
-33.89
-37.53
-42.06
-48.02
-55.62
-64.83
-75.19
-85.59
-94.09
-98.15
-95.39
-84.50
-65.87
-41.70
-15.33
9.80
31.04
47.03
57.64
63.49
65.49
64.44
61.02
55.88
49.81
43.76
38.70
35.35
33.96
34.13
35.10
36.12
36.82
37.31
37.94
38.85
39.59
39.13
36.29
30.31
21.35
10.44
-0.86
-11.18
-19.89
-27.21
-34.07
-41.64
-50.86
-62.12
-75.08
-88.58
-100.69
-108.96
-110.99
-105.12
-91.12
-70.35
-45.49
-19.72
4.18
24.49
40.56
52.55
60.83
65.70
67.37
66.21
63.01
58.92
55.21
52.99
52.81
54.68
58.06
62.17
66.23
69.68
72.30
74.17
75.44
76.13
75.97
74.43
70.95
65.24
57.47
48.35
38.80
29.66
21.31
13.49
5.35
-4.25
-16.47
-31.94
-50.22
-69.70
-87.64
-100.83
-106.53
-103.33
-91.68
-73.68
-52.50
-31.33
-12.70
2.08
12.74
19.75
23.75
25.27
24.55
21.78
17.31
11.83
6.33
1.77
-1.18
-2.41
-2.31
-1.45
-0.31
0.89
2.18
3.60
5.04
6.08
6.16
4.71
1.42
-3.67
-10.09
-17.04
-23.70
-29.46
-34.23
-38.54
-43.38
-49.85
-58.77
-70.35
-84.08
-98.71
-112.31
-122.48
-126.65
-122.76
-109.80
-88.43
-60.96
-30.85
-1.72
23.63
43.85
58.95
69.82
77.52
82.79
85.96
87.13
86.40
84.11
80.82
77.17
73.71
70.82
68.68
67.29
66.53
66.19
65.91
65.25
63.74
61.01
56.89
51.51
45.18
38.24
30.94
23.33
15.37
7.07
-1.41
-9.74
-17.55
-24.65
-31.11
-37.30
-43.82
-51.26
-60.21
-70.90
-83.07
-95.68
-106.79
-113.80
-114.13
-106.01
-89.24
-65.49
-37.86
-9.98
15.03
35.28
50.31
60.69
67.43
71.41
73.25
73.30
71.89
69.53
66.82
64.40
62.68
61.81
61.67
62.03
62.65
63.39
64.05
64.32
63.72
61.67
57.77
51.98
44.77
36.93
29.33
22.55
16.65
11.25
5.70
-0.55
-7.69
-15.51
-23.46
-30.92
-37.45
-42.98
-47.85
-52.79
-58.68
-66.31
-75.95
-86.96
-97.65
-105.46
-107.60
-101.94
-87.87
-66.61
-40.94
-14.38
9.87
29.71
44.38
54.19
59.98
62.61
62.66
60.55
56.73
51.87
46.87
42.72
40.14
39.41
40.24
41.94
43.67
44.74
44.73
43.58
41.40
38.37
34.62
30.21
25.16
19.50
13.29
6.64
-0.30
-7.33
-14.17
-20.60
-26.47
-31.83
-36.85
-41.80
-47.03
-52.97
-60.12
-68.83
-79.05
-89.79
-99.13
-104.47
-103.31
-94.24
-77.60
-55.47
-30.99
-7.33
13.18
29.45
41.38
49.39
53.92
55.34
53.98
50.39
45.45
40.30
36.06
33.51
32.90
33.81
35.36
36.53
36.45
34.72
31.48
27.22
22.56
17.97
13.58
9.17
4.39
-1.08
-7.29
-14.00
-20.74
-26.97
-32.30
-36.62
-40.14
-43.32
-46.74
-51.09
-56.98
-64.85
-74.70
-85.72
-96.15
-103.44
-104.89
-98.53
-83.96
-62.62
-37.50
-12.15
10.30
28.01
40.56
48.68
53.55
56.25
57.42
57.30
56.01
53.74
50.98
48.33
46.37
45.37
45.24
45.63
46.13
46.49
46.64
46.55
46.09
45.07
43.19
40.29
36.38
31.59
26.08
19.98
13.33
6.19
-1.33
-8.98
-16.46
-23.44
-29.76
-35.46
-40.94
-46.97
-54.49
-64.28
-76.34
-89.51
-101.32
-108.62
-108.55
-99.59
-82.17
-58.62
-32.31
-6.64
15.80
33.68
46.82
55.83
61.56
64.82
66.21
66.10
64.70
62.24
59.05
55.61
52.52
50.25
49.06
48.81
49.09
49.34
49.06
47.94
45.90
43.04
39.52
35.40
30.62
24.97
18.25
10.36
1.46
-8.01
-17.45
-26.23
-33.92
-40.40
-45.90
-50.99
-56.38
-62.90
-71.18
-81.30
-92.55
-103.18
-110.60
-112.08
-105.63
-90.78
-68.94
-43.00
-16.53
7.32
26.54
40.51
49.68
55.02
57.45
57.57
55.72
52.21
47.59
42.69
38.43
35.60
34.49
34.83
36.00
37.26
38.09
38.34
38.07
37.48
36.64
35.46
33.71
31.11
27.41
22.50
16.48
9.70
2.69
-3.94
-9.73
-14.59
-18.79
-22.93
-27.71
-33.83
-41.68
-51.24
-61.79
-71.85
-79.37
-82.16
-78.64
-68.39
-52.41
-32.90
-12.53
6.27
21.85
33.49
41.13
45.00
45.40
42.68
37.43
30.59
23.44
17.30
13.24
11.71
12.41
14.55
17.13
19.40
21.06
22.25
23.22
23.96
24.06
22.77
19.39
13.66
5.92
-2.97
-12.03
-20.54
-28.28
-35.47
-42.57
-50.11
-58.46
-67.77
-77.81
-87.66
-95.67
-99.65
-97.44
-87.79
-70.95
-48.87
-24.51
-0.99
19.36
35.44
47.17
55.06
59.59
61.05
59.71
55.95
50.61
44.75
39.37
35.10
32.04
29.82
28.00
26.33
24.92
24.05
23.96
24.44
24.82
24.09
21.27
15.85
8.05
-1.22
-10.62
-18.85
-25.14
-29.50
-32.72
-36.09
-40.97
-48.20
-57.71
-68.33
-77.94
-83.94
-83.91
-76.36
-61.28
-40.14
-15.56
9.50
32.54
51.94
67.15
78.28
85.76
90.03
91.46
90.41
87.46
83.27
78.47
73.47
68.33
62.94
57.12
50.88
44.46
38.22
32.50
27.44
22.86
18.34
13.35
7.46
0.52
-7.27
-15.38
-23.13
-29.87
-35.29
-39.52
-43.17
-47.22
-52.77
-60.67
-71.10
-83.16
-94.76
-102.98
-104.81
-98.19
-82.76
-60.10
-33.27
-5.86
19.05
39.56
55.01
65.64
72.02
74.77
74.48
71.91
68.03
63.90
60.48
58.32
57.46
57.54
58.03
58.57
59.13
59.91
61.24
63.23
65.61
67.77
68.94
68.55
66.36
62.62
57.86
52.71
47.67
43.01
38.82
35.11
31.87
29.09
26.72
24.68
22.89
21.36
20.08
18.88
17.30
14.53
9.61
1.78
-9.16
-22.66
-37.56
-52.47
-66.08
-77.48
-86.10
-91.62
-93.87
-92.81
-88.65
-81.97
-73.74
-65.09
-57.01
-50.12
-44.51
-39.84
-35.69
-31.79
-28.29
-25.76
-24.99
-26.66
-31.01
-37.67
-45.68
-53.83
-61.01
-66.61
-70.69
-73.96
-77.51
-82.26
-88.46
-95.23
-100.52
-101.56
-95.66
-81.23
-58.40
-29.12
3.46
35.98
65.61
90.43
109.28
121.37
126.19
123.60
114.20
99.46
81.53
62.64
44.49
27.91
12.91
-0.86
-13.70
-25.49
-35.78
-43.93
-49.41
-52.03
-51.95
-49.72
-46.17
-42.30
-39.10
-37.38
-37.66
-40.02
-44.07
-49.13
-54.45
-59.53
-64.33
-69.31
-75.31
-83.14
-93.18
-105.03
-117.34
-127.98
-134.45
-134.43
-126.51
-110.63
-88.32
-62.35
-36.02
-12.28
7.07
21.68
32.32
40.28
46.64
51.93
56.17
59.33
61.66
63.87
66.80
71.02
76.51
82.65
88.54
93.40
96.83
98.75
99.28
98.42
96.07
92.23
87.06
81.06
74.88
68.98
63.34
57.37
50.02
40.31
27.71
12.54
-4.14
-20.90
-36.43
-50.01
-61.58
-71.70
-81.26
-91.19
-102.11
-114.00
-125.84
-135.60
-140.46
-137.71
-125.66
-104.55
-76.63
-45.59
-15.35
11.02
31.97
47.45
58.33
65.75
70.64
73.57
74.87
74.77
73.55
71.61
69.37
67.20
65.33
63.70
62.06
60.06
57.33
53.64
48.94
43.31
36.97
30.26
23.54
17.21
11.57
6.73
2.52
-1.45
-5.67
-10.49
-15.97
-21.86
-27.68
-33.00
-37.67
-41.92
-46.35
-51.74
-58.80
-67.83
-78.42
-89.25
-98.18
-102.64
-100.26
-89.76
-71.54
-47.69
-21.51
3.51
24.68
40.72
51.69
58.53
62.33
63.87
63.58
61.64
58.32
54.16
49.85
46.15
43.65
42.60
42.88
44.07
45.48
46.40
46.26
44.79
42.06
38.42
34.25
29.74
24.86
19.34
12.97
5.72
-2.18
-10.36
-18.42
-26.11
-33.33
-40.11
-46.55
-52.85
-59.41
-66.81
-75.57
-85.81
-96.71
-106.44
-112.41
-112.04
-103.68
-87.28
-64.50
-38.25
-11.79
12.11
31.70
46.50
56.88
63.73
67.97
70.27
71.04
70.50
68.86
66.50
63.98
61.85
60.58
60.33
61.01
62.32
63.90
65.41
66.47
66.74
65.82
63.47
59.74
55.04
50.10
45.63
42.11
39.41
36.95
33.82
29.24
22.86
15.02
6.57
-1.44
-8.13
-13.21
-17.00
-20.35
-24.25
-29.38
-35.67
-42.08
-46.70
-47.33
-42.12
-30.36
-12.86
8.24
30.08
49.94
65.96
77.54
85.11
89.65
92.14
93.21
93.13
91.94
89.71
86.67
83.27
80.12
77.84
76.99
77.95
80.89
85.75
92.25
100.08
108.93
118.59
128.93
139.76
150.73
161.43
171.49
180.73
189.17
196.57
202.09
204.01
200.10
188.29
167.63
138.86
104.32
67.26
30.68
-3.39
-34.32
-62.62
-89.43
-116.04
-143.79
-174.12
-208.40
-247.17
-289.06
-330.17
-364.43
-385.44
-388.86
-374.32
-345.64
-309.28
-271.72
-237.18
-206.88
-179.81
-154.27
-129.11
-103.83
-77.92
-50.13
-18.52
18.77
62.46
111.51
163.28
214.24
260.87
300.36
330.78
351.03
360.77
360.28
350.56
333.15
309.96
282.89
253.62
223.50
193.45
164.08
135.64
108.02
80.77
53.36
25.48
-2.77
-30.86
-58.15
-84.34
-109.84
-136.26
-165.31
-197.80
-233.14
-269.32
-303.25
-331.28
-349.86
-356.35
-350.19
-332.64
-306.48
-275.49
-243.91
-215.52
-192.75
-176.32
-165.50
-160.25
-160.42
-165.51
-174.64
-186.85
-201.04
-215.57
-228.09
-235.89
-239.81
-240.01
-234.64
-220.41
-195.41
-160.64
-119.46
-76.17
-34.59
-4.05
10.77
13.13
12.77
19.16
36.70
64.00
95.33
122.74
127.50
97.84
35.81
-44.23
-125.99
-199.01
-259.90
-310.27
-354.34
-411.22
-494.02
-602.41
-723.83
-844.23
-954.45
-1049.25
-1124.85
-1088.65
-898.54
-591.17
-259.46
19.77
218.95
345.70
420.64
463.89
490.02
490.03
462.03
413.63
361.52
320.36
295.85
286.09
286.17
291.15
287.35
267.73
235.46
202.71
181.13
175.84
185.64
205.55
228.91
242.42
237.55
214.52
182.13
151.03
128.31
116.02
112.05
112.14
108.82
97.99
80.67
62.19
47.73
39.46
36.50
36.57
37.77
38.32
38.10
38.21
40.16
44.13
48.70
51.70
51.39
47.18
39.64
30.01
19.54
9.14
-0.54
-8.82
-14.78
-17.25
-15.16
-7.98
4.02
19.89
38.26
57.87
77.91
98.15
118.90
140.86
164.87
191.46
220.32
249.74
276.59
297.08
307.94
307.91
298.37
283.06
266.54
252.56
242.70
236.24
230.86
223.89
213.15
197.34
175.85
148.53
115.68
78.38
38.81
0.23
-33.50
-58.96
-74.17
-79.25
-76.34
-68.77
-59.93
-52.24
-46.81
-43.64
-42.25
-42.32
-43.87
-47.16
-52.23
-58.69
-65.64
-72.06
-77.10
-80.51
-82.71
-84.50
-86.77
-89.97
-93.91
-97.77
-100.37
-100.53
-97.39
-90.47
-79.60
-64.82
-46.30
-24.47
-0.08
25.74
51.66
76.34
98.55
117.18
131.07
138.97
139.71
132.53
117.41
95.12
67.02
34.71
-0.19
-35.88
-70.01
-99.56
-121.17
-131.99
-130.80
-118.68
-98.91
-76.00
-54.23
-36.38
-23.21
-13.81
-6.58
-0.36
5.00
8.59
9.06
5.45
-2.18
-12.58
-23.60
-32.78
-38.04
-38.08
-32.54
-21.89
-7.11
10.65
30.39
51.46
73.65
97.16
122.27
148.77
175.26
198.86
215.48
220.93
212.48
190.10
156.75
117.47
77.67
41.40
10.43
-15.48
-37.70
-57.69
-76.47
-94.71
-113.00
-131.83
-151.24
-170.26
-186.69
-197.57
-200.14
-192.92
-176.40
-153.00
-126.30
-99.92
-76.56
-57.46
-42.54
-30.83
-21.16
-12.56
-4.48
3.28
10.73
17.97
25.32
33.30
42.57
53.72
67.05
82.48
99.54
117.39
135.04
151.50
165.86
177.35
185.17
188.51
186.54
178.60
164.56
144.89
120.69
93.39
64.45
35.14
6.54
-20.36
-44.55
-65.15
-81.64
-94.24
-103.94
-112.26
-120.57
-129.31
-137.45
-142.64
-142.02
-133.30
-115.84
-91.00
-61.76
-31.63
-3.64
20.47
40.17
55.76
67.72
76.34
81.70
83.87
83.09
79.80
74.56
67.96
60.61
53.07
45.81
39.00
32.36
25.27
17.07
7.46
-3.18
-13.92
-23.71
-31.91
-38.64
-44.68
-51.05
-58.50
-67.18
-76.66
-86.20
-95.11
-102.94
-109.53
-114.95
-119.37
-123.16
-126.80
-130.87
-135.87
-141.84
-148.12
-153.25
-155.24
-152.09
-142.66
-127.11
-107.11
-85.34
-64.71
-47.36
-34.17
-24.67
-17.48
-11.12
-4.55
2.54
9.91
17.10
23.86
30.26
36.60
43.21
50.15
57.18
63.88
69.80
74.67
78.48
81.46
83.88
85.90
87.45
88.23
87.90
86.21
83.15
78.91
73.84
68.20
62.10
55.40
47.82
39.05
28.73
16.54
2.22
-14.23
-32.32
-50.75
-67.46
-79.95
-85.94
-84.17
-74.86
-59.74
-41.42
-22.64
-5.39
9.39
21.70
31.96
40.54
47.51
52.59
55.49
56.10
54.65
51.68
47.88
43.84
39.89
36.02
31.97
27.38
22.05
16.18
10.29
5.07
1.06
-1.67
-3.55
-5.33
-7.76
-11.26
-15.72
-20.58
-25.13
-28.83
-31.55
-33.73
-36.23
-40.05
-46.12
-55.02
-66.70
-80.38
-94.40
-106.35
-113.43
-113.14
-104.03
-86.27
-61.81
-33.84
-5.99
18.77
38.72
53.52
63.84
70.73
75.09
77.45
78.09
77.25
75.38
73.09
71.00
69.53
68.74
68.36
67.93
67.01
65.27
62.59
58.99
54.64
49.81
44.84
40.10
35.93
32.54
29.94
27.97
26.29
24.50
22.21
19.16
15.24
10.55
5.29
-0.31
-6.23
-12.69
-20.21
-29.34
-40.33
-52.67
-64.93
-74.82
-79.74
-77.54
-67.29
-49.71
-27.01
-2.32
21.28
41.43
56.93
67.69
74.34
77.80
78.93
78.36
76.49
73.59
69.84
65.46
60.68
55.79
51.11
46.92
43.44
40.83
39.09
38.13
37.62
37.09
35.95
33.72
30.26
25.96
21.61
18.13
15.99
14.93
13.86
11.39
6.39
-1.36
-11.07
-21.31
-30.62
-38.13
-43.94
-48.93
-54.37
-61.35
-70.36
-80.97
-91.75
-100.51
-104.70
-102.12
-91.70
-74.00
-51.18
-26.41
-2.93
16.87
31.92
42.39
49.17
53.33
55.65
56.64
56.58
55.78
54.65
53.67
53.24
53.53
54.46
55.73
56.94
57.79
58.14
58.00
57.34
55.99
53.59
49.70
44.11
37.04
29.21
21.62
15.23
10.63
7.85
6.33
5.21
3.56
0.61
-4.07
-10.52
-18.51
-27.66
-37.61
-48.25
-59.64
-71.86
-84.70
-97.24
-107.69
-113.63
-112.65
-103.20
-85.41
-61.34
-34.55
-9.10
11.64
25.93
33.80
36.63
36.29
34.32
31.64
28.61
25.47
22.56
20.42
19.50
19.89
21.27
23.03
24.59
25.71
26.43
26.99
27.46
27.64
27.06
25.22
21.83
17.05
11.46
5.81
0.80
-3.20
-6.19
-8.45
-10.33
-12.16
-14.17
-16.56
-19.57
-23.51
-28.66
-35.18
-43.12
-52.44
-62.98
-74.30
-85.45
-94.81
-100.19
-99.43
-91.17
-75.52
-54.21
-30.13
-6.47
14.26
30.67
42.57
50.49
55.29
57.77
58.64
58.59
58.24
58.09
58.29
58.47
57.90
55.78
51.67
45.77
38.91
32.19
26.55
22.35
19.23
16.36
12.93
8.50
3.25
-2.18
-7.00
-10.61
-12.84
-13.90
-14.32
-14.71
-15.72
-17.92
-21.75
-27.41
-34.81
-43.55
-53.09
-63.04
-73.22
-83.72
-94.59
-105.43
-115.07
-121.60
-122.81
-116.92
-103.40
-83.28
-58.97
-33.58
-9.99
9.84
25.13
36.10
43.49
48.09
50.57
51.47
51.26
50.49
49.60
48.88
48.36
47.87
47.20
46.28
45.19
44.17
43.52
43.42
43.80
44.29
44.32
43.24
40.68
36.71
31.89
27.07
22.94
19.71
16.88
13.52
8.62
1.72
-6.97
-16.57
-25.96
-34.26
-41.09
-46.76
-51.98
-57.65
-64.46
-72.49
-80.95
-88.14
-91.75
-89.54
-80.15
-63.72
-42.05
-18.00
5.39
25.85
42.44
55.42
65.81
74.70
82.83
90.30
96.63
100.95
102.27
99.86
93.57
83.93
72.04
59.18
46.36
34.17
22.72
11.95
1.81
-7.58
-16.08
-23.60
-30.20
-35.92
-40.65
-44.10
-45.95
-46.07
-44.72
-42.53
-40.26
-38.48
-37.48
-37.27
-37.98
-39.97
-43.98
-50.90
-61.36
-75.46
-92.53
-111.13
-129.16
-144.10
-153.29
-154.47
-146.39
-129.26
-105.03
-76.94
-48.81
-23.94
-4.35
9.54
18.60
24.35
28.26
31.28
33.73
35.57
36.69
37.17
37.32
37.54
38.12
39.10
40.29
41.38
42.10
42.31
41.98
41.14
39.79
37.90
35.37
32.11
28.08
23.32
17.93
12.03
5.84
-0.44
-6.54
-12.20
-17.28
-21.77
-25.93
-30.23
-35.31
-41.70
-49.57
-58.45
-67.10
-73.65
-76.03
-72.61
-62.71
-46.93
-27.12
-5.79
14.42
31.52
44.44
53.10
58.06
60.17
60.23
58.82
56.39
53.34
50.13
47.29
45.26
44.25
44.13
44.51
44.84
44.60
43.46
41.29
38.10
34.03
29.30
24.16
18.91
13.77
8.81
3.95
-1.00
-6.24
-11.82
-17.63
-23.46
-29.05
-34.25
-39.06
-43.67
-48.45
-53.92
-60.60
-68.69
-77.74
-86.40
-92.55
-93.81
-88.36
-75.74
-57.12
-35.02
-12.49
7.82
24.31
36.52
44.89
50.16
53.04
54.03
53.53
51.98
49.90
47.83
46.12
44.93
44.13
43.50
42.83
42.02
41.06
39.98
38.70
37.08
34.96
32.15
28.63
24.48
19.83
14.85
9.65
4.28
-1.28
-7.05
-12.98
-18.94
-24.66
-29.86
-34.35
-38.13
-41.58
-45.34
-50.24
-57.05
-66.08
-76.78
-87.64
-96.29
-100.02
-96.79
-85.87
-68.32
-46.70
-24.16
-3.56
13.35
26.06
34.96
40.80
44.30
45.94
46.13
45.34
44.07
42.83
41.95
41.48
41.25
41.05
40.76
40.47
40.46
41.07
42.42
44.31
46.15
47.06
46.29
43.47
38.82
33.12
27.38
22.39
18.40
14.97
11.24
6.38
-0.00
-7.65
-15.78
-23.49
-30.12
-35.56
-40.25
-45.01
-50.81
-58.43
-68.24
-79.81
-91.79
-101.85
-107.17
-105.29
-95.04
-77.11
-54.03
-29.28
-6.25
12.79
27.01
36.81
43.20
47.10
49.11
49.53
48.61
46.74
44.44
42.18
40.25
38.67
37.35
36.15
35.06
34.15
33.51
33.08
32.70
32.11
31.10
29.58
27.56
25.15
22.41
19.36
15.93
12.05
7.65
2.71
-2.73
-8.53
-14.42
-20.11
-25.34
-30.06
-34.59
-39.50
-45.52
-53.12
-62.14
-71.48
-79.20
-82.90
-80.55
-71.11
-55.06
-34.28
-11.55
10.26
28.97
43.44
53.60
60.09
63.80
65.51
65.73
64.77
62.88
60.49
58.15
56.40
55.63
55.89
56.97
58.51
60.23
61.99
63.79
65.56
67.08
67.95
67.73
66.22
63.61
60.40
57.19
54.35
51.82
49.17
45.86
41.63
36.65
31.44
26.49
21.85
16.91
10.48
1.21
-12.01
-29.70
-51.63
-76.67
-102.93
-127.83
-148.56
-162.64
-168.62
-166.53
-157.85
-144.98
-130.44
-116.09
-102.74
-90.29
-78.24
-66.13
-53.82
-41.55
-29.77
-18.92
-9.33
-1.16
5.52
10.82
14.95
18.31
21.41
24.69
28.44
32.56
36.62
39.99
42.00
42.25
40.63
37.39
33.02
28.06
22.96
17.87
12.73
7.32
1.44
-4.95
-11.61
-18.18
-24.35
-30.00
-35.37
-40.97
-47.50
-55.57
-65.37
-76.40
-87.26
-95.77
-99.46
-96.31
-85.48
-67.77
-45.40
-21.40
1.42
21.10
36.81
48.64
57.14
62.91
66.44
68.14
68.46
67.84
66.70
65.37
64.00
62.63
61.28
60.01
58.88
58.00
57.38
56.98
56.58
55.87
54.46
51.97
48.18
43.15
37.24
31.08
25.23
20.04
15.41
10.85
5.72
-0.41
-7.58
-15.31
-22.92
-29.81
-35.75
-41.01
-46.24
-52.28
-59.79
-69.06
-79.67
-90.39
-99.21
-103.72
-101.79
-92.31
-75.78
-54.19
-30.58
-8.03
11.16
25.92
36.29
43.03
46.99
48.87
49.08
47.95
45.86
43.26
40.67
38.52
37.01
36.19
35.91
36.02
36.37
36.81
37.22
37.38
37.07
36.02
34.08
31.27
27.77
23.83
19.69
15.43
10.96
6.10
0.69
-5.22
-11.42
-17.56
-23.28
-28.38
-32.91
-37.18
-41.73
-47.23
-54.13
-62.43
-71.30
-79.06
-83.50
-82.48
-74.78
-60.53
-41.40
-19.99
0.87
18.97
33.08
43.02
49.25
52.49
53.36
52.30
49.71
46.04
41.91
37.99
34.90
32.99
32.19
32.10
32.12
31.76
30.78
29.30
27.61
25.93
24.25
22.26
19.50
15.60
10.47
4.30
-2.48
-9.38
-15.96
-21.97
-27.28
-31.92
-36.09
-40.15
-44.65
-50.19
-57.25
-65.80
-75.05
-83.36
-88.51
-88.34
-81.52
-68.05
-49.39
-28.07
-6.83
12.06
27.31
38.58
46.13
50.48
52.10
51.43
48.95
45.31
41.27
37.58
34.79
33.12
32.46
32.47
32.71
32.81
32.54
31.82
30.70
29.21
27.38
25.15
22.32
18.64
13.92
8.09
1.33
-5.97
-13.30
-20.21
-26.38
-31.77
-36.50
-40.93
-45.64
-51.24
-58.31
-67.04
-76.92
-86.51
-93.58
-95.75
-91.20
-79.46
-61.63
-40.09
-17.75
2.81
19.87
32.76
41.68
47.32
50.48
51.91
52.18
51.68
50.63
49.12
47.21
45.00
42.67
40.53
38.83
37.69
37.03
36.57
35.97
34.95
33.34
31.06
28.08
24.34
19.75
14.25
7.87
0.83
-6.50
-13.68
-20.34
-26.25
-31.40
-36.02
-40.58
-45.68
-51.97
-59.87
-69.33
-79.56
-88.97
-95.38
-96.64
-91.25
-79.02
-61.13
-39.90
-18.07
1.98
18.75
31.74
41.25
47.94
52.46
55.27
56.62
56.70
55.77
54.12
52.08
49.93
47.84
45.91
44.22
42.85
41.86
41.25
40.84
40.32
39.29
37.38
34.39
30.42
25.73
20.73
15.72
10.80
5.81
0.47
-5.41
-11.84
-18.50
-24.93
-30.72
-35.74
-40.19
-44.61
-49.71
-56.13
-64.19
-73.56
-83.10
-90.86
-94.50
-91.99
-82.36
-66.19
-45.46
-23.03
-1.69
16.56
30.82
41.14
48.17
52.65
55.22
56.30
56.19
55.13
53.32
50.99
48.38
45.74
43.31
41.30
39.79
38.74
38.02
37.41
36.66
35.52
33.78
31.26
27.95
23.94
19.47
14.77
10.02
5.25
0.31
-4.98
-10.70
-16.75
-22.85
-28.62
-33.81
-38.41
-42.76
-47.54
-53.51
-61.17
-70.35
-79.91
-87.81
-91.55
-89.02
-79.27
-62.99
-42.33
-20.26
0.39
17.66
30.78
39.92
45.80
49.14
50.43
49.97
47.97
44.78
40.94
37.16
34.06
32.08
31.31
31.46
32.07
32.63
32.74
32.27
31.32
30.06
28.59
26.82
24.46
21.17
16.70
11.07
4.59
-2.22
-8.79
-14.74
-19.92
-24.49
-28.75
-33.13
-38.07
-43.96
-51.06
-59.24
-67.78
-75.23
-79.60
-78.93
-71.92
-58.60
-40.42
-19.87
0.24
17.68
31.25
40.78
46.73
49.72
50.26
48.64
45.25
40.71
35.88
31.65
28.72
27.32
27.20
27.77
28.38
28.56
28.11
27.13
25.79
24.29
22.57
20.34
17.18
12.67
6.71
-0.45
-8.16
-15.62
-22.16
-27.45
-31.65
-35.28
-39.04
-43.72
-49.89
-57.82
-67.24
-77.07
-85.50
-90.20
-89.07
-80.88
-65.92
-46.00
-23.92
-2.67
15.44
29.28
38.87
44.98
48.59
50.46
50.95
50.17
48.16
45.19
41.80
38.72
36.54
35.52
35.39
35.58
35.44
34.55
32.91
30.78
28.51
26.28
23.92
21.05
17.21
12.14
5.88
-1.16
-8.36
-15.12
-21.04
-26.09
-30.55
-34.93
-39.79
-45.69
-52.98
-61.76
-71.63
-81.49
-89.58
-93.69
-91.87
-83.12
-67.87
-47.94
-26.07
-4.98
13.32
27.87
38.69
46.31
51.40
54.46
55.88
56.00
55.18
53.76
51.96
49.92
47.67
45.31
43.05
41.18
39.96
39.44
39.38
39.32
38.69
37.01
34.07
29.98
25.04
19.66
14.14
8.62
3.03
-2.82
-9.07
-15.66
-22.36
-28.78
-34.57
-39.63
-44.15
-48.64
-53.79
-60.26
-68.40
-77.94
-87.76
-95.93
-100.09
-98.10
-88.86
-72.75
-51.70
-28.59
-6.40
12.67
27.60
38.48
46.11
51.38
54.96
57.16
58.10
57.95
56.96
55.53
54.02
52.63
51.34
50.00
48.45
46.68
44.94
43.55
42.83
42.70
42.80
42.41
40.80
37.52
32.58
26.48
20.00
13.93
8.72
4.36
0.45
-3.60
-8.32
-13.96
-20.40
-27.21
-33.80
-39.66
-44.54
-48.60
-52.39
-56.79
-62.64
-70.44
-79.94
-89.87
-98.08
-102.02
-99.53
-89.63
-72.89
-51.41
-28.10
-5.91
13.05
27.77
38.33
45.45
50.06
52.90
54.48
55.08
54.90
54.17
53.13
52.00
50.94
49.97
49.03
48.02
46.87
45.63
44.42
43.38
42.54
41.75
40.62
38.72
35.62
31.19
25.65
19.54
13.54
8.23
3.83
0.13
-3.40
-7.36
-12.17
-17.85
-24.02
-30.08
-35.46
-39.80
-43.19
-46.03
-49.04
-53.04
-58.73
-66.41
-75.69
-85.23
-92.89
-96.15
-92.91
-82.27
-65.01
-43.39
-20.46
0.88
18.71
32.33
42.02
48.48
52.39
54.18
54.14
52.64
50.21
47.51
45.11
43.34
42.21
41.52
40.98
40.42
39.78
39.15
38.65
38.31
38.03
37.46
36.10
33.49
29.37
23.94
17.81
11.79
6.60
2.50
-0.80
-3.95
-7.69
-12.47
-18.29
-24.68
-30.99
-36.59
-41.16
-44.79
-47.92
-51.32
-55.82
-62.03
-70.07
-79.24
-87.96
-94.04
-95.20
-89.81
-77.48
-59.29
-37.55
-15.08
5.53
22.53
35.27
43.93
49.19
51.78
52.34
51.36
49.36
46.87
44.44
42.48
41.16
40.38
39.88
39.42
38.86
38.27
37.81
37.66
37.78
37.93
37.64
36.43
33.90
29.95
24.83
19.06
13.29
8.00
3.40
-0.75
-4.94
-9.63
-15.07
-21.07
-27.18
-32.83
-37.67
-41.73
-45.38
-49.27
-54.12
-60.46
-68.40
-77.34
-85.89
-92.00
-93.46
-88.60
-76.95
-59.55
-38.68
-17.23
2.24
18.08
29.75
37.54
42.14
44.22
44.25
42.55
39.47
35.50
31.30
27.59
24.96
23.73
23.89
25.08
26.72
28.20
29.03
29.02
28.15
26.55
24.32
21.40
17.69
13.13
7.78
1.91
-4.10
-9.85
-15.08
-19.71
-23.79
-27.52
-31.19
-35.13
-39.79
-45.58
-52.78
-61.15
-69.87
-77.34
-81.58
-80.69
-73.54
-60.25
-42.27
-21.97
-2.00
15.50
29.24
38.96
45.02
48.06
48.63
47.11
43.84
39.27
34.05
29.03
24.96
22.28
20.97
20.62
20.66
20.58
20.17
19.49
18.74
17.98
17.03
15.43
12.63
8.25
2.30
-4.78
-12.24
-19.29
-25.40
-30.46
-34.75
-38.84
-43.41
-49.08
-56.29
-65.10
-74.98
-84.67
-92.21
-95.35
-92.26
-82.16
-65.77
-45.13
-23.00
-2.09
15.73
29.59
39.58
46.29
50.38
52.36
52.59
51.33
48.97
45.98
42.90
40.22
38.21
36.85
35.90
34.98
33.76
32.16
30.29
28.38
26.58
24.76
22.47
19.12
14.21
7.65
-0.19
-8.50
-16.40
-23.26
-28.89
-33.66
-38.32
-43.76
-50.70
-59.49
-69.89
-80.98
-91.15
-98.35
-100.51
-96.12
-84.79
-67.48
-46.32
-24.04
-3.15
14.63
28.68
39.29
47.18
53.04
57.23
59.73
60.44
59.41
57.05
54.07
51.22
49.02
47.58
46.60
45.64
44.34
42.59
40.54
38.38
36.23
33.94
31.19
27.52
22.55
16.14
8.48
0.09
-8.30
-16.05
-22.78
-28.58
-33.93
-39.53
-46.05
-53.97
-63.38
-73.90
-84.56
-93.76
-99.42
-99.51
-92.63
-78.65
-58.91
-35.93
-12.64
8.45
25.91
39.45
49.64
57.33
63.14
67.34
69.89
70.72
69.98
68.07
65.56
62.96
60.66
58.77
57.31
56.19
55.25
54.34
53.20
51.59
49.24
46.06
42.06
37.42
32.35
27.01
21.45
15.62
9.43
2.85
-4.04
-11.07
-18.09
-25.05
-32.06
-39.37
-47.33
-56.30
-66.39
-77.33
-88.15
-97.19
-102.29
-101.39
-93.22
-77.97
-57.29
-33.98
-11.06
9.09
25.24
37.36
46.11
52.32
56.54
58.98
59.74
59.00
57.12
54.63
52.08
49.85
48.08
46.72
45.62
44.63
43.63
42.52
41.23
39.66
37.73
35.32
32.29
28.47
23.67
17.79
10.97
3.58
-3.82
-10.64
-16.52
-21.42
-25.67
-29.82
-34.45
-40.04
-46.88
-54.98
-63.94
-72.76
-79.84
-83.22
-81.10
-72.50
-57.81
-38.73
-17.88
2.11
19.30
32.81
42.71
49.50
53.66
55.44
54.90
52.30
48.24
43.73
39.81
37.27
36.29
36.44
36.89
36.85
35.86
33.97
31.57
29.10
26.74
24.30
21.26
17.10
11.54
4.76
-2.64
-9.84
-16.14
-21.17
-25.11
-28.58
-32.43
-37.50
-44.32
-52.86
-62.43
-71.71
-78.83
-81.87
-79.28
-70.43
-55.89
-37.32
-17.07
2.53
19.67
33.42
43.70
50.90
55.55
58.07
58.71
57.66
55.27
52.05
48.65
45.67
43.47
42.12
41.35
40.79
40.13
39.24
38.16
36.96
35.50
33.32
29.72
23.99
15.81
5.48
-6.08
-17.59
-27.79
-35.93
-41.92
-46.28
-49.88
-53.62
-58.23
-64.07
-71.10
-78.75
-85.85
-90.75
-91.62
-87.00
-76.39
-60.56
-41.40
-21.39
-2.79
12.95
25.38
34.84
42.04
47.52
51.57
54.20
55.33
55.02
53.57
51.48
49.35
47.75
46.98
47.00
47.35
47.32
46.27
43.85
40.26
36.12
32.15
28.79
25.93
23.01
19.26
14.25
8.10
1.52
-4.54
-9.24
-12.28
-13.87
-14.68
-15.46
-16.80
-18.93
-21.69
-24.50
-26.33
-25.86
-21.56
-12.12
3.18
24.13
49.55
77.55
106.07
133.47
158.84
182.07
203.57
223.75
242.62
259.57
273.58
283.70
289.64
292.04
292.34
292.08
292.06
291.73
289.46
283.29
272.04
255.83
236.07
214.63
192.97
171.76
150.92
130.29
109.98
90.57
72.61
56.21
40.71
24.90
7.51
-12.16
-33.90
-56.70
-79.20
-100.22
-119.17
-136.27
-152.32
-168.41
-185.64
-204.89
-226.69
-250.76
-275.71
-298.94
-317.01
-326.67
-326.00
-315.05
-295.80
-271.09
-243.52
-214.61
-184.80
-154.14
-123.00
-92.43
-63.85
-38.43
-16.64
1.76
17.41
30.91
42.53
52.16
59.27
63.19
63.33
59.49
51.97
41.51
28.96
14.92
-0.55
-17.67
-36.61
-57.02
-77.92
-98.08
-116.49
-132.90
-147.88
-162.34
-177.04
-192.10
-207.10
-221.32
-234.28
-245.93
-256.66
-267.01
-277.19
-286.70
-294.05
-296.87
-292.35
-278.08
-252.96
-217.83
-175.46
-129.96
-85.59
-45.77
-12.37
14.21
34.59
49.64
60.21
66.99
70.71
72.38
73.09
73.79
74.95
76.41
77.57
77.81
76.69
74.24
70.79
66.76
62.46
58.00
53.35
48.40
43.09
37.44
31.53
25.48
19.40
13.40
7.46
1.42
-5.05
-12.40
-21.06
-31.37
-43.45
-57.26
-72.65
-89.33
-106.76
-124.06
-139.80
-152.22
-159.47
-160.15
-153.84
-141.29
-124.23
-104.85
-85.11
-66.28
-48.77
-32.45
-17.01
-2.37
11.21
23.28
33.42
41.49
47.77
52.89
57.67
63.05
70.02
79.59
92.57
109.28
129.26
151.20
173.14
193.00
209.19
220.97
228.55
232.67
234.15
233.48
230.68
225.52
217.72
207.32
194.67
180.42
165.34
150.23
135.77
122.54
110.89
100.95
92.61
85.50
79.13
72.90
66.29
58.84
50.27
40.48
29.59
18.03
6.57
-3.83
-12.25
-18.18
-21.90
-24.54
-27.90
-33.92
-44.07
-58.84
-77.55
-98.61
-120.06
-140.15
-157.73
-172.39
-184.22
-193.50
-200.50
-205.36
-208.19
-209.06
-207.95
-204.63
-198.75
-189.88
-177.92
-163.34
-147.29
-131.36
-117.27
-106.35
-99.35
-96.34
-96.79
-99.83
-104.38
-109.37
-113.96
-117.64
-120.37
-122.57
-124.98
-128.29
-132.82
-138.10
-142.72
-144.41
-140.51
-128.74
-107.92
-78.52
-42.62
-3.40
35.73
72.06
104.00
131.21
154.15
173.58
190.17
204.40
216.67
227.41
237.20
246.56
255.83
264.96
273.63
281.34
287.61
292.05
294.27
293.84
290.04
281.94
268.61
249.39
224.26
193.98
159.99
124.11
88.10
53.24
20.21
-10.82
-39.82
-66.64
-90.85
-111.84
-129.19
-142.93
-153.65
-162.38
-170.26
-178.20
-186.55
-195.07
-202.92
-208.95
-212.01
-211.30
-206.66
-198.74
-188.79
-178.40
-168.94
-161.31
-155.74
-151.95
-149.43
-147.70
-146.32
-144.81
-142.44
-138.21
-130.97
-119.74
-104.00
-83.94
-60.33
-34.34
-7.20
20.05
46.72
72.40
96.96
120.42
142.86
164.23
184.29
202.41
217.70
229.23
236.53
239.78
239.99
238.67
237.32
236.93
237.82
239.68
241.91
244.02
245.81
247.43
249.29
251.89
255.56
260.36
265.80
270.75
273.38
271.49
262.99
246.51
221.84
189.97
152.88
112.89
72.21
32.64
-4.48
-38.12
-67.47
-92.00
-111.65
-126.95
-138.84
-148.47
-156.62
-163.65
-169.42
-173.69
-176.34
-177.66
-178.26
-178.87
-180.13
-182.40
-185.78
-190.08
-195.00
-200.09
-204.86
-208.81
-211.44
-212.40
-211.47
-208.72
-204.46
-199.27
-193.90
-189.02
-184.91
-181.23
-176.86
-170.13
-159.26
-142.99
-120.95
-93.86
-63.33
-31.40
-0.11
28.84
54.31
75.75
93.19
107.03
117.91
126.45
133.08
138.01
141.30
143.03
143.24
141.90
138.82
133.59
125.76
115.07
101.70
86.28
69.75
53.03
36.79
21.33
6.64
-7.48
-21.30
-35.04
-48.72
-62.12
-74.79
-86.08
-95.41
-102.39
-106.95
-109.37
-110.14
-109.89
-109.29
-109.02
-109.67
-111.55
-114.45
-117.52
-119.25
-117.87
-111.82
-100.24
-83.33
-62.25
-38.80
-14.85
8.03
28.93
47.50
63.77
77.86
89.82
99.60
107.24
112.96
117.28
120.90
124.38
127.89
131.04
132.93
132.58
129.33
123.13
114.70
105.16
95.66
86.98
79.38
72.71
66.64
60.91
55.34
49.74
43.77
36.93
28.72
18.83
7.33
-5.32
-18.50
-31.59
-44.21
-56.23
-67.81
-79.33
-91.29
-104.13
-118.06
-132.75
-147.27
-160.14
-169.65
-174.39
-173.63
-167.59
-157.34
-144.42
-130.35
-116.29
-102.77
-89.79
-77.05
-64.22
-51.16
-38.04
-25.21
-13.09
-2.05
7.70
16.08
23.17
29.08
34.00
38.23
42.09
45.94
49.98
54.27
58.57
62.39
65.18
66.44
65.99
64.09
61.32
58.42
56.02
54.35
53.22
52.04
50.13
46.91
42.21
36.29
29.77
23.41
17.82
13.25
9.55
6.22
2.56
-1.98
-7.68
-14.29
-20.95
-26.22
-28.40
-25.95
-17.99
-4.71
12.60
31.83
50.69
67.30
80.52
90.01
95.98
98.93
99.43
98.01
95.26
91.79
88.13
84.70
81.80
79.58
78.11
77.44
77.51
78.17
79.14
80.11
80.75
80.70
79.59
77.06
72.85
66.99
59.84
52.07
44.34
37.09
30.39
23.97
17.44
10.59
3.45
-3.79
-10.94
-17.93
-24.90
-32.09
-39.77
-48.10
-57.25
-67.15
-77.45
-87.32
-95.48
-100.51
-101.27
-97.35
-89.35
-78.74
-67.35
-56.83
-48.29
-42.16
-38.40
-36.80
-37.16
-39.25
-42.64
-46.62
-50.30
-52.82
-53.81
-53.41
-52.27
-51.19
-50.81
-51.39
-52.85
-54.99
-57.65
-60.88
-64.94
-70.10
-76.63
-84.58
-93.87
-104.26
-115.43
-127.15
-139.31
-151.98
-165.22
-178.85
-192.33
-204.63
-214.63
-221.47
-224.98
-225.85
-225.47
-225.46
-227.28
-231.74
-238.86
-247.67
-256.35
-262.44
-263.25
-256.60
-241.38
-217.94
-188.03
-154.14
-118.77
-83.67
-49.53
-16.14
17.24
51.20
85.68
119.79
151.86
179.95
202.39
218.35
228.08
232.76
234.13
233.81
233.03
232.43
232.24
232.52
233.20
234.07
234.67
234.33
232.37
228.46
222.78
216.05
209.29
203.46
199.13
196.36
194.78
193.78
192.77
191.34
189.38
186.85
183.74
179.79
174.45
167.01
156.76
143.42
127.33
109.72
92.61
78.53
70.11
69.42
77.48
93.76
116.13
141.10
164.54
182.56
192.30
192.40
183.00
165.41
141.58
113.69
83.81
53.78
25.23
-0.51
-22.47
-40.26
-54.07
-64.66
-73.10
-80.50
-87.67
-94.95
-102.26
-109.19
-115.28
-120.19
-123.74
-125.80
-126.30
-125.10
-122.17
-117.71
-112.25
-106.60
-101.65
-98.08
-96.13
-95.55
-95.68
-95.74
-95.11
-93.51
-91.06
-88.21
-85.58
-83.82
-83.37
-84.37
-86.40
-88.50
-89.23
-87.09
-80.98
-70.62
-56.76
-40.87
-24.78
-9.95
2.76
13.19
21.63
28.52
34.16
38.76
42.40
45.25
47.57
49.71
52.01
54.78
58.18
62.27
67.08
72.63
78.99
86.28
94.54
103.58
112.89
121.73
129.22
134.67
137.73
138.38
136.84
133.35
128.15
121.34
113.02
103.28
92.15
79.67
65.97
51.39
36.57
22.40
9.76
-0.78
-9.10
-15.57
-20.66
-24.66
-27.42
-28.47
-27.25
-23.48
-17.47
-10.05
-2.44
4.19
8.98
11.56
12.05
10.82
8.27
4.68
0.18
-5.12
-11.02
-17.15
-22.95
-27.80
-31.24
-33.15
-33.98
-34.59
-36.04
-39.15
-44.28
-51.09
-58.87
-66.87
-74.62
-82.02
-89.20
-96.19
-102.72
-108.28
-112.20
-114.03
-113.64
-111.28
-107.39
-102.57
-97.41
-92.46
-88.26
-85.11
-83.17
-82.26
-81.90
-81.28
-79.57
-76.00
-70.20
-62.34
-53.14
-43.69
-35.14
-28.40
-23.83
-21.32
-20.26
-19.90
-19.58
-18.96
-18.05
-17.14
-16.54
-16.38
-16.55
-16.75
-16.68
-16.28
-15.73
-15.37
-15.46
-16.06
-16.99
-18.01
-18.98
-20.00
-21.33
-23.29
-26.01
-29.31
-32.73
-35.62
-37.44
-37.94
-37.28
-36.06
-35.10
-35.13
-36.59
-39.42
-43.06
-46.61
-48.99
-49.09
-46.05
-39.33
-29.00
-15.73
-0.78
14.32
28.12
39.64
48.43
54.60
58.53
60.62
61.17
60.36
58.31
55.16
51.17
46.72
42.25
38.16
34.68
31.83
29.47
27.35
25.28
23.15
20.96
18.58
15.84
12.50
8.38
3.48
-1.98
-7.60
-13.05
-18.09
-22.70
-27.02
-31.28
-35.69
-40.45
-45.78
-51.83
-58.63
-65.99
-73.35
-79.80
-84.17
-85.34
-82.54
-75.51
-64.69
-51.02
-35.77
-20.24
-5.55
7.46
18.32
26.88
33.16
37.32
39.49
39.82
38.48
35.81
32.34
28.77
25.79
23.79
22.83
22.48
22.11
21.07
18.87
15.32
10.44
4.43
-2.43
-9.78
-17.34
-24.85
-32.30
-39.91
-48.09
-57.21
-67.40
-78.34
-89.38
-99.80
-109.12
-117.40
-125.26
-133.66
-143.50
-155.15
-168.05
-180.58
-190.14
-193.69
-188.47
-172.78
-146.56
-111.65
-71.30
-29.40
10.48
45.89
75.73
100.00
119.30
134.33
145.60
153.41
158.16
160.44
161.12
161.10
161.10
161.44
161.98
162.29
161.87
160.35
157.61
153.76
149.11
143.90
138.25
132.06
125.09
117.06
107.85
97.52
86.26
74.32
61.81
48.81
35.34
21.48
7.39
-6.67
-20.64
-34.57
-48.70
-63.21
-77.79
-91.53
-102.82
-109.85
-111.16
-106.30
-96.10
-82.50
-67.97
-54.73
-44.19
-36.88
-32.61
-31.02
-31.90
-35.15
-40.75
-48.30
-56.93
-65.35
-72.00
-75.49
-74.79
-69.38
-59.23
-44.59
-25.84
-3.39
22.34
50.88
81.63
113.81
146.42
178.20
207.64
233.02
252.67
265.20
269.95
267.12
257.75
243.28
225.07
203.95
180.26
154.29
126.81
99.51
74.93
55.84
44.44
41.52
46.18
56.12
68.36
80.28
90.23
97.73
103.07
106.66
108.55
108.36
105.58
100.20
92.96
85.18
78.26
73.00
69.30
66.24
62.58
57.34
50.12
41.17
31.05
20.24
8.88
-3.25
-16.48
-31.02
-46.69
-63.04
-79.46
-95.40
-110.51
-124.54
-137.33
-148.76
-158.89
-167.96
-176.46
-184.98
-193.85
-202.87
-211.12
-217.09
-219.11
-215.87
-206.91
-192.81
-175.05
-155.66
-136.58
-119.27
-104.50
-92.36
-82.62
-74.93
-68.98
-64.52
-61.19
-58.50
-55.77
-52.34
-47.63
-41.32
-33.39
-24.12
-14.05
-3.75
6.25
15.69
24.58
33.08
41.34
49.21
56.23
61.75
65.20
66.48
65.96
64.45
62.78
61.42
60.31
58.93
56.62
52.93
47.70
41.17
33.73
26.05
19.10
14.30
13.46
18.26
29.59
46.94
68.28
90.51
110.46
125.82
135.62
140.12
140.23
136.88
130.65
121.87
110.90
98.19
84.37
69.99
55.33
40.38
25.08
9.54
-5.83
-20.44
-33.82
-45.97
-57.44
-69.14
-81.94
-96.30
-112.06
-128.62
-145.10
-160.70
-174.99
-187.86
-199.56
-210.56
-221.32
-232.14
-243.06
-253.67
-263.35
-271.34
-277.08
-280.43
-281.83
-282.19
-282.74
-284.47
-287.73
-291.74
-294.61
-293.73
-286.64
-271.85
-249.35
-220.48
-187.31
-151.89
-115.79
-80.22
-46.28
-15.36
11.11
32.05
47.25
57.50
64.34
69.35
73.71
78.03
82.49
87.31
92.83
99.46
107.41
116.39
125.56
133.76
139.82
142.90
142.67
139.32
133.47
125.95
117.55
108.80
99.80
90.24
79.62
67.59
54.18
39.93
25.67
12.23
0.09
-10.77
-20.84
-30.85
-41.66
-53.98
-68.19
-83.93
-99.94
-113.95
-123.08
-124.60
-116.77
-99.42
-74.12
-43.73
-11.64
19.05
46.05
68.13
84.98
96.99
104.93
109.75
112.44
113.94
115.08
116.53
118.76
122.05
126.41
131.71
137.72
144.11
150.57
156.70
162.06
166.26
168.95
169.96
169.21
166.68
162.37
156.40
149.03
140.63
131.48
121.56
110.47
97.55
82.17
64.07
43.53
21.14
-2.44
-26.66
-51.00
-74.45
-95.19
-110.48
-117.41
-113.90
-99.82
-77.32
-50.30
-23.17
0.55
19.10
32.50
41.87
48.51
53.31
56.58
58.43
59.03
58.84
58.46
58.33
58.64
59.35
60.34
61.52
62.91
64.49
66.15
67.58
68.44
68.38
67.15
64.58
60.64
55.37
48.94
41.62
33.72
25.55
17.37
9.36
1.68
-5.57
-12.32
-18.68
-24.90
-31.49
-39.10
-48.38
-59.67
-72.65
-86.04
-97.60
-104.50
-104.16
-95.14
-77.77
-54.20
-27.72
-1.78
20.99
39.33
53.21
63.32
70.49
75.31
78.09
79.03
78.41
76.68
74.35
71.86
69.47
67.32
65.44
63.91
62.84
62.30
62.21
62.23
61.84
60.43
57.55
53.06
47.22
40.56
33.68
27.08
20.90
15.00
8.98
2.49
-4.65
-12.26
-19.95
-27.26
-33.95
-40.13
-46.36
-53.46
-62.27
-73.25
-86.00
-99.10
-110.12
-116.12
-114.51
-104.02
-85.21
-60.46
-33.23
-7.03
15.61
33.53
46.85
56.33
62.88
67.17
69.61
70.54
70.33
69.38
68.09
66.75
65.51
64.41
63.46
62.63
61.95
61.39
60.92
60.35
59.40
57.62
54.61
50.10
44.21
37.38
30.27
23.49
17.30
11.53
5.82
-0.21
-6.67
-13.31
-19.69
-25.43
-30.48
-35.24
-40.42
-46.83
-55.07
-65.13
-76.12
-86.30
-93.33
-94.85
-89.26
-76.32
-57.35
-34.87
-11.90
8.91
25.88
38.49
47.13
52.56
55.53
56.50
55.76
53.54
50.24
46.50
43.02
40.38
38.81
38.16
37.93
37.55
36.61
35.00
32.92
30.71
28.63
26.65
24.44
21.48
17.32
11.82
5.24
-1.87
-8.84
-15.18
-20.67
-25.40
-29.65
-33.89
-38.59
-44.30
-51.45
-60.10
-69.64
-78.67
-85.11
-86.74
-81.96
-70.46
-53.39
-33.14
-12.48
6.17
21.40
32.77
40.58
45.34
47.48
47.29
45.12
41.54
37.37
33.51
30.72
29.32
29.14
29.64
30.12
30.05
29.24
27.79
26.07
24.43
22.94
21.32
19.02
15.42
10.22
3.62
-3.70
-10.82
-16.91
-21.68
-25.41
-28.92
-33.17
-39.00
-46.81
-56.30
-66.50
-75.73
-81.88
-82.93
-77.52
-65.51
-48.19
-27.97
-7.66
10.34
24.68
35.10
42.12
46.51
48.89
49.59
48.73
46.53
43.32
39.58
35.84
32.51
29.82
27.77
26.17
24.73
23.17
21.32
19.24
17.10
15.03
12.95
10.48
7.08
2.26
-4.03
-11.36
-18.88
-25.69
-31.17
-35.29
-38.58
-41.91
-46.22
-52.20
-60.06
-69.41
-79.20
-87.82
-93.32
-93.85
-88.22
-76.29
-59.20
-39.06
-18.46
0.35
15.83
27.51
35.71
41.15
44.51
46.30
46.79
46.20
44.81
42.97
41.07
39.39
37.99
36.83
35.75
34.63
33.44
32.19
30.89
29.46
27.74
25.52
22.59
18.80
14.13
8.67
2.63
-3.71
-10.05
-16.10
-21.68
-26.72
-31.28
-35.57
-39.91
-44.73
-50.47
-57.44
-65.54
-74.07
-81.62
-86.25
-86.04
-79.71
-67.21
-49.87
-30.06
-10.48
6.69
20.28
30.19
37.06
41.76
44.97
47.01
47.98
47.88
46.85
45.17
43.25
41.42
39.91
38.77
37.94
37.31
36.80
36.30
35.65
34.66
33.07
30.69
27.47
23.50
19.03
14.30
9.48
4.56
-0.56
-6.01
-11.80
-17.77
-23.67
-29.16
-34.06
-38.42
-42.54
-46.95
-52.31
-59.06
-67.18
-75.89
-83.57
-88.12
-87.53
-80.63
-67.63
-50.10
-30.56
-11.66
4.54
17.07
25.96
31.92
35.84
38.39
39.95
40.65
40.57
39.86
38.83
37.77
36.93
36.31
35.79
35.21
34.56
34.03
33.89
34.26
34.95
35.38
34.84
32.81
29.20
24.46
19.32
14.53
10.50
7.17
4.07
0.58
-3.78
-9.19
-15.46
-22.14
-28.73
-34.84
-40.36
-45.44
-50.52
-56.20
-63.04
-71.23
-80.33
-89.11
-95.69
-98.03
-94.64
-85.16
-70.55
-52.86
-34.50
-17.57
-3.38
7.71
15.91
21.72
25.58
27.84
28.75
28.60
27.75
26.60
25.47
24.57
23.91
23.40
22.91
22.32
21.62
20.82
19.86
18.63
16.93
14.55
11.42
7.60
3.31
-1.23
-5.81
-10.36
-14.83
-19.20
-23.37
-27.23
-30.68
-33.75
-36.59
-39.49
-42.83
-46.95
-52.12
-58.38
-65.36
-72.18
-77.44
-79.42
-76.57
-68.05
-54.18
-36.45
-17.15
1.26
16.91
28.83
37.06
42.25
45.26
46.79
47.27
46.92
45.94
44.65
43.38
42.47
42.07
42.11
42.42
42.85
43.35
43.99
44.79
45.61
46.13
45.89
44.54
42.03
38.68
35.08
31.84
29.36
27.64
26.32
24.90
23.00
20.54
17.84
15.42
13.88
13.63
14.72
16.76
18.93
20.08
19.12
15.54
9.80
3.56
-0.70
-0.50
5.72
17.97
34.69
53.34
71.29
86.58
98.31
106.45
111.44
113.71
113.45
110.66
105.37
97.92
88.89
79.01
68.90
58.87
48.88
38.80
28.58
18.46
8.93
0.50
-6.61
-12.63
-18.30
-24.59
-32.33
-41.87
-52.89
-64.51
-75.58
-85.23
-93.23
-100.09
-106.80
-114.33
-123.23
-133.48
-144.65
-156.28
-168.19
-180.54
-193.74
-208.23
-224.31
-241.90
-260.41
-278.50
-293.95
-303.76
-304.58
-293.72
-270.02
-234.64
-190.97
-143.80
-98.05
-57.47
-23.97
2.36
22.56
37.97
49.63
58.18
64.02
67.68
69.93
71.64
73.52
75.87
78.53
81.10
83.15
84.47
85.10
85.20
84.88
84.05
82.41
79.54
75.18
69.45
62.79
55.97
49.74
44.55
40.31
36.46
32.22
26.92
20.30
12.62
4.56
-3.15
-9.97
-15.84
-21.20
-26.89
-33.84
-42.69
-53.42
-65.03
-75.64
-82.84
-84.39
-78.99
-66.73
-49.15
-28.78
-8.34
9.98
24.94
36.31
44.51
50.22
54.06
56.46
57.67
57.83
57.11
55.76
54.09
52.44
51.08
50.19
49.83
49.99
50.55
51.40
52.37
53.14
53.33
52.51
50.34
46.74
41.95
36.54
31.18
26.37
22.29
18.68
15.00
10.70
5.50
-0.50
-6.81
-12.82
-18.04
-22.40
-26.29
-30.46
-35.81
-42.97
-52.03
-62.27
-72.06
-79.19
-81.39
-77.06
-65.82
-48.79
-28.29
-7.18
11.96
27.49
38.84
46.32
50.67
52.61
52.68
51.22
48.58
45.24
41.80
38.92
37.13
36.68
37.51
39.28
41.47
43.56
45.09
45.74
45.32
43.79
41.26
37.86
33.81
29.26
24.33
19.03
13.37
7.37
1.12
-5.21
-11.37
-17.15
-22.42
-27.25
-31.85
-36.64
-42.13
-48.82
-56.93
-66.10
-75.20
-82.34
-85.28
-82.14
-72.13
-55.93
-35.60
-13.91
6.50
23.81
37.24
46.86
53.13
56.51
57.39
56.12
53.29
49.68
46.14
43.34
41.59
40.83
40.79
41.11
41.59
42.10
42.59
42.86
42.67
41.65
39.50
36.10
31.60
26.33
20.68
14.97
9.34
3.70
-2.11
-8.20
-14.56
-21.01
-27.32
-33.26
-38.79
-44.03
-49.31
-55.14
-62.07
-70.44
-80.12
-90.11
-98.58
-103.14
-101.55
-92.58
-76.52
-55.22
-31.58
-8.62
11.34
27.16
38.78
46.86
52.22
55.54
57.22
57.53
56.72
55.12
53.13
51.17
49.56
48.44
47.80
47.51
47.42
47.41
47.38
47.22
46.71
45.51
43.24
39.69
34.95
29.43
23.71
18.30
13.41
8.87
4.20
-1.05
-7.12
-13.87
-20.83
-27.46
-33.33
-38.36
-42.86
-47.43
-52.83
-59.75
-68.49
-78.71
-89.22
-98.01
-102.62
-100.87
-91.57
-75.12
-53.45
-29.52
-6.45
13.41
28.86
39.90
47.29
51.99
54.82
56.30
56.77
56.45
55.58
54.38
52.98
51.44
49.77
48.02
46.32
44.87
43.90
43.54
43.69
44.01
43.91
42.74
40.03
35.69
30.08
23.92
18.01
12.88
8.56
4.62
0.37
-4.72
-10.86
-17.79
-24.93
-31.64
-37.42
-42.13
-46.02
-49.78
-54.32
-60.52
-68.82
-78.71
-88.65
-96.26
-98.96
-94.84
-83.32
-65.43
-43.50
-20.44
1.06
19.10
32.92
42.66
49.03
52.87
54.83
55.36
54.78
53.38
51.60
49.84
48.40
47.30
46.35
45.31
44.03
42.63
41.40
40.61
40.23
39.94
39.14
37.27
34.00
29.42
23.99
18.35
13.11
8.55
4.59
0.84
-3.21
-7.95
-13.45
-19.47
-25.50
-31.04
-35.75
-39.65
-43.11
-46.78
-51.35
-57.41
-65.08
-73.82
-82.32
-88.65
-90.67
-86.74
-76.30
-60.17
-40.41
-19.71
-0.54
15.36
27.32
35.49
40.45
42.82
43.08
41.67
39.07
35.86
32.69
30.10
28.42
27.75
27.95
28.79
29.96
31.09
31.79
31.74
30.71
28.65
25.76
22.32
18.63
14.93
11.24
7.47
3.46
-0.91
-5.63
-10.54
-15.38
-19.93
-24.02
-27.67
-31.08
-34.62
-38.79
-44.14
-50.98
-59.14
-67.66
-74.83
-78.50
-76.79
-68.78
-54.93
-37.08
-17.76
0.47
15.80
27.42
35.38
40.20
42.46
42.65
41.13
38.27
34.54
30.54
26.90
24.17
22.65
22.29
22.78
23.59
24.17
24.11
23.24
21.58
19.33
16.67
13.66
10.23
6.15
1.26
-4.48
-10.81
-17.25
-23.25
-28.38
-32.52
-35.91
-39.08
-42.65
-47.18
-53.02
-60.23
-68.41
-76.60
-83.24
-86.38
-84.26
-75.92
-61.69
-43.25
-23.17
-4.07
12.12
24.58
33.47
39.52
43.54
46.03
47.20
47.10
45.86
43.75
41.22
38.74
36.71
35.30
34.45
33.90
33.35
32.53
31.32
29.72
27.80
25.55
22.91
19.72
15.83
11.19
5.90
0.19
-5.64
-11.36
-16.81
-21.96
-26.83
-31.51
-36.17
-41.09
-46.67
-53.33
-61.28
-70.19
-78.96
-85.78
-88.51
-85.39
-75.76
-60.34
-41.07
-20.54
-1.16
15.40
28.39
37.91
44.44
48.59
50.88
51.76
51.59
50.71
49.40
47.85
46.17
44.44
42.77
41.34
40.31
39.76
39.52
39.27
38.55
36.99
34.42
30.94
26.87
22.55
18.24
13.96
9.57
4.86
-0.35
-6.08
-12.18
-18.41
-24.50
-30.21
-35.47
-40.36
-45.19
-50.44
-56.67
-64.24
-72.98
-81.89
-89.12
-92.37
-89.59
-79.83
-63.66
-43.13
-21.15
-0.58
16.63
29.71
38.97
45.28
49.56
52.40
54.10
54.80
54.61
53.73
52.39
50.77
48.97
47.03
45.00
43.02
41.31
40.06
39.34
39.00
38.66
37.80
35.94
32.84
28.59
23.62
18.49
13.71
9.51
5.76
2.03
-2.20
-7.28
-13.23
-19.67
-25.98
-31.58
-36.15
-39.85
-43.24
-47.19
-52.55
-59.88
-69.02
-78.98
-87.95
-93.59
-93.74
-87.08
-73.69
-55.12
-33.97
-13.05
5.38
20.17
31.24
39.17
44.72
48.46
50.69
51.56
51.28
50.19
48.69
47.12
45.67
44.34
43.03
41.69
40.35
39.13
38.20
37.62
37.29
36.87
35.88
33.86
30.56
26.08
20.87
15.58
10.80
6.79
3.41
0.17
-3.52
-8.06
-13.46
-19.36
-25.17
-30.35
-34.65
-38.24
-41.57
-45.28
-49.93
-55.96
-63.40
-71.77
-79.93
-86.13
-88.36
-84.98
-75.28
-59.96
-40.95
-20.89
-2.25
13.29
25.10
33.43
38.91
42.16
43.61
43.47
42.01
39.61
36.78
34.05
31.88
30.52
30.03
30.31
31.15
32.25
33.26
33.85
33.72
32.70
30.74
27.95
24.53
20.66
16.51
12.12
7.52
2.66
-2.43
-7.67
-12.87
-17.83
-22.38
-26.49
-30.32
-34.25
-38.75
-44.28
-51.11
-59.08
-67.42
-74.77
-79.32
-79.22
-73.26
-61.29
-44.48
-25.04
-5.57
11.74
25.57
35.68
42.56
46.93
49.34
50.06
49.20
46.97
43.84
40.46
37.46
35.25
33.86
33.06
32.60
32.29
32.11
32.07
32.05
31.70
30.58
28.32
24.86
20.49
15.70
10.98
6.58
2.44
-1.71
-6.19
-11.13
-16.47
-21.95
-27.27
-32.21
-36.71
-40.93
-45.20
-50.06
-56.06
-63.58
-72.45
-81.66
-89.35
-93.18
-91.04
-81.89
-66.22
-45.99
-24.03
-3.15
14.61
28.32
38.02
44.34
48.07
49.87
50.27
49.66
48.36
46.69
44.95
43.37
42.10
41.14
40.41
39.77
39.13
38.54
38.07
37.76
37.44
36.72
35.06
32.05
27.63
22.16
16.34
10.91
6.38
2.76
-0.38
-3.74
-7.97
-13.34
-19.66
-26.28
-32.44
-37.57
-41.56
-44.83
-48.22
-52.70
-59.00
-67.26
-76.82
-86.11
-92.91
-94.92
-90.43
-78.96
-61.55
-40.50
-18.71
1.21
17.58
29.88
38.49
44.25
47.93
50.04
50.84
50.52
49.33
47.69
46.01
44.66
43.72
43.08
42.48
41.75
40.88
40.06
39.49
39.21
38.92
38.13
36.25
32.99
28.45
23.10
17.61
12.56
8.22
4.48
0.93
-2.93
-7.46
-12.76
-18.62
-24.59
-30.17
-35.01
-39.04
-42.55
-46.16
-50.61
-56.60
-64.41
-73.63
-82.97
-90.40
-93.58
-90.58
-80.60
-64.26
-43.58
-21.33
-0.21
17.77
31.66
41.47
47.75
51.27
52.70
52.55
51.25
49.24
46.92
44.71
42.93
41.70
40.92
40.39
39.89
39.36
38.87
38.55
38.39
38.19
37.49
35.77
32.71
28.29
22.97
17.43
12.34
8.07
4.57
1.39
-2.04
-6.19
-11.15
-16.67
-22.24
-27.41
-31.89
-35.78
-39.42
-43.30
-47.95
-53.83
-61.14
-69.64
-78.41
-85.78
-89.61
-87.88
-79.43
-64.55
-45.05
-23.70
-3.42
13.60
26.37
35.00
40.27
43.04
43.96
43.36
41.43
38.45
34.91
31.42
28.54
26.67
25.94
26.13
26.90
27.80
28.49
28.71
28.38
27.48
26.06
24.13
21.65
18.52
14.64
9.93
4.50
-1.35
-7.19
-12.51
-16.91
-20.29
-22.88
-25.16
-27.74
-31.17
-35.84
-41.84
-48.89
-56.18
-62.40
-65.84
-64.89
-58.57
-46.93
-31.24
-13.60
3.63
18.56
30.11
38.08
42.77
44.67
44.19
41.66
37.51
32.39
27.21
22.90
20.18
19.24
19.73
20.92
22.06
22.64
22.57
22.04
21.28
20.30
18.80
16.33
12.53
7.35
1.13
-5.50
-11.85
-17.42
-22.05
-25.98
-29.71
-33.91
-39.20
-46.00
-54.32
-63.57
-72.47
-79.18
-81.70
-78.41
-68.73
-53.36
-34.25
-13.98
4.94
20.74
32.65
40.81
45.85
48.45
49.09
48.05
45.59
42.14
38.30
34.80
32.20
30.70
30.02
29.59
28.86
27.51
25.64
23.61
21.80
20.30
18.84
16.89
13.86
9.40
3.55
-3.32
-10.61
-17.68
-23.99
-29.28
-33.62
-37.38
-41.21
-45.90
-52.18
-60.38
-70.12
-80.13
-88.34
-92.31
-90.06
-80.78
-65.19
-45.34
-24.00
-3.78
13.49
27.04
36.99
43.92
48.57
51.54
53.27
54.02
53.95
53.13
51.67
49.67
47.34
44.92
42.68
40.83
39.45
38.46
37.63
36.58
34.96
32.54
29.30
25.38
20.97
16.23
11.21
5.86
0.19
-5.74
-11.75
-17.60
-23.16
-28.36
-33.30
-38.22
-43.50
-49.64
-57.10
-66.04
-75.94
-85.41
-92.36
-94.47
-90.07
-78.73
-61.52
-40.69
-18.98
1.24
18.43
31.96
41.97
48.96
53.54
56.24
57.55
57.81
57.33
56.28
54.79
53.01
51.06
49.10
47.26
45.69
44.50
43.79
43.57
43.69
43.79
43.33
41.75
38.71
34.20
28.64
22.68
17.03
12.16
8.14
4.60
0.95
-3.37
-8.66
-14.78
-21.20
-27.23
-32.30
-36.27
-39.45
-42.64
-46.79
-52.74
-60.78
-70.36
-79.99
-87.44
-90.27
-86.67
-76.06
-59.43
-39.07
-17.81
1.76
17.97
30.28
38.98
44.82
48.51
50.57
51.33
51.02
49.95
48.50
47.03
45.83
44.97
44.31
43.60
42.71
41.66
40.68
40.04
39.81
39.75
39.36
38.05
35.38
31.32
26.23
20.77
15.64
11.34
7.96
5.19
2.40
-1.07
-5.62
-11.19
-17.28
-23.14
-28.14
-32.02
-35.07
-37.97
-41.54
-46.47
-53.13
-61.39
-70.48
-78.97
-84.94
-86.36
-81.73
-70.65
-54.16
-34.45
-14.30
3.83
18.40
29.03
36.20
40.75
43.39
44.50
44.23
42.70
40.22
37.28
34.42
32.09
30.50
29.65
29.42
29.74
30.48
31.49
32.45
32.93
32.46
30.73
27.72
23.73
19.24
14.75
10.61
6.89
3.39
-0.16
-4.09
-8.50
-13.32
-18.27
-22.98
-27.22
-30.99
-34.62
-38.68
-43.75
-50.17
-57.74
-65.51
-71.91
-75.04
-73.25
-65.69
-52.70
-35.77
-17.11
0.94
16.51
28.55
36.84
41.75
43.93
44.07
42.78
40.59
37.94
35.22
32.75
30.75
29.37
28.63
28.44
28.64
29.01
29.38
29.54
29.29
28.41
26.66
23.90
20.17
15.75
11.04
6.47
2.27
-1.58
-5.31
-9.22
-13.52
-18.18
-23.01
-27.73
-32.10
-36.02
-39.63
-43.30
-47.56
-52.91
-59.54
-66.97
-73.96
-78.65
-79.07
-73.82
-62.62
-46.55
-27.72
-8.61
8.63
22.64
32.98
39.90
43.97
45.81
45.98
44.94
43.15
41.04
38.98
37.25
35.97
35.06
34.34
33.59
32.69
31.68
30.76
30.12
29.80
29.52
28.74
26.85
23.44
18.57
12.82
7.04
2.02
-1.89
-4.91
-7.66
-10.86
-14.96
-19.92
-25.32
-30.56
-35.21
-39.17
-42.73
-46.41
-50.86
-56.57
-63.66
-71.65
-79.33
-84.87
-86.27
-81.93
-71.32
-55.25
-35.71
-15.28
3.62
19.33
31.18
39.32
44.40
47.18
48.31
48.28
47.44
46.09
44.51
42.95
41.54
40.30
39.14
37.91
36.58
35.25
34.13
33.41
33.15
33.14
32.93
32.02
29.96
26.62
22.16
17.02
11.80
6.99
2.86
-0.66
-3.96
-7.56
-11.81
-16.77
-22.13
-27.40
-32.08
-35.96
-39.18
-42.21
-45.66
-50.15
-56.15
-63.72
-72.31
-80.61
-86.65
-88.26
-83.77
-72.69
-56.02
-36.02
-15.48
3.13
18.28
29.51
37.19
42.04
44.72
45.72
45.38
44.05
42.17
40.21
38.52
37.29
36.48
35.87
35.28
34.57
33.75
32.97
32.35
31.95
31.64
31.11
29.96
27.83
24.57
20.28
15.38
10.41
5.85
1.96
-1.38
-4.57
-8.11
-12.32
-17.24
-22.54
-27.73
-32.36
-36.21
-39.44
-42.50
-46.05
-50.73
-56.95
-64.65
-73.14
-80.99
-86.32
-87.18
-82.21
-71.15
-55.02
-35.85
-16.10
2.04
17.08
28.42
36.10
40.58
42.41
42.18
40.48
37.87
34.92
32.11
29.80
28.21
27.40
27.27
27.63
28.25
28.94
29.51
29.83
29.76
29.10
27.63
25.21
21.85
17.78
13.36
8.94
4.73
0.68
-3.42
-7.77
-12.44
-17.31
-22.09
-26.53
-30.55
-34.30
-38.14
-42.62
-48.28
-55.40
-63.77
-72.42
-79.64
-83.29
-81.46
-73.18
-58.89
-40.36
-20.20
-1.00
15.33
27.89
36.64
42.08
44.85
45.51
44.58
42.50
39.72
36.68
33.78
31.35
29.62
28.74
28.71
29.40
30.47
31.50
32.04
31.70
30.26
27.74
24.32
20.35
16.17
11.99
7.83
3.50
-1.19
-6.36
-11.89
-17.53
-22.96
-27.96
-32.53
-36.82
-41.15
-45.93
-51.64
-58.72
-67.24
-76.64
-85.48
-91.56
-92.54
-86.69
-73.68
-54.82
-32.74
-10.52
9.22
24.94
36.26
43.70
48.08
50.24
50.76
50.03
48.40
46.22
43.85
41.65
39.86
38.63
37.99
37.88
38.16
38.62
39.00
38.99
38.32
36.77
34.27
30.82
26.58
21.74
16.54
11.16
5.70
0.17
-5.47
-11.30
-17.31
-23.37
-29.21
-34.57
-39.37
-43.82
-48.50
-54.23
-61.66
-70.88
-81.01
-90.19
-95.95
-95.97
-88.86
-74.77
-55.32
-33.15
-11.05
8.75
24.98
37.34
46.16
52.07
55.65
57.46
57.94
57.50
56.48
55.12
53.61
52.09
50.66
49.45
48.53
47.94
47.64
47.51
47.36
46.94
45.98
44.13
41.15
36.94
31.72
25.98
20.35
15.30
10.93
6.90
2.65
-2.39
-8.42
-15.20
-22.14
-28.58
-34.09
-38.68
-42.84
-47.38
-53.22
-61.00
-70.77
-81.70
-92.01
-99.29
-101.08
-95.66
-82.69
-63.43
-40.40
-16.71
4.90
22.63
35.87
44.99
50.91
54.62
56.89
58.19
58.78
58.77
58.30
57.49
56.51
55.47
54.45
53.47
52.55
51.74
51.13
50.79
50.66
50.49
49.89
48.37
45.59
41.47
36.28
30.58
25.01
20.01
15.66
11.65
7.39
2.36
-3.65
-10.41
-17.39
-23.97
-29.74
-34.67
-39.12
-43.66
-48.99
-55.69
-64.00
-73.50
-82.95
-90.30
-93.18
-89.64
-78.90
-61.81
-40.63
-18.38
2.15
19.08
31.76
40.52
46.14
49.38
50.78
50.65
49.29
47.12
44.68
42.49
40.86
39.84
39.25
38.87
38.57
38.37
38.38
38.60
38.83
38.64
37.54
35.17
31.48
26.82
21.75
16.86
12.51
8.67
4.96
0.90
-3.86
-9.32
-15.10
-20.68
-25.60
-29.76
-33.40
-37.09
-41.49
-47.20
-54.49
-63.06
-71.83
-79.00
-82.36
-79.97
-70.86
-55.52
-35.88
-14.73
5.13
21.64
33.89
42.00
46.64
48.60
48.49
46.67
43.45
39.29
34.83
30.86
28.04
26.72
26.83
27.89
29.26
30.36
30.79
30.43
29.33
27.64
25.47
22.84
19.72
16.01
11.65
6.65
1.15
-4.62
-10.35
-15.78
-20.76
-25.23
-29.32
-33.32
-37.65
-42.87
-49.40
-57.29
-65.89
-73.78
-78.98
-79.51
-74.03
-62.38
-45.73
-26.28
-6.62
10.96
25.03
35.11
41.60
45.27
46.96
47.23
46.40
44.62
42.08
39.09
36.10
33.54
31.67
30.50
29.87
29.52
29.18
28.68
27.88
26.69
25.01
22.78
19.96
16.55
12.57
8.03
2.96
-2.55
-8.33
-14.11
-19.61
-24.64
-29.14
-33.21
-37.13
-41.33
-46.33
-52.64
-60.52
-69.69
-79.09
-86.97
-91.11
-89.61
-81.46
-67.03
-48.05
-27.09
-6.82
10.69
24.40
34.27
40.92
45.17
47.68
48.90
49.08
48.46
47.31
45.93
44.50
43.09
41.66
40.19
38.75
37.54
36.73
36.30
35.97
35.24
33.66
30.96
27.27
22.99
18.66
14.64
11.04
7.65
4.12
0.12
-4.50
-9.65
-15.05
-20.30
-25.05
-29.09
-32.46
-35.52
-38.89
-43.33
-49.37
-56.92
-64.93
-71.48
-74.20
-71.03
-61.01
-44.73
-24.11
-1.85
19.43
37.84
52.48
63.27
70.62
75.17
77.54
78.41
78.47
78.40
78.73
79.72
81.29
83.14
84.94
86.53
88.05
89.85
92.33
95.67
99.69
103.84
107.45
109.97
111.20
111.36
111.01
110.85
111.53
113.49
116.78
121.04
125.48
129.10
131.14
131.36
130.18
128.50
127.14
126.30
125.39
123.26
118.71
111.15
100.87
89.05
77.51
68.35
63.49
64.26
71.04
82.97
98.09
113.80
127.64
138.07
144.75
148.29
149.51
148.69
145.31
138.33
126.88
110.97
91.63
70.55
49.38
29.04
9.54
-9.74
-29.55
-50.32
-72.08
-94.60
-117.48
-140.11
-161.50
-180.29
-194.98
-204.51
-208.83
-209.05
-207.09
-204.94
-203.90
-204.27
-205.45
-206.54
-206.85
-206.26
-205.08
-203.89
-203.27
-203.69
-205.58
-209.32
-215.07
-222.56
-230.80
-238.09
-242.27
-241.34
-234.13
-220.79
-202.85
-182.75
-163.10
-145.85
-131.83
-120.89
-112.32
-105.41
-99.86
-95.76
-93.27
-92.30
-92.38
-92.83
-93.05
-92.90
-92.68
-92.97
-94.22
-96.55
-99.70
-103.12
-106.33
-109.11
-111.61
-114.23
-117.36
-121.09
-124.97
-128.10
-129.36
-127.83
-123.20
-115.85
-106.67
-96.61
-86.25
-75.56
-63.97
-50.89
-36.23
-20.82
-6.55
4.09
8.69
5.72
-4.80
-21.05
-39.72
-56.66
-67.95
-70.82
-64.32
-49.43
-28.68
-5.40
17.21
36.70
51.78
62.22
68.63
71.92
73.08
72.97
72.32
71.70
71.57
72.15
73.39
75.03
76.76
78.33
79.73
81.14
82.79
84.78
86.95
88.82
89.80
89.34
87.03
82.82
76.92
69.86
62.36
55.14
48.71
43.12
37.96
32.54
26.17
18.51
9.74
0.47
-8.56
-16.79
-24.03
-30.49
-36.72
-43.43
-51.41
-61.32
-73.47
-87.40
-101.60
-113.59
-120.35
-119.25
-109.06
-90.39
-65.65
-38.26
-11.64
11.74
30.70
45.19
55.88
63.60
69.01
72.59
74.68
75.67
76.08
76.43
77.15
78.45
80.26
82.29
84.15
85.57
86.45
86.85
86.93
86.78
86.36
85.46
83.75
80.88
76.68
71.23
64.88
58.17
51.67
45.70
40.29
35.12
29.80
23.99
17.56
10.63
3.48
-3.57
-10.27
-16.53
-22.37
-28.06
-34.03
-40.91
-49.33
-59.73
-71.91
-84.79
-96.32
-103.81
-104.65
-97.12
-81.06
-58.06
-31.00
-3.33
21.96
42.92
58.88
70.15
77.60
82.13
84.49
85.32
85.19
84.77
84.66
85.25
86.52
88.02
89.10
89.21
88.20
86.32
84.09
81.98
80.23
78.71
77.07
74.85
71.67
67.29
61.67
55.02
47.68
40.18
32.97
26.35
20.30
14.55
8.65
2.24
-4.82
-12.37
-20.01
-27.26
-33.71
-39.17
-43.79
-48.05
-52.77
-58.89
-67.20
-77.87
-90.08
-101.81
-110.18
-112.19
-105.70
-90.18
-66.95
-38.81
-9.08
19.23
44.15
64.83
81.25
93.83
103.10
109.56
113.82
116.62
118.95
121.85
126.25
132.67
141.06
150.86
161.29
171.65
181.69
191.67
202.15
213.66
226.48
240.48
255.20
269.91
283.71
295.51
304.27
309.17
309.95
306.92
300.67
291.64
279.62
263.85
243.50
218.35
189.24
157.91
126.26
95.57
66.02
36.90
7.21
-23.66
-55.60
-88.02
-120.22
-151.74
-182.34
-211.82
-239.98
-266.70
-292.22
-317.06
-341.80
-366.49
-390.26
-411.44
-428.18
-439.26
-444.52
-444.73
-440.76
-432.72
-419.50
-399.12
-369.58
-329.85
-280.43
-223.44
-162.09
-99.90
-39.98
15.51
65.57
110.22
150.26
186.84
221.10
254.02
286.21
317.92
348.85
378.19
404.64
426.71
443.11
453.11
456.82
454.99
448.61
438.45
424.80
407.56
386.54
361.89
334.24
304.66
274.29
244.07
214.52
185.84
158.21
132.07
108.21
87.54
70.58
57.07
45.85
35.29
23.87
10.83
-3.66
-18.74
-33.48
-47.43
-60.85
-74.39
-88.71
-104.00
-119.91
-135.78
-151.11
-165.89
-180.70
-196.49
-214.11
-233.97
-255.79
-278.86
-302.51
-326.50
-351.19
-377.18
-404.78
-433.47
-461.87
-488.10
-510.38
-527.44
-538.69
-544.04
-543.89
-539.24
-531.88
-524.53
-520.21
-521.21
-527.81
-537.64
-545.96
-547.20
-536.87
-513.11
-477.15
-432.57
-383.85
-334.79
-287.64
-243.13
-201.00
-160.74
-122.00
-84.65
-48.49
-13.06
22.31
58.23
94.93
132.14
169.13
205.31
240.70
276.23
313.43
353.40
395.70
437.67
474.71
501.62
514.25
510.72
491.70
459.72
418.05
369.87
318.02
264.99
213.15
164.46
120.09
80.14
43.66
9.26
-24.29
-57.54
-90.50
-122.93
-154.77
-186.41
-218.57
-251.86
-286.24
-320.53
-352.17
-377.57
-392.94
-395.39
-383.96
-359.99
-326.77
-288.46
-248.81
-210.28
-173.75
-138.94
-105.01
-71.12
-36.73
-1.66
33.73
68.40
100.62
128.26
149.49
163.41
170.54
172.59
171.85
170.33
169.20
168.71
168.47
167.88
166.42
163.74
159.55
153.64
145.86
136.39
125.73
114.74
104.39
95.36
87.80
81.13
74.35
66.38
56.63
45.24
32.97
20.92
9.98
0.53
-7.76
-15.69
-24.37
-34.82
-47.58
-62.40
-77.95
-91.86
-101.12
-102.89
-95.44
-78.81
-54.91
-27.02
1.22
26.83
48.12
64.71
77.18
86.44
93.22
97.98
100.90
102.20
102.26
101.72
101.26
101.42
102.37
103.91
105.71
107.43
109.02
110.58
112.19
113.67
114.40
113.55
110.30
104.39
96.16
86.64
77.05
68.45
61.30
55.35
49.95
44.24
37.68
30.13
21.89
13.47
5.36
-2.16
-9.13
-15.88
-23.01
-31.20
-40.99
-52.46
-64.86
-76.45
-84.77
-87.25
-82.00
-68.62
-48.38
-23.94
1.50
25.06
44.87
60.21
71.29
78.72
83.14
85.07
84.95
83.27
80.70
77.98
75.76
74.42
73.99
74.16
74.48
74.61
74.42
73.97
73.40
72.71
71.70
69.92
66.89
62.31
56.28
49.35
42.35
36.11
31.09
27.19
23.76
19.92
14.90
8.47
0.93
-6.95
-14.34
-20.70
-26.00
-30.72
-35.71
-41.90
-50.09
-60.56
-72.78
-85.17
-95.32
-100.38
-98.03
-87.25
-68.78
-44.97
-19.08
5.72
27.08
43.87
56.01
64.10
68.91
71.17
71.47
70.31
68.21
65.75
63.51
61.92
61.17
61.12
61.37
61.43
61.01
60.09
58.91
57.80
56.87
55.89
54.35
51.66
47.47
41.90
35.51
29.04
23.16
18.11
13.62
9.12
3.99
-2.12
-9.12
-16.53
-23.68
-30.03
-35.36
-39.88
-44.07
-48.63
-54.29
-61.63
-70.89
-81.67
-92.66
-101.69
-106.15
-103.75
-93.40
-75.79
-53.19
-28.82
-5.77
13.82
29.13
40.39
48.36
53.77
57.12
58.69
58.78
57.81
56.30
54.70
53.27
52.07
50.99
49.99
49.10
48.44
48.12
48.13
48.26
48.22
47.69
46.42
44.26
41.17
37.13
32.26
26.82
21.21
15.95
11.43
7.75
4.62
1.43
-2.44
-7.39
-13.37
-19.92
-26.35
-32.09
-36.86
-40.77
-44.24
-47.94
-52.55
-58.66
-66.53
-75.76
-85.14
-92.60
-95.71
-92.39
-81.69
-64.28
-42.32
-18.88
3.11
21.50
35.37
44.82
50.53
53.34
53.97
53.01
51.03
48.54
46.07
43.96
42.38
41.25
40.36
39.48
38.44
37.26
36.07
35.13
34.58
34.44
34.42
34.06
32.82
30.31
26.48
21.60
16.23
10.97
6.27
2.27
-1.17
-4.40
-7.80
-11.70
-16.22
-21.24
-26.48
-31.53
-36.04
-39.89
-43.20
-46.38
-49.98
-54.61
-60.69
-68.30
-76.91
-85.21
-91.28
-93.00
-88.73
-77.95
-61.55
-41.62
-20.80
-1.46
14.80
27.30
36.06
41.45
43.94
44.01
42.30
39.49
36.31
33.33
30.87
28.98
27.59
26.59
25.95
25.66
25.69
25.91
26.09
25.92
25.10
23.46
20.94
17.74
14.09
10.30
6.56
2.94
-0.64
-4.41
-8.54
-13.10
-17.96
-22.82
-27.34
-31.30
-34.72
-37.94
-41.51
-46.06
-52.08
-59.55
-67.85
-75.54
-80.72
-81.43
-76.33
-65.25
-49.31
-30.70
-11.94
4.80
18.21
27.96
34.34
37.89
39.04
38.05
35.18
30.88
25.88
21.12
17.41
15.21
14.48
14.76
15.38
15.81
15.76
15.26
14.51
13.70
12.82
11.61
9.65
6.55
2.15
-3.36
-9.44
-15.39
-20.61
-24.87
-28.33
-31.46
-34.93
-39.32
-45.07
-52.24
-60.39
-68.49
-74.92
-77.80
-75.54
-67.40
-53.88
-36.65
-18.06
-0.47
14.36
25.57
33.14
37.50
39.26
38.91
36.88
33.62
29.66
25.66
22.24
19.81
18.45
17.89
17.63
17.19
16.31
15.05
13.63
12.31
11.12
9.75
7.70
4.50
-0.04
-5.68
-11.81
-17.73
-22.96
-27.37
-31.22
-34.99
-39.28
-44.62
-51.36
-59.53
-68.61
-77.34
-83.87
-86.10
-82.41
-72.32
-56.74
-37.79
-18.14
-0.22
14.45
25.38
32.94
37.91
41.05
42.89
43.65
43.42
42.32
40.60
38.65
36.86
35.52
34.69
34.19
33.74
33.07
32.01
30.58
28.86
26.91
24.70
22.09
18.85
14.75
9.66
3.64
-3.04
-9.95
-16.55
-22.44
-27.46
-31.79
-35.90
-40.35
-45.69
-52.32
-60.37
-69.57
-79.08
-87.43
-92.71
-93.00
-86.99
-74.56
-56.92
-36.42
-15.78
2.71
17.70
28.98
37.10
42.95
47.25
50.39
52.47
53.49
53.52
52.71
51.33
49.61
47.74
45.87
44.12
42.63
41.47
40.60
39.82
38.79
37.18
34.77
31.56
27.74
23.59
19.38
15.19
10.95
6.45
1.49
-3.99
-9.88
-15.89
-21.71
-27.13
-32.15
-37.06
-42.34
-48.61
-56.35
-65.61
-75.73
-85.22
-91.96
-93.72
-88.92
-77.22
-59.77
-38.89
-17.36
2.39
18.83
31.49
40.65
46.98
51.16
53.77
55.22
55.80
55.76
55.22
54.26
52.92
51.26
49.44
47.66
46.15
45.07
44.44
44.08
43.68
42.79
41.00
38.04
33.93
28.99
23.73
18.64
13.98
9.70
5.40
0.62
-4.95
-11.29
-18.05
-24.69
-30.68
-35.79
-40.12
-44.19
-48.79
-54.76
-62.56
-71.94
-81.64
-89.49
-92.99
-90.11
-80.13
-63.88
-43.60
-22.11
-1.99
15.06
28.42
38.25
45.11
49.59
52.17
53.23
53.07
52.03
50.45
48.58
46.66
44.86
43.31
42.08
41.22
40.74
40.60
40.66
40.63
40.11
38.64
35.92
31.93
26.99
21.66
16.51
11.86
7.67
3.57
-0.88
-5.97
-11.67
-17.59
-23.22
-28.14
-32.24
-35.81
-39.43
-43.84
-49.66
-57.04
-65.47
-73.66
-79.71
-81.60
-77.81
-67.89
-52.73
-34.33
-15.13
2.63
17.50
28.92
37.06
42.38
45.32
46.20
45.27
42.89
39.62
36.14
33.13
31.07
30.15
30.23
30.99
32.03
32.95
33.43
33.21
32.13
30.17
27.42
24.09
20.36
16.36
12.10
7.51
2.54
-2.74
-8.13
-13.32
-18.03
-22.13
-25.74
-29.20
-33.04
-37.87
-44.18
-52.08
-61.04
-69.82
-76.54
-79.15
-76.06
-66.73
-51.95
-33.64
-14.29
3.79
18.99
30.65
38.84
44.09
47.00
48.10
47.81
46.45
44.32
41.69
38.84
36.10
33.76
32.11
31.33
31.36
31.93
32.62
32.94
32.50
31.11
28.73
25.48
21.54
17.10
12.30
7.22
1.90
-3.62
-9.28
-14.94
-20.39
-25.44
-29.98
-34.06
-37.97
-42.17
-47.23
-53.60
-61.33
-69.82
-77.67
-82.88
-83.39
-77.83
-66.00
-49.09
-29.34
-9.34
8.69
23.43
34.52
42.26
47.24
50.06
51.19
50.99
49.78
47.86
45.56
43.17
40.93
38.99
37.42
36.22
35.34
34.71
34.22
33.74
33.08
31.96
30.12
27.36
23.68
19.27
14.40
9.35
4.21
-1.07
-6.62
-12.43
-18.36
-24.08
-29.31
-33.92
-38.10
-42.30
-47.10
-52.99
-60.16
-68.30
-76.43
-82.98
-86.03
-83.87
-75.55
-61.34
-42.78
-22.26
-2.36
14.84
28.25
37.71
43.79
47.29
48.98
49.37
48.83
47.61
45.95
44.05
42.08
40.10
38.16
36.29
34.60
33.24
32.29
31.73
31.30
30.62
29.28
26.99
23.72
19.63
15.09
10.37
5.66
0.91
-4.01
-9.21
-14.66
-20.15
-25.39
-30.18
-34.49
-38.55
-42.77
-47.71
-53.86
-61.41
-69.99
-78.50
-85.14
-87.83
-84.85
-75.44
-60.24
-41.12
-20.65
-1.33
15.07
27.74
36.76
42.69
46.23
47.99
48.44
47.96
46.87
45.41
43.76
42.01
40.19
38.32
36.51
34.93
33.77
33.12
32.88
32.72
32.15
30.70
28.10
24.40
19.91
15.08
10.28
5.67
1.17
-3.47
-8.46
-13.88
-19.59
-25.28
-30.60
-35.31
-39.47
-43.42
-47.79
-53.23
-60.11
-68.23
-76.56
-83.39
-86.65
-84.53
-76.09
-61.65
-42.81
-22.00
-1.85
15.58
29.16
38.81
45.08
48.80
50.68
51.14
50.44
48.80
46.51
43.93
41.37
39.05
37.05
35.39
34.07
33.13
32.58
32.34
32.15
31.66
30.43
28.14
24.69
20.27
15.26
10.14
5.26
0.71
-3.67
-8.19
-13.10
-18.47
-24.10
-29.65
-34.81
-39.42
-43.51
-47.37
-51.46
-56.33
-62.39
-69.64
-77.33
-83.95
-87.40
-85.74
-77.86
-64.00
-45.83
-25.91
-6.88
9.36
21.91
30.88
36.88
40.60
42.47
42.66
41.28
38.60
35.14
31.62
28.77
27.04
26.47
26.74
27.31
27.69
27.56
26.86
25.69
24.15
22.24
19.84
16.79
12.96
8.38
3.25
-2.15
-7.51
-12.60
-17.34
-21.72
-25.79
-29.64
-33.41
-37.37
-41.92
-47.52
-54.33
-61.95
-69.17
-74.12
-74.82
-69.83
-58.85
-42.87
-23.98
-4.62
13.03
27.55
38.40
45.72
49.99
51.77
51.56
49.83
47.08
43.83
40.65
38.04
36.35
35.70
35.96
36.90
38.19
39.57
40.89
42.08
43.11
43.96
44.54
44.76
44.55
43.97
43.16
42.33
41.68
41.38
41.52
42.24
43.63
45.79
48.69
52.05
55.36
58.09
60.09
62.05
65.59
73.02
86.61
107.93
137.15
173.05
213.19
254.30
292.70
324.62
346.67
356.44
353.19
338.17
314.49
286.24
257.37
230.67
207.26
186.74
167.75
148.73
128.36
106.00
81.64
55.81
29.29
2.74
-23.61
-50.10
-77.49
-106.58
-137.79
-170.85
-204.97
-239.15
-272.64
-305.23
-337.18
-369.17
-402.23
-437.83
-477.74
-523.15
-573.22
-623.96
-668.08
-696.57
-701.82
-680.37
-634.21
-569.71
-494.94
-416.98
-340.61
-268.73
-203.65
-147.97
-104.06
-72.74
-52.21
-38.11
-25.07
-8.97
11.68
35.57
59.65
80.94
97.85
110.56
120.41
128.94
136.92
144.10
149.45
151.82
150.73
146.53
140.22
132.96
125.55
118.12
110.29
101.51
91.48
80.39
68.83
57.61
47.31
38.18
30.01
22.25
14.20
5.14
-5.44
-17.66
-30.98
-44.07
-54.87
-61.01
-60.54
-52.64
-38.07
-18.96
1.78
21.41
38.06
51.06
60.66
67.55
72.34
75.38
76.79
76.72
75.49
73.63
71.69
70.04
68.79
67.81
66.93
66.05
65.24
64.60
64.11
63.48
62.26
59.91
56.19
51.20
45.38
39.31
33.39
27.73
22.10
16.18
9.76
2.87
-4.18
-11.05
-17.45
-23.37
-29.07
-35.07
-41.95
-50.23
-60.04
-70.83
-81.19
-89.02
-91.97
-88.21
-77.10
-59.60
-37.95
-15.06
6.39
24.62
38.94
49.51
56.89
61.60
64.00
64.35
62.97
60.37
57.22
54.18
51.74
50.17
49.43
49.37
49.70
50.11
50.31
49.99
48.96
47.14
44.60
41.54
38.10
34.31
30.03
25.04
19.25
12.82
6.19
-0.15
-5.81
-10.76
-15.29
-19.89
-25.10
-31.35
-38.89
-47.69
-57.30
-66.72
-74.31
-78.06
-76.13
-67.51
-52.50
-32.80
-11.06
9.95
28.05
42.11
52.00
58.19
61.33
61.93
60.34
56.96
52.37
47.38
42.91
39.72
38.18
38.15
39.06
40.15
40.70
40.32
38.94
36.80
34.25
31.49
28.49
24.96
20.47
14.74
7.82
0.13
-7.59
-14.60
-20.41
-24.99
-28.84
-32.75
-37.60
-44.03
-52.28
-61.98
-72.12
-81.05
-86.76
-87.29
-81.30
-68.66
-50.58
-29.46
-8.10
11.06
26.56
38.09
46.10
51.33
54.31
55.36
54.67
52.59
49.71
46.76
44.35
42.82
42.14
42.00
41.97
41.67
40.83
39.39
37.45
35.23
32.85
30.24
27.14
23.15
17.98
11.62
4.43
-2.94
-9.85
-15.86
-20.92
-25.34
-29.65
-34.53
-40.51
-47.95
-56.83
-66.56
-75.93
-83.18
-86.34
-83.76
-74.70
-59.63
-40.25
-19.05
1.46
19.34
33.64
44.32
51.89
56.96
60.01
61.30
61.06
59.63
57.56
55.40
53.57
52.16
50.97
49.65
47.93
45.83
43.60
41.60
40.06
38.97
37.95
36.41
33.68
29.33
23.29
15.91
7.92
0.15
-6.71
-12.38
-17.05
-21.30
-25.89
-31.53
-38.68
-47.40
-57.24
-67.23
-75.89
-81.38
-81.92
-76.33
-64.53
-47.72
-28.15
-8.48
9.01
23.02
33.35
40.58
45.53
48.82
50.64
50.98
49.84
47.48
44.49
41.54
39.15
37.52
36.48
35.69
34.84
33.76
32.52
31.27
30.11
28.98
27.58
25.54
22.52
18.36
13.18
7.33
1.31
-4.43
-9.57
-14.04
-18.00
-21.81
-25.92
-30.79
-36.81
-44.13
-52.52
-61.21
-68.86
-73.76
-74.23
-69.16
-58.50
-43.33
-25.68
-7.87
8.06
20.85
30.17
36.31
39.90
41.52
41.58
40.36
38.16
35.41
32.65
30.40
28.96
28.30
28.06
27.74
26.94
25.56
23.78
21.97
20.38
18.96
17.33
14.92
11.23
6.14
0.01
-6.45
-12.45
-17.44
-21.31
-24.40
-27.36
-30.93
-35.70
-41.85
-49.10
-56.50
-62.62
-65.77
-64.47
-57.96
-46.54
-31.57
-15.04
1.03
15.07
26.28
34.50
39.93
42.84
43.39
41.82
38.51
34.15
29.58
25.62
22.78
21.11
20.27
19.71
18.95
17.81
16.39
14.95
13.73
12.67
11.42
9.47
6.38
1.95
-3.60
-9.70
-15.62
-20.75
-24.80
-27.93
-30.69
-33.84
-38.13
-44.02
-51.47
-59.77
-67.56
-73.05
-74.45
-70.51
-61.02
-46.90
-30.05
-12.75
3.01
15.99
25.83
32.83
37.56
40.46
41.78
41.60
40.06
37.49
34.40
31.43
29.06
27.52
26.67
26.14
25.48
24.40
22.86
21.04
19.19
17.40
15.54
13.24
10.11
5.93
0.77
-4.99
-10.81
-16.23
-21.00
-25.15
-28.92
-32.68
-36.82
-41.70
-47.59
-54.57
-62.32
-69.91
-75.86
-78.36
-75.80
-67.40
-53.60
-36.09
-17.30
0.31
15.00
26.07
33.81
39.00
42.46
44.68
45.79
45.74
44.55
42.45
39.86
37.22
34.93
33.15
31.89
31.03
30.36
29.69
28.81
27.51
25.64
23.13
20.01
16.41
12.52
8.49
4.41
0.29
-3.99
-8.52
-13.37
-18.48
-23.65
-28.59
-33.08
-37.10
-40.91
-45.07
-50.23
-56.82
-64.71
-72.99
-79.99
-83.67
-82.21
-74.61
-61.10
-43.17
-23.16
-3.60
13.44
26.78
36.19
42.16
45.50
47.07
47.50
47.24
46.52
45.50
44.24
42.75
41.05
39.11
37.05
35.08
33.45
32.35
31.78
31.47
30.95
29.75
27.56
24.34
20.33
15.89
11.31
6.74
2.10
-2.75
-7.91
-13.38
-18.97
-24.44
-29.52
-34.06
-38.10
-41.91
-45.98
-50.87
-57.01
-64.43
-72.46
-79.72
-84.30
-84.28
-78.39
-66.51
-49.83
-30.54
-11.18
6.06
19.89
29.96
36.66
40.66
42.61
42.99
42.12
40.28
37.80
35.08
32.54
30.53
29.21
28.59
28.49
28.64
28.76
28.59
27.96
26.79
25.03
22.68
19.77
16.36
12.59
8.55
4.30
-0.15
-4.81
-9.60
-14.36
-18.85
-22.87
-26.41
-29.66
-33.05
-37.05
-42.06
-48.22
-55.34
-62.70
-69.13
-73.05
-72.85
-67.34
-56.26
-40.56
-22.15
-3.44
13.40
26.96
36.74
42.98
46.25
47.10
45.92
42.99
38.71
33.66
28.66
24.55
21.95
21.06
21.57
22.75
23.78
24.01
23.22
21.62
19.62
17.59
15.57
13.27
10.24
6.13
0.95
-4.97
-11.03
-16.67
-21.55
-25.65
-29.20
-32.66
-36.57
-41.47
-47.75
-55.45
-64.01
-72.21
-78.25
-80.23
-76.67
-67.10
-52.28
-34.01
-14.67
3.51
18.89
30.76
39.09
44.32
47.00
47.63
46.61
44.35
41.29
37.91
34.74
32.19
30.50
29.70
29.56
29.69
29.61
28.96
27.56
25.52
23.11
20.57
18.00
15.20
11.83
7.57
2.37
-3.55
-9.70
-15.56
-20.75
-25.17
-29.01
-32.72
-36.90
-42.14
-48.91
-57.26
-66.67
-75.89
-83.06
-86.06
-83.23
-73.83
-58.45
-38.96
-17.95
1.97
18.81
31.59
40.37
45.87
49.01
50.55
50.94
50.37
48.99
47.02
44.85
42.88
41.39
40.46
39.90
39.44
38.82
37.89
36.63
35.07
33.22
31.06
28.48
25.34
21.51
16.92
11.63
5.80
-0.27
-6.31
-12.07
-17.45
-22.43
-27.12
-31.71
-36.48
-41.77
-48.00
-55.47
-64.16
-73.44
-81.98
-87.89
-89.18
-84.38
-73.09
-56.27
-36.02
-14.98
4.39
20.51
32.77
41.48
47.35
51.14
53.38
54.38
54.36
53.50
52.01
50.12
48.04
45.92
43.94
42.26
41.00
40.17
39.63
39.11
38.30
36.91
34.73
31.69
27.88
23.50
18.81
14.01
9.18
4.27
-0.86
-6.27
-11.91
-17.55
-22.93
-27.90
-32.48
-36.97
-41.82
-47.54
-54.44
-62.44
-70.83
-78.18
-82.58
-82.13
-75.55
-62.79
-45.12
-24.89
-4.74
13.09
27.29
37.57
44.40
48.58
50.83
51.69
51.47
50.41
48.74
46.77
44.83
43.19
41.99
41.21
40.69
40.21
39.52
38.46
36.95
35.02
32.73
30.14
27.23
23.95
20.24
16.08
11.48
6.50
1.17
-4.41
-10.11
-15.70
-20.90
-25.49
-29.49
-33.21
-37.26
-42.29
-48.73
-56.43
-64.56
-71.55
-75.55
-74.84
-68.43
-56.49
-40.29
-21.96
-3.85
12.10
24.68
33.57
39.03
41.61
41.90
40.42
37.70
34.30
30.91
28.16
26.50
26.02
26.48
27.39
28.20
28.50
28.12
27.10
25.63
23.91
21.97
19.72
16.90
13.29
8.77
3.41
-2.44
-8.33
-13.78
-18.49
-22.50
-26.12
-29.87
-34.29
-39.80
-46.52
-54.23
-62.21
-69.19
-73.54
-73.62
-68.30
-57.48
-42.22
-24.52
-6.71
9.21
22.07
31.56
37.97
41.85
43.67
43.78
42.48
40.14
37.27
34.40
32.05
30.52
29.81
29.75
29.98
30.14
29.93
29.22
28.00
26.33
24.30
21.89
19.07
15.71
11.70
7.01
1.69
-4.02
-9.79
-15.32
-20.32
-24.71
-28.58
-32.21
-36.01
-40.47
-46.01
-52.85
-60.77
-68.96
-75.95
-79.87
-78.95
-72.13
-59.50
-42.41
-23.10
-4.07
12.66
25.89
35.38
41.59
45.22
46.98
47.34
46.63
45.11
43.02
40.69
38.45
36.59
35.29
34.56
34.28
34.19
33.99
33.46
32.42
30.84
28.76
26.29
23.49
20.35
16.80
12.72
8.03
2.77
-2.90
-8.68
-14.24
-19.33
-23.83
-27.81
-31.51
-35.28
-39.59
-44.88
-51.39
-58.96
-66.75
-73.31
-76.75
-75.32
-68.01
-55.06
-37.92
-18.96
-0.70
14.88
26.78
34.95
40.09
43.07
44.66
45.30
45.19
44.45
43.21
41.70
40.18
38.84
37.78
36.96
36.28
35.68
35.11
34.51
33.76
32.64
30.90
28.33
24.93
20.87
16.48
12.07
7.83
3.73
-0.37
-4.65
-9.18
-13.84
-18.41
-22.67
-26.56
-30.22
-34.04
-38.52
-44.15
-51.15
-59.29
-67.67
-74.69
-78.37
-76.90
-69.31
-55.93
-38.39
-19.17
-0.82
14.74
26.67
35.06
40.55
43.93
45.74
46.32
45.84
44.54
42.73
40.78
38.99
37.51
36.33
35.31
34.32
33.38
32.60
32.12
31.91
31.71
31.03
29.34
26.34
22.13
17.25
12.42
8.27
5.03
2.49
0.09
-2.76
-6.47
-11.05
-16.13
-21.16
-25.68
-29.48
-32.74
-35.94
-39.72
-44.65
-50.99
-58.48
-66.14
-72.38
-75.29
-73.19
-65.24
-51.89
-34.80
-16.38
0.93
15.40
26.25
33.61
38.06
40.24
40.61
39.44
37.00
33.74
30.21
27.07
24.77
23.44
22.93
22.87
22.95
22.97
22.93
22.85
22.65
22.14
21.03
19.15
16.54
13.47
10.31
7.29
4.42
1.50
-1.77
-5.55
-9.80
-14.24
-18.48
-22.24
-25.44
-28.31
-31.34
-35.14
-40.24
-46.81
-54.38
-61.77
-67.23
-68.93
-65.48
-56.49
-42.75
-26.02
-8.57
7.45
20.51
29.87
35.56
38.15
38.42
37.16
35.03
32.49
29.88
27.43
25.32
23.75
22.83
22.56
22.82
23.39
23.99
24.34
24.21
23.41
21.81
19.42
16.36
12.79
8.87
4.69
0.25
-4.46
-9.42
-14.51
-19.51
-24.18
-28.35
-32.01
-35.34
-38.73
-42.68
-47.66
-53.93
-61.27
-68.79
-75.02
-78.12
-76.45
-69.11
-56.32
-39.45
-20.69
-2.43
13.34
25.47
33.73
38.56
40.77
41.11
40.21
38.48
36.22
33.73
31.35
29.45
28.23
27.73
27.81
28.19
28.56
28.70
28.47
27.77
26.49
24.51
21.77
18.28
14.22
9.86
5.45
1.09
-3.27
-7.83
-12.75
-18.05
-23.53
-28.88
-33.81
-38.19
-42.16
-46.08
-50.49
-55.93
-62.71
-70.68
-78.96
-85.96
-89.63
-88.00
-79.94
-65.65
-46.75
-25.86
-5.77
11.38
24.53
33.74
39.72
43.30
45.17
45.72
45.24
44.01
42.37
40.63
39.01
37.57
36.29
35.20
34.38
33.94
33.90
34.07
34.10
33.52
31.95
29.21
25.43
20.93
16.13
11.37
6.78
2.22
-2.59
-7.94
-13.89
-20.16
-26.27
-31.70
-36.22
-40.01
-43.66
-47.96
-53.63
-61.06
-70.01
-79.56
-88.07
-93.48
-93.78
-87.62
-74.85
-56.72
-35.56
-14.11
5.24
21.01
32.84
41.10
46.50
49.65
50.92
50.57
48.96
46.63
44.21
42.19
40.79
39.91
39.28
38.75
38.34
38.28
38.71
39.48
40.11
39.92
38.36
35.30
31.05
26.21
21.38
16.90
12.77
8.67
4.21
-0.89
-6.68
-12.88
-19.06
-24.80
-29.81
-34.18
-38.29
-42.82
-48.52
-55.93
-65.06
-75.11
-84.42
-90.77
-91.93
-86.41
-74.01
-55.99
-34.82
-13.37
5.84
21.25
32.47
39.98
44.74
47.64
49.29
49.92
49.56
48.28
46.33
44.15
42.22
40.88
40.21
40.03
40.05
40.02
39.79
39.25
38.31
36.77
34.44
31.23
27.25
22.80
18.17
13.55
8.93
4.21
-0.69
-5.74
-10.76
-15.56
-20.07
-24.38
-28.73
-33.49
-39.02
-45.65
-53.45
-61.97
-70.12
-76.17
-78.11
-74.23
-63.88
-47.77
-27.93
-7.13
12.01
27.67
39.10
46.53
50.63
52.17
51.70
49.59
46.18
41.97
37.64
33.90
31.41
30.45
30.91
32.30
33.92
35.09
35.36
34.53
32.70
30.09
26.95
23.42
19.52
15.18
10.35
5.06
-0.51
-6.12
-11.47
-16.35
-20.74
-24.78
-28.83
-33.31
-38.70
-45.37
-53.50
-62.76
-72.21
-80.18
-84.58
-83.45
-75.63
-61.36
-42.32
-21.17
-0.72
16.88
30.52
40.15
46.35
49.80
51.09
50.57
48.59
45.62
42.26
39.16
36.84
35.54
35.22
35.58
36.18
36.55
36.34
35.38
33.72
31.55
29.03
26.24
23.05
19.24
14.61
9.15
3.02
-3.42
-9.83
-15.89
-21.41
-26.35
-30.84
-35.19
-39.88
-45.46
-52.38
-60.72
-70.03
-79.12
-86.24
-89.39
-86.88
-77.91
-62.97
-43.81
-22.93
-2.90
14.32
27.81
37.58
44.20
48.38
50.67
51.47
51.13
50.04
48.63
47.21
45.91
44.73
43.58
42.46
41.48
40.78
40.43
40.28
40.00
39.13
37.31
34.40
30.49
25.93
21.09
16.20
11.28
6.12
0.48
-5.70
-12.24
-18.68
-24.55
-29.56
-33.80
-37.71
-41.96
-47.21
-53.88
-61.98
-70.93
-79.52
-85.98
-88.36
-85.01
-75.20
-59.51
-39.73
-18.45
1.72
18.80
31.85
40.91
46.70
50.17
52.10
53.05
53.26
52.85
51.90
50.50
48.84
47.12
45.52
44.17
43.12
42.30
41.62
40.91
40.00
38.67
36.70
33.91
30.28
25.92
21.08
16.05
11.02
6.08
1.17
-3.76
-8.71
-13.56
-18.19
-22.53
-26.69
-30.98
-35.86
-41.83
-49.18
-57.84
-67.16
-75.84
-82.07
-83.89
-79.78
-69.27
-53.26
-33.85
-13.73
4.58
19.47
30.44
37.91
42.73
45.67
47.22
47.64
47.08
45.77
43.99
42.03
40.09
38.38
37.01
36.11
35.68
35.57
35.46
35.01
33.98
32.30
30.08
27.45
24.41
20.87
16.71
11.89
6.53
0.92
-4.68
-10.01
-14.95
-19.49
-23.71
-27.82
-32.09
-36.91
-42.62
-49.39
-56.94
-64.42
-70.41
-73.16
-71.10
-63.40
-50.42
-33.65
-15.36
2.10
16.94
28.30
36.15
40.99
43.33
43.58
41.98
38.87
34.85
30.78
27.54
25.81
25.72
26.84
28.37
29.45
29.50
28.48
26.77
24.90
23.24
21.72
19.88
17.13
13.02
7.59
1.29
-5.09
-10.86
-15.61
-19.34
-22.46
-25.53
-29.13
-33.81
-39.92
-47.54
-56.23
-64.91
-71.91
-75.27
-73.32
-65.35
-51.95
-34.94
-16.83
-0.01
13.89
24.30
31.54
36.29
39.18
40.58
40.58
39.26
36.90
34.02
31.29
29.27
28.30
28.30
28.90
29.57
29.79
29.26
27.91
25.94
23.59
21.07
18.40
15.39
11.77
7.26
1.83
-4.30
-10.67
-16.72
-22.01
-26.45
-30.26
-33.93
-38.06
-43.15
-49.44
-56.80
-64.70
-72.12
-77.57
-79.40
-76.16
-67.17
-52.86
-34.79
-15.28
3.24
18.96
31.00
39.39
44.76
47.90
49.42
49.70
49.00
47.54
45.62
43.53
41.50
39.63
37.93
36.41
35.09
34.05
33.31
32.75
32.10
31.00
29.18
26.50
23.08
19.16
15.01
10.84
6.66
2.36
-2.26
-7.33
-12.81
-18.44
-23.87
-28.76
-33.04
-36.92
-40.93
-45.70
-51.76
-59.21
-67.57
-75.63
-81.58
-83.46
-79.69
-69.71
-54.28
-35.33
-15.42
3.03
18.31
29.76
37.60
42.57
45.47
46.97
47.46
47.20
46.40
45.24
43.95
42.63
41.34
40.02
38.68
37.37
36.25
35.47
35.01
34.64
33.91
32.31
29.48
25.42
20.44
15.11
9.97
5.34
1.28
-2.46
-6.23
-10.34
-14.86
-19.63
-24.29
-28.49
-32.04
-35.07
-38.03
-41.61
-46.49
-53.00
-60.81
-68.72
-74.83
-77.02
-73.62
-64.05
-49.21
-31.17
-12.64
3.93
16.98
26.08
31.73
34.90
36.51
37.16
37.12
36.45
35.22
33.61
31.91
30.42
29.31
28.58
28.08
27.58
26.90
25.97
24.79
23.44
21.97
20.37
18.57
16.45
13.90
10.85
7.24
3.09
-1.54
-6.48
-11.48
-16.24
-20.51
-24.18
-27.38
-30.45
-33.90
-38.21
-43.66
-50.08
-56.74
-62.36
-65.34
-64.18
-58.02
-46.97
-32.21
-15.65
0.55
14.62
25.47
32.80
36.91
38.39
37.90
36.00
33.17
29.85
26.52
23.63
21.56
20.51
20.39
20.87
21.49
21.80
21.49
20.46
18.80
16.72
14.40
11.89
9.11
5.85
1.94
-2.70
-7.85
-13.07
-17.86
-21.84
-24.97
-27.55
-30.16
-33.40
-37.78
-43.52
-50.52
-58.22
-65.56
-70.96
-72.67
-69.25
-60.13
-46.02
-28.82
-11.06
4.89
17.49
26.28
31.72
34.63
35.80
35.71
34.59
32.63
30.16
27.62
25.48
24.05
23.36
23.15
23.04
22.69
21.91
20.71
19.22
17.60
15.91
14.02
11.67
8.55
4.37
-0.91
-7.05
-13.53
-19.63
-24.78
-28.67
-31.51
-33.95
-36.87
-41.11
-47.10
-54.67
-62.95
-70.51
-75.59
-76.54
-72.24
-62.49
-48.13
-30.94
-13.09
3.33
16.86
26.91
33.59
37.50
39.30
39.60
38.82
37.31
35.38
33.33
31.38
29.62
28.01
26.39
24.59
22.62
20.62
18.86
17.55
16.65
15.78
14.30
11.57
7.24
1.45
-5.16
-11.71
-17.42
-21.94
-25.49
-28.77
-32.78
-38.36
-45.88
-54.89
-64.06
-71.43
-74.83
-72.64
-64.26
-50.47
-33.18
-14.88
2.10
16.22
26.91
34.43
39.41
42.51
44.09
44.31
43.29
41.28
38.69
35.97
33.48
31.35
29.48
27.70
25.90
24.10
22.43
21.02
19.83
18.60
16.83
13.98
9.67
3.93
-2.81
-9.81
-16.25
-21.61
-25.80
-29.22
-32.67
-37.04
-43.02
-50.75
-59.56
-67.97
-73.90
-75.24
-70.49
-59.41
-43.18
-24.11
-4.89
12.16
25.74
35.58
42.20
46.46
49.06
50.43
50.73
50.00
48.38
46.16
43.75
41.58
39.97
38.98
38.48
38.16
37.68
36.82
35.50
33.81
31.89
29.82
27.56
24.93
21.67
17.57
12.59
6.91
0.91
-4.97
-10.40
-15.27
-19.69
-23.93
-28.33
-33.19
-38.83
-45.55
-53.44
-62.24
-70.97
-78.02
-81.35
-79.15
-70.54
-55.99
-37.30
-17.09
1.97
17.92
29.86
37.95
42.91
45.61
46.71
46.58
45.43
43.48
41.08
38.68
36.67
35.24
34.34
33.70
33.01
32.03
30.68
29.06
27.33
25.63
23.98
22.24
20.10
17.23
13.36
8.48
2.84
-3.04
-8.62
-13.45
-17.39
-20.56
-23.33
-26.20
-29.70
-34.28
-40.23
-47.48
-55.46
-62.96
-68.26
-69.51
-65.30
-55.23
-40.20
-22.22
-3.79
12.79
26.05
35.49
41.33
44.12
44.38
42.51
38.88
34.10
28.97
24.46
21.31
19.80
19.69
20.34
21.05
21.31
21.01
20.33
19.55
18.80
17.94
16.53
14.07
10.17
4.83
-1.52
-8.16
-14.31
-19.37
-23.23
-26.19
-28.94
-32.24
-36.76
-42.81
-50.20
-58.14
-65.26
-69.78
-69.94
-64.54
-53.41
-37.65
-19.35
-1.00
15.23
27.98
36.89
42.31
44.90
45.30
44.01
41.45
38.13
34.58
31.37
28.84
27.04
25.76
24.65
23.45
22.12
20.78
19.64
18.77
18.01
16.89
14.83
11.34
6.33
0.13
-6.53
-12.86
-18.26
-22.57
-26.19
-29.87
-34.47
-40.64
-48.46
-57.28
-65.65
-71.58
-73.11
-68.89
-58.69
-43.62
-25.80
-7.74
8.38
21.27
30.64
36.87
40.68
42.68
43.22
42.53
40.83
38.43
35.68
32.91
30.27
27.78
25.48
23.42
21.71
20.43
19.45
18.44
16.90
14.42
10.79
6.09
0.66
-5.08
-10.69
-15.86
-20.47
-24.68
-28.97
-34.00
-40.36
-48.14
-56.63
-64.18
-68.65
-68.01
-61.10
-48.19
-30.94
-11.92
6.21
21.46
32.93
40.73
45.56
48.20
49.18
48.72
46.98
44.25
41.06
38.02
35.63
34.01
32.95
32.05
30.95
29.47
27.67
25.76
23.93
22.21
20.41
18.15
14.98
10.61
5.02
-1.42
-8.04
-14.15
-19.27
-23.34
-26.76
-30.26
-34.64
-40.55
-48.20
-57.20
-66.39
-74.00
-77.98
-76.57
-68.93
-55.49
-37.94
-18.69
-0.22
15.63
27.97
36.86
42.87
46.71
48.95
49.88
49.66
48.45
46.57
44.43
42.46
40.94
39.86
39.04
38.24
37.33
36.34
35.38
34.51
33.58
32.30
30.33
27.47
23.75
19.37
14.61
9.71
4.81
-0.04
-4.83
-9.55
-14.18
-18.72
-23.13
-27.42
-31.66
-36.00
-40.75
-46.28
-52.88
-60.37
-68.00
-74.23
-77.18
-75.09
-67.06
-53.44
-35.84
-16.69
1.54
17.03
28.95
37.40
42.98
46.33
47.95
48.10
47.01
45.02
42.51
39.89
37.48
35.46
33.87
32.76
32.12
31.94
32.07
32.27
32.20
31.52
29.98
27.49
24.12
20.13
15.81
11.48
7.28
3.23
-0.82
-5.00
-9.33
-13.71
-17.92
-21.84
-25.46
-29.01
-32.82
-37.26
-42.57
-48.76
-55.44
-61.72
-66.20
-67.23
-63.47
-54.39
-40.64
-23.97
-6.66
9.10
21.86
31.06
36.86
39.78
40.32
38.85
35.67
31.24
26.26
21.63
18.22
16.58
16.74
18.14
19.93
21.23
21.55
20.83
19.41
17.72
16.05
14.41
12.54
10.14
6.96
2.95
-1.74
-6.73
-11.58
-15.84
-19.32
-22.13
-24.70
-27.67
-31.60
-36.88
-43.48
-50.93
-58.27
-64.06
-66.66
-64.60
-57.15
-44.68
-28.72
-11.57
4.40
17.47
26.92
32.97
36.30
37.63
37.40
35.84
33.14
29.64
25.89
22.55
20.17
19.00
18.94
19.57
20.36
20.78
20.53
19.53
17.93
15.96
13.80
11.47
8.84
5.63
1.62
-3.22
-8.69
-14.34
-19.63
-24.17
-27.85
-30.92
-33.92
-37.47
-42.13
-48.20
-55.58
-63.57
-70.93
-75.89
-76.63
-71.82
-61.20
-45.83
-27.82
-9.70
6.36
19.11
28.33
34.50
38.32
40.37
40.91
40.14
38.34
35.93
33.50
31.52
30.21
29.53
29.20
28.94
28.57
28.09
27.62
27.24
26.89
26.31
25.16
23.13
20.06
16.12
11.66
7.19
3.18
-0.08
-2.59
-4.61
-6.55
-8.84
-11.76
-15.29
-19.03
-22.13
-23.50
-22.15
-17.52
-9.60
1.19
14.34
29.48
46.41
64.79
83.97
103.05
121.21
138.07
153.71
168.26
181.30
191.69
197.79
198.31
192.88
182.21
167.49
149.72
129.32
106.45
81.62
56.01
31.11
7.89
-14.04
-36.59
-62.28
-92.84
-127.80
-164.01
-196.40
-219.53
-229.51
-225.20
-208.52
-183.53
-155.11
-127.68
-104.42
-87.19
-76.60
-72.14
-72.31
-74.76
-76.73
-75.92
-71.24
-63.05
-52.75
-41.86
-31.36
-21.46
-12.05
-3.13
4.97
11.91
17.77
23.19
29.07
35.89
43.30
50.19
55.03
56.49
53.65
46.12
33.86
17.29
-2.60
-24.17
-45.36
-64.16
-79.24
-90.25
-97.86
-103.44
-108.61
-114.90
-123.40
-134.45
-147.40
-160.54
-171.33
-177.08
-175.89
-167.30
-152.55
-134.21
-115.29
-98.47
-85.51
-77.22
-73.62
-74.16
-77.62
-82.10
-85.01
-83.54
-75.42
-59.76
-37.43
-10.96
16.29
41.12
61.33
76.14
85.90
91.67
94.46
94.99
93.61
90.58
86.41
81.92
78.11
75.75
75.12
75.80
76.94
77.64
77.34
76.01
74.09
72.16
70.66
69.62
68.68
67.24
64.72
60.91
56.03
50.65
45.46
40.87
36.85
32.92
28.22
21.81
12.91
1.04
-13.68
-30.40
-47.38
-62.14
-71.90
-74.39
-68.63
-55.47
-37.37
-17.64
0.70
15.89
27.71
37.11
45.37
53.14
60.20
65.56
68.13
67.36
63.57
57.82
51.53
45.88
41.55
38.55
36.43
34.58
32.50
30.04
27.30
24.54
21.88
19.16
15.92
11.64
6.01
-0.83
-8.30
-15.58
-21.99
-27.26
-31.62
-35.65
-40.00
-45.25
-51.78
-59.78
-69.12
-79.24
-88.94
-96.43
-99.67
-96.98
-87.68
-72.42
-53.04
-32.02
-11.69
6.32
21.25
33.05
42.02
48.44
52.51
54.34
54.17
52.39
49.63
46.64
44.05
42.31
41.48
41.33
41.45
41.45
41.07
40.27
39.14
37.76
36.09
33.91
30.89
26.69
21.18
14.54
7.22
-0.13
-6.88
-12.64
-17.42
-21.60
-25.80
-30.77
-37.14
-45.19
-54.70
-64.69
-73.48
-79.01
-79.28
-73.04
-60.31
-42.40
-21.67
-0.75
18.09
33.51
45.10
53.16
58.25
60.84
61.24
59.67
56.51
52.45
48.41
45.31
43.70
43.48
43.97
44.22
43.47
41.51
38.74
35.82
33.30
31.24
29.22
26.55
22.64
17.25
10.60
3.22
-4.28
-11.46
-18.05
-24.04
-29.64
-35.25
-41.38
-48.63
-57.47
-67.89
-79.19
-89.74
-97.25
-99.32
-94.24
-81.67
-62.90
-40.52
-17.68
2.88
19.48
31.70
40.00
45.22
48.06
48.88
47.85
45.27
41.74
38.09
35.16
33.45
32.95
33.16
33.43
33.23
32.35
30.90
29.16
27.33
25.40
23.14
20.20
16.27
11.16
4.96
-1.99
-9.20
-16.12
-22.37
-27.80
-32.60
-37.24
-42.31
-48.39
-55.91
-64.90
-74.77
-84.22
-91.30
-93.79
-89.88
-78.82
-61.29
-39.31
-15.69
6.87
26.39
42.03
53.85
62.44
68.38
72.02
73.45
72.79
70.36
66.77
62.88
59.48
57.11
55.87
55.44
55.28
54.83
53.71
51.80
49.19
46.01
42.32
38.12
33.32
27.82
21.62
14.82
7.61
0.28
-6.90
-13.66
-19.84
-25.40
-30.50
-35.57
-41.26
-48.34
-57.38
-68.41
-80.51
-91.71
-99.37
-100.88
-94.50
-80.10
-59.27
-34.88
-10.22
11.94
29.95
43.36
52.62
58.61
62.13
63.73
63.72
62.33
59.84
56.70
53.46
50.60
48.43
46.95
45.89
44.88
43.58
41.84
39.67
37.26
34.77
32.23
29.47
26.13
21.88
16.57
10.36
3.71
-2.83
-8.87
-14.34
-19.43
-24.52
-29.96
-36.02
-42.89
-50.69
-59.43
-68.77
-77.74
-84.71
-87.67
-84.84
-75.37
-59.76
-39.81
-18.09
2.82
20.97
35.34
45.73
52.38
55.66
55.94
53.65
49.40
44.10
38.87
34.71
32.25
31.55
32.09
33.05
33.68
33.56
32.71
31.42
29.93
28.22
25.92
22.48
17.48
10.91
3.25
-4.66
-11.98
-18.13
-23.09
-27.29
-31.51
-36.55
-43.03
-51.15
-60.54
-70.21
-78.56
-83.65
-83.66
-77.45
-64.99
-47.52
-27.26
-6.72
11.90
27.16
38.56
46.24
50.64
52.23
51.40
48.54
44.17
39.07
34.11
30.12
27.58
26.44
26.22
26.19
25.77
24.69
23.11
21.37
19.68
17.89
15.45
11.70
6.25
-0.79
-8.75
-16.65
-23.59
-29.12
-33.38
-37.01
-40.98
-46.24
-53.49
-62.89
-73.80
-84.69
-93.28
-97.02
-93.92
-83.22
-65.80
-43.99
-20.80
1.00
19.55
34.12
44.86
52.28
56.84
58.83
58.49
56.17
52.53
48.37
44.48
41.39
39.25
37.85
36.75
35.51
33.88
31.83
29.56
27.31
25.22
23.11
20.58
17.08
12.18
5.78
-1.80
-9.94
-17.89
-25.04
-31.11
-36.17
-40.72
-45.51
-51.36
-58.94
-68.33
-78.83
-88.79
-95.88
-97.66
-92.36
-79.56
-60.42
-37.41
-13.52
8.53
26.99
41.22
51.47
58.40
62.68
64.82
65.17
64.07
61.94
59.24
56.42
53.79
51.55
49.75
48.34
47.16
46.02
44.65
42.83
40.41
37.36
33.76
29.71
25.32
20.62
15.56
10.12
4.27
-1.92
-8.33
-14.73
-20.85
-26.48
-31.55
-36.23
-40.93
-46.31
-53.01
-61.43
-71.32
-81.58
-90.25
-94.91
-93.39
-84.50
-68.59
-47.53
-24.22
-1.65
17.81
33.00
43.87
51.06
55.40
57.58
58.02
57.02
54.92
52.15
49.23
46.60
44.53
43.09
42.19
41.69
41.44
41.24
40.86
40.00
38.38
35.79
32.14
27.51
22.04
15.93
9.34
2.47
-4.49
-11.26
-17.60
-23.31
-28.34
-32.81
-37.03
-41.42
-46.45
-52.57
-60.10
-68.99
-78.54
-87.31
-93.27
-94.29
-88.86
-76.70
-58.97
-37.95
-16.36
3.45
19.96
32.65
41.64
47.35
50.17
50.41
48.46
44.93
40.69
36.75
33.94
32.65
32.73
33.57
34.38
34.53
33.74
32.14
30.08
27.87
25.57
22.95
19.55
14.96
9.01
1.95
-5.65
-13.06
-19.72
-25.41
-30.32
-34.99
-40.09
-46.25
-53.92
-63.24
-73.88
-84.87
-94.50
-100.63
-101.17
-94.78
-81.46
-62.67
-40.94
-19.15
0.28
15.90
27.29
34.83
39.16
40.88
40.39
38.03
34.25
29.73
25.41
22.15
20.50
20.50
21.60
22.99
23.89
23.87
22.89
21.22
19.17
16.87
14.20
10.86
6.52
1.02
-5.49
-12.59
-19.65
-26.09
-31.58
-36.12
-40.11
-44.19
-49.11
-55.48
-63.70
-73.66
-84.65
-95.22
-103.31
-106.61
-103.27
-92.51
-75.06
-53.10
-29.59
-7.44
11.30
25.82
36.34
43.63
48.48
51.37
52.51
52.07
50.40
48.08
45.83
44.20
43.45
43.51
44.10
44.92
45.73
46.43
46.88
46.88
46.19
44.61
42.06
38.63
34.49
29.72
24.32
18.20
11.40
4.11
-3.28
-10.38
-16.99
-23.23
-29.50
-36.34
-44.27
-53.61
-64.41
-76.23
-87.97
-97.86
-103.66
-103.31
-95.58
-80.65
-60.20
-36.96
-13.90
6.56
23.06
35.35
43.93
49.60
53.06
54.73
54.83
53.61
51.44
48.87
46.53
44.90
44.17
44.17
44.51
44.85
44.94
44.75
44.27
43.45
42.05
39.80
36.56
32.44
27.85
23.27
19.07
15.30
11.64
7.58
2.64
-3.40
-10.39
-17.87
-25.25
-32.04
-38.12
-43.71
-49.50
-56.33
-64.90
-75.37
-86.94
-97.84
-105.60
-107.66
-102.22
-88.84
-68.70
-44.25
-18.56
5.57
26.26
42.73
55.15
64.19
70.54
74.68
76.91
77.50
76.87
75.58
74.16
72.91
71.83
70.67
69.22
67.49
65.76
64.36
63.41
62.67
61.47
59.04
54.85
48.91
41.78
34.33
27.40
21.44
16.34
11.59
6.51
0.58
-6.32
-13.93
-21.71
-29.08
-35.69
-41.47
-46.77
-52.20
-58.49
-66.26
-75.66
-86.15
-96.30
-103.95
-106.71
-102.64
-90.96
-72.47
-49.35
-24.59
-1.12
18.89
34.42
45.47
52.59
56.50
57.75
56.74
53.85
49.63
44.79
40.22
36.70
34.69
34.26
35.02
36.40
37.73
38.53
38.56
37.82
36.34
34.15
31.14
27.16
22.07
15.92
8.94
1.61
-5.56
-12.15
-17.93
-22.97
-27.55
-32.07
-36.94
-42.58
-49.40
-57.74
-67.61
-78.38
-88.53
-95.77
-97.66
-92.35
-79.40
-60.06
-36.96
-13.22
8.42
26.22
39.57
48.65
54.01
56.14
55.51
52.61
48.13
42.99
38.17
34.54
32.54
32.14
32.84
33.87
34.49
34.18
32.75
30.36
27.29
23.87
20.25
16.35
11.96
6.79
0.70
-6.21
-13.63
-21.07
-28.03
-34.23
-39.67
-44.62
-49.65
-55.45
-62.64
-71.64
-82.27
-93.51
-103.48
-109.66
-109.59
-101.69
-85.89
-63.80
-38.23
-12.37
11.14
30.69
45.89
57.24
65.72
72.31
77.70
82.09
85.18
86.31
84.86
80.68
74.33
67.01
60.15
54.75
51.08
48.59
46.34
43.49
39.65
34.96
29.71
24.11
18.09
11.36
3.75
-4.61
-13.24
-21.40
-28.49
-34.22
-38.80
-42.85
-47.28
-53.00
-60.75
-70.82
-82.86
-95.67
-107.26
-115.12
-116.90
-111.05
-97.51
-77.71
-54.30
-30.26
-8.10
10.68
25.70
37.27
45.99
52.24
56.19
57.87
57.47
55.44
52.46
49.26
46.41
44.21
42.62
41.47
40.42
39.23
37.75
35.95
33.92
31.71
29.32
26.62
23.33
19.21
14.15
8.28
2.01
-4.12
-9.64
-14.35
-18.42
-22.23
-26.29
-31.10
-37.07
-44.42
-53.08
-62.53
-71.59
-78.47
-81.14
-77.86
-67.88
-51.82
-31.57
-9.77
10.99
28.85
43.00
53.52
61.00
66.01
68.92
69.83
68.83
66.16
62.37
58.18
54.31
51.21
48.98
47.39
46.02
44.50
42.60
40.34
37.82
35.18
32.43
29.43
25.91
21.55
16.15
9.72
2.53
-4.91
-12.06
-18.44
-23.86
-28.44
-32.58
-36.88
-41.95
-48.34
-56.36
-65.92
-76.36
-86.33
-93.92
-97.04
-94.00
-84.14
-68.17
-48.00
-26.21
-5.32
12.85
27.46
38.49
46.39
51.67
54.71
55.76
55.09
53.10
50.35
47.42
44.85
42.96
41.84
41.39
41.37
41.49
41.43
40.88
39.58
37.36
34.21
30.33
26.08
21.85
17.99
14.59
11.47
8.28
4.62
0.25
-4.79
-10.19
-15.54
-20.55
-25.19
-29.86
-35.23
-41.98
-50.51
-60.52
-70.79
-79.32
-83.79
-82.23
-73.72
-58.84
-39.51
-18.41
1.87
19.47
33.63
44.49
52.67
58.80
63.26
66.20
67.66
67.78
66.78
64.99
62.69
60.10
57.39
54.72
52.31
50.38
49.06
48.26
47.62
46.51
44.31
40.59
35.35
29.03
22.36
16.07
10.61
5.92
1.55
-3.14
-8.68
-15.24
-22.53
-29.94
-36.84
-42.81
-47.89
-52.55
-57.58
-63.80
-71.73
-81.25
-91.44
-100.58
-106.49
-107.10
-101.14
-88.69
-71.25
-51.32
-31.66
-14.38
-0.53
9.94
17.71
23.51
27.76
30.51
31.68
31.39
30.02
28.21
26.53
25.36
24.72
24.44
24.28
24.09
23.84
23.57
23.29
22.89
22.09
20.56
18.01
14.41
10.02
5.33
0.90
-2.87
-5.96
-8.72
-11.67
-15.29
-19.75
-24.79
-29.89
-34.47
-38.24
-41.28
-44.07
-47.29
-51.66
-57.59
-65.01
-73.13
-80.49
-85.21
-85.44
-79.97
-68.70
-52.76
-34.23
-15.47
1.49
15.38
25.85
33.12
37.74
40.22
40.97
40.31
38.58
36.21
33.68
31.43
29.78
28.84
28.56
28.75
29.21
29.75
30.21
30.40
30.11
29.12
27.27
24.55
21.16
17.44
13.79
10.50
7.62
4.96
2.21
-0.92
-4.51
-8.40
-12.28
-15.87
-19.03
-21.93
-24.97
-28.73
-33.78
-40.40
-48.38
-56.78
-63.97
-67.98
-67.03
-60.16
-47.69
-31.17
-12.98
4.45
19.26
30.60
38.45
43.37
45.98
46.70
45.81
43.56
40.36
36.79
33.44
30.76
28.91
27.76
27.05
26.60
26.29
26.11
25.99
25.69
24.81
22.97
19.98
15.96
11.33
6.64
2.36
-1.35
-4.59
-7.74
-11.22
-15.29
-19.99
-25.06
-30.11
-34.79
-39.01
-42.97
-47.18
-52.30
-58.80
-66.67
-75.18
-82.76
-87.39
-87.11
-80.71
-68.23
-51.05
-31.50
-12.15
4.93
18.63
28.79
35.85
40.41
42.90
43.59
42.75
40.81
38.37
36.06
34.36
33.42
33.07
33.01
32.97
32.84
32.64
32.45
32.27
31.91
31.13
29.57
27.06
23.57
19.32
14.73
10.21
6.07
2.32
-1.28
-5.18
-9.76
-15.19
-21.31
-27.68
-33.78
-39.21
-43.88
-48.04
-52.21
-57.06
-63.22
-71.01
-80.22
-89.85
-98.09
-102.68
-101.50
-93.41
-78.71
-59.23
-37.73
-17.02
0.87
15.07
25.76
33.65
39.50
43.77
46.66
48.27
48.75
48.37
47.49
46.42
45.34
44.35
43.43
42.57
41.78
41.12
40.65
40.42
40.37
40.25
39.67
38.18
35.42
31.34
26.19
20.53
15.00
10.08
5.97
2.42
-1.08
-5.11
-10.08
-16.02
-22.58
-29.11
-35.02
-39.97
-44.02
-47.68
-51.70
-56.93
-63.96
-72.95
-83.34
-93.75
-102.12
-106.13
-103.88
-94.52
-78.58
-57.96
-35.35
-13.48
5.55
20.66
31.75
39.42
44.47
47.63
49.39
50.08
49.93
49.24
48.38
47.63
47.16
46.91
46.69
46.30
45.70
45.07
44.69
44.73
45.09
45.34
44.88
43.13
39.82
35.12
29.53
23.74
18.37
13.75
9.83
6.26
2.50
-1.89
-7.11
-13.02
-19.20
-25.14
-30.42
-34.95
-38.97
-43.01
-47.78
-53.90
-61.73
-71.04
-80.86
-89.40
-94.40
-93.73
-86.08
-71.57
-51.80
-29.45
-7.44
11.86
27.16
38.23
45.59
49.94
51.88
51.82
50.11
47.20
43.74
40.44
37.92
36.52
36.19
36.63
37.42
38.19
38.75
39.02
38.91
38.24
36.76
34.25
30.62
26.05
20.91
15.64
10.53
5.64
0.83
-4.15
-9.46
-15.05
-20.71
-26.15
-31.18
-35.87
-40.56
-45.86
-52.41
-60.60
-70.17
-80.09
-88.46
-93.03
-91.78
-83.63
-68.82
-48.94
-26.40
-3.87
16.41
32.98
45.23
53.29
57.80
59.60
59.51
58.24
56.22
53.71
50.88
47.99
45.37
43.40
42.36
42.32
43.08
44.23
45.26
45.69
45.15
43.47
40.66
36.92
32.48
27.47
21.95
15.87
9.21
2.07
-5.28
-12.48
-19.17
-25.14
-30.35
-34.97
-39.39
-44.17
-50.01
-57.50
-66.83
-77.44
-87.85
-95.84
-98.98
-95.43
-84.63
-67.55
-46.45
-24.18
-3.38
14.18
27.81
37.72
44.60
49.20
52.04
53.40
53.41
52.27
50.28
47.88
45.50
43.49
41.98
40.91
40.12
39.39
38.51
37.30
35.62
33.36
30.51
27.10
23.21
18.84
13.96
8.46
2.35
-4.24
-10.97
-17.40
-23.17
-28.19
-32.63
-36.91
-41.56
-47.12
-54.00
-62.28
-71.57
-80.85
-88.44
-92.37
-90.85
-82.94
-68.95
-50.44
-29.78
-9.49
8.53
23.26
34.67
43.26
49.74
54.61
58.03
59.92
60.15
58.76
56.03
52.51
48.82
45.50
42.85
40.89
39.45
38.25
37.02
35.52
33.59
31.06
27.86
23.97
19.46
14.49
9.23
3.87
-1.52
-6.88
-12.20
-17.41
-22.43
-27.19
-31.74
-36.29
-41.20
-46.98
-54.03
-62.51
-72.01
-81.42
-88.91
-92.33
-89.85
-80.55
-64.96
-45.04
-23.56
-3.26
13.92
27.29
37.23
44.65
50.37
54.79
57.86
59.41
59.39
58.07
55.95
53.61
51.47
49.80
48.63
47.93
47.51
47.14
46.53
45.37
43.43
40.63
37.07
32.95
28.46
23.72
18.73
13.42
7.75
1.79
-4.31
-10.33
-16.06
-21.37
-26.18
-30.56
-34.76
-39.20
-44.45
-51.01
-58.98
-67.78
-75.95
-81.42
-82.09
-76.56
-64.73
-47.93
-28.48
-8.99
8.41
22.56
33.29
41.06
46.54
50.25
52.45
53.23
52.68
51.00
48.55
45.79
43.15
40.89
39.14
37.84
36.90
36.21
35.65
35.14
34.45
33.30
31.38
28.50
24.68
20.25
15.63
11.20
7.13
3.29
-0.56
-4.63
-8.91
-13.21
-17.22
-20.78
-24.02
-27.37
-31.51
-36.98
-43.97
-52.10
-60.25
-66.83
-70.07
-68.53
-61.60
-49.69
-34.17
-17.01
-0.22
14.61
26.61
35.58
41.77
45.60
47.47
47.69
46.55
44.45
41.90
39.44
37.53
36.42
36.09
36.33
36.80
37.18
37.22
36.82
35.91
34.48
32.48
29.87
26.67
22.97
18.95
14.85
10.82
6.84
2.74
-1.72
-6.71
-12.16
-17.80
-23.25
-28.15
-32.38
-36.09
-39.70
-43.80
-48.97
-55.53
-63.23
-71.13
-77.56
-80.50
-78.23
-69.91
-56.11
-38.68
-20.14
-2.95
11.31
22.16
30.06
35.85
40.22
43.43
45.37
45.85
44.92
43.00
40.72
38.66
37.07
35.79
34.45
32.76
30.76
28.79
27.33
26.61
26.46
26.27
25.27
22.94
19.22
14.62
9.91
5.77
2.45
-0.30
-3.07
-6.45
-10.73
-15.74
-20.97
-25.78
-29.79
-32.92
-35.50
-38.04
-41.13
-45.26
-50.76
-57.58
-65.13
-72.10
-76.66
-76.85
-71.30
-59.86
-43.80
-25.44
-7.39
8.28
20.55
29.43
35.57
39.69
42.33
43.72
43.98
43.30
41.98
40.44
39.03
37.94
37.11
36.36
35.43
34.22
32.82
31.51
30.67
30.48
30.82
31.23
31.05
29.71
27.00
23.08
18.53
14.04
10.17
7.12
4.65
2.18
-0.93
-5.11
-10.35
-16.22
-22.06
-27.30
-31.75
-35.67
-39.58
-44.16
-49.89
-57.01
-65.35
-74.29
-82.64
-88.75
-90.81
-87.46
-78.27
-64.12
-47.01
-29.37
-13.36
-0.29
9.50
16.36
20.88
23.57
24.79
24.83
24.08
23.01
22.10
21.64
21.72
22.19
22.80
23.35
23.71
23.91
23.96
23.91
23.66
23.09
21.92
19.92
16.99
13.23
8.97
4.71
0.84
-2.40
-5.09
-7.63
-10.48
-14.01
-18.29
-23.08
-27.90
-32.23
-35.78
-38.64
-41.29
-44.51
-49.09
-55.58
-63.92
-73.29
-82.10
-88.34
-90.09
-86.15
-76.50
-62.40
-46.04
-29.85
-15.81
-4.97
2.59
7.48
10.52
12.38
13.44
13.82
13.58
12.84
11.86
10.95
10.42
10.39
10.84
11.56
12.32
12.93
13.31
13.53
13.68
13.82
13.83
13.45
12.39
10.45
7.70
4.55
1.54
-0.88
-2.59
-3.87
-5.30
-7.43
-10.44
-14.08
-17.71
-20.69
-22.69
-23.87
-24.87
-26.61
-30.01
-35.72
-43.79
-53.53
-63.44
-71.43
-75.29
-73.32
-64.87
-50.62
-32.34
-12.40
6.90
23.82
37.42
47.45
54.12
57.91
59.37
59.03
57.41
54.98
52.13
49.23
46.59
44.47
43.03
42.31
42.17
42.43
42.84
43.22
43.38
43.07
41.97
39.77
36.33
31.83
26.78
21.89
17.71
14.44
11.79
9.12
5.74
1.22
-4.40
-10.66
-16.90
-22.54
-27.32
-31.34
-35.14
-39.45
-45.04
-52.39
-61.44
-71.26
-80.13
-85.80
-86.16
-79.88
-67.02
-49.06
-28.52
-8.19
9.70
23.96
34.46
41.74
46.49
49.21
50.10
49.26
46.94
43.60
39.92
36.49
33.74
31.79
30.54
29.88
29.71
30.02
30.80
31.90
32.95
33.41
32.67
30.30
26.20
20.72
14.59
8.69
3.71
-0.09
-3.03
-5.83
-9.30
-13.91
-19.61
-25.88
-31.96
-37.30
-41.73
-45.55
-49.42
-54.14
-60.37
-68.48
-78.22
-88.61
-97.88
-103.76
-104.03
-97.28
-83.44
-63.96
-41.40
-18.69
1.71
18.33
30.79
39.48
45.11
48.32
49.59
49.27
47.76
45.59
43.39
41.71
40.86
40.83
41.44
42.40
43.49
44.61
45.68
46.47
46.67
45.84
43.71
40.27
35.80
30.82
25.78
20.95
16.29
11.55
6.43
0.80
-5.21
-11.28
-17.03
-22.19
-26.75
-30.99
-35.43
-40.73
-47.51
-55.97
-65.66
-75.21
-82.56
-85.38
-81.89
-71.53
-55.24
-35.25
-14.26
5.27
21.85
34.96
44.86
52.03
56.84
59.39
59.66
57.74
53.99
49.07
43.75
38.78
34.69
31.74
29.98
29.27
29.39
29.99
30.63
30.80
29.95
27.67
23.81
18.51
12.20
5.49
-0.97
-6.67
-11.47
-15.58
-19.53
-23.84
-28.76
-34.12
-39.40
-44.07
-47.90
-51.21
-54.83
-59.79
-66.95
-76.52
-87.82
-99.15
-108.04
-111.85
-108.53
-97.34
-79.19
-56.47
-32.23
-9.26
10.56
26.55
38.96
48.41
55.50
60.63
64.09
66.20
67.39
68.14
68.82
69.60
70.40
71.02
71.32
71.27
71.02
70.75
70.50
70.15
69.36
67.73
65.02
61.23
56.59
51.45
46.10
40.66
35.02
29.06
22.70
16.14
9.80
4.21
-0.26
-3.61
-6.30
-9.13
-13.04
-18.76
-26.58
-36.15
-46.34
-55.38
-61.17
-61.82
-56.28
-44.82
-29.04
-11.38
5.60
20.01
30.96
38.50
43.17
45.54
45.98
44.76
42.19
38.80
35.33
32.48
30.71
30.07
30.21
30.60
30.70
30.25
29.28
28.06
26.88
25.81
24.61
22.74
19.64
14.99
8.92
2.03
-4.85
-10.94
-15.83
-19.64
-22.90
-26.37
-30.81
-36.72
-44.17
-52.74
-61.41
-68.68
-72.78
-72.16
-65.95
-54.29
-38.39
-20.30
-2.23
13.90
26.90
36.35
42.38
45.44
46.00
44.50
41.44
37.44
33.21
29.45
26.64
24.92
24.02
23.47
22.86
22.01
20.99
19.98
18.97
17.65
15.49
11.98
6.97
0.82
-5.74
-11.89
-17.08
-21.25
-24.83
-28.61
-33.39
-39.80
-47.98
-57.40
-66.83
-74.42
-78.16
-76.45
-68.67
-55.44
-38.52
-20.20
-2.66
12.57
24.82
34.09
40.68
44.91
46.97
47.00
45.32
42.48
39.17
36.07
33.58
31.75
30.31
28.93
27.36
25.63
23.94
22.54
21.42
20.29
18.55
15.55
10.91
4.70
-2.51
-9.84
-16.44
-21.77
-25.78
-28.96
-32.12
-36.20
-41.94
-49.59
-58.66
-67.79
-74.93
-77.88
-74.96
-65.68
-50.99
-33.01
-14.34
2.77
16.96
27.89
35.98
41.89
46.11
48.84
50.06
49.74
48.07
45.47
42.51
39.80
37.74
36.46
35.76
35.23
34.45
33.13
31.25
29.01
26.66
24.32
21.89
19.05
15.39
10.70
5.07
-1.12
-7.32
-13.07
-18.15
-22.62
-26.72
-30.81
-35.25
-40.38
-46.53
-53.87
-62.21
-70.75
-78.00
-82.07
-81.15
-74.27
-61.67
-44.88
-26.23
-8.13
7.61
20.11
29.45
36.24
41.27
45.08
47.86
49.56
50.06
49.34
47.60
45.22
42.64
40.21
38.17
36.56
35.35
34.49
33.88
33.33
32.52
31.06
28.64
25.12
20.67
15.71
10.69
5.95
1.54
-2.73
-7.19
-12.08
-17.39
-22.87
-28.17
-32.98
-37.21
-41.08
-45.10
-49.92
-56.17
-64.03
-73.00
-81.69
-88.02
-89.77
-85.34
-74.36
-57.94
-38.40
-18.49
-0.54
14.10
25.18
33.20
38.97
43.12
45.95
47.52
47.80
46.92
45.13
42.82
40.35
37.94
35.67
33.58
31.72
30.24
29.29
28.90
28.87
28.71
27.78
25.59
21.97
17.24
12.01
6.96
2.56
-1.15
-4.48
-7.89
-11.70
-15.99
-20.57
-25.09
-29.28
-33.05
-36.53
-40.07
-44.10
-49.10
-55.38
-62.87
-70.81
-77.75
-81.70
-80.77
-73.86
-61.22
-44.44
-25.98
-8.33
6.77
18.62
27.41
33.75
38.23
41.22
42.90
43.45
43.16
42.34
41.28
40.07
38.71
37.13
35.39
33.71
32.39
31.64
31.48
31.69
31.86
31.54
30.37
28.21
25.12
21.33
17.17
12.85
8.47
3.98
-0.77
-5.88
-11.34
-16.95
-22.40
-27.36
-31.63
-35.32
-38.79
-42.69
-47.74
-54.48
-62.94
-72.35
-81.06
-86.91
-87.76
-82.34
-70.69
-54.29
-35.58
-17.14
-0.94
12.05
21.78
28.74
33.50
36.45
37.85
37.91
37.00
35.59
34.17
33.06
32.32
31.82
31.35
30.78
30.18
29.69
29.45
29.47
29.45
28.95
27.52
24.90
21.24
16.93
12.54
8.42
4.66
0.98
-3.01
-7.64
-12.95
-18.69
-24.43
-29.70
-34.23
-38.03
-41.40
-44.94
-49.37
-55.30
-62.90
-71.54
-79.74
-85.38
-86.25
-80.87
-69.05
-52.11
-32.48
-12.89
4.42
18.24
28.41
35.46
40.18
43.18
44.82
45.33
44.93
43.91
42.58
41.18
39.82
38.51
37.19
35.85
34.58
33.52
32.84
32.56
32.54
32.42
31.66
29.77
26.49
21.98
16.74
11.51
6.88
3.04
-0.26
-3.57
-7.43
-12.06
-17.21
-22.39
-27.06
-30.97
-34.27
-37.46
-41.23
-46.22
-52.83
-61.00
-70.06
-78.65
-84.90
-86.78
-82.78
-72.39
-56.51
-37.19
-17.03
1.54
16.91
28.51
36.56
41.72
44.64
45.83
45.59
44.21
42.05
39.56
37.17
35.24
33.96
33.37
33.38
33.79
34.35
34.81
34.87
34.25
32.73
30.20
26.70
22.52
18.06
13.70
9.69
6.06
2.57
-1.05
-5.02
-9.34
-13.82
-18.20
-22.23
-25.81
-29.03
-32.18
-35.72
-40.23
-46.15
-53.51
-61.67
-69.15
-73.96
-74.08
-68.28
-56.52
-40.15
-21.44
-2.84
13.66
26.94
36.76
43.44
47.43
49.21
49.10
47.50
44.93
41.98
39.25
37.15
35.82
35.12
34.78
34.58
34.38
34.23
34.15
34.08
33.76
32.81
30.89
27.82
23.73
19.00
14.17
9.71
5.83
2.45
-0.86
-4.62
-9.21
-14.68
-20.66
-26.54
-31.73
-35.96
-39.45
-42.83
-46.91
-52.43
-59.66
-68.21
-76.91
-83.89
-87.05
-84.62
-75.79
-61.05
-42.17
-21.63
-1.92
15.07
28.43
38.09
44.52
48.34
50.09
50.23
49.14
47.26
45.05
42.92
41.21
40.03
39.27
38.70
38.08
37.29
36.43
35.67
35.10
34.62
33.84
32.23
29.36
25.13
19.85
14.17
8.79
4.17
0.38
-2.92
-6.27
-10.21
-14.96
-20.37
-25.98
-31.21
-35.71
-39.43
-42.77
-46.42
-51.09
-57.31
-65.05
-73.60
-81.48
-86.67
-87.16
-81.53
-69.57
-52.46
-32.47
-12.27
5.88
20.68
31.88
39.87
45.27
48.46
49.65
49.00
46.94
44.15
41.43
39.38
38.22
37.77
37.61
37.36
36.89
36.30
35.84
35.65
35.64
35.40
34.41
32.19
28.52
23.62
18.01
12.37
7.30
3.03
-0.59
-4.02
-7.77
-12.21
-17.34
-22.89
-28.36
-33.33
-37.64
-41.44
-45.20
-49.53
-54.98
-61.85
-69.96
-78.48
-85.90
-90.28
-89.72
-83.01
-70.11
-52.34
-31.99
-11.71
6.29
20.68
31.15
38.13
42.33
44.43
44.94
44.24
42.71
40.81
39.01
37.71
37.08
37.10
37.55
38.16
38.69
39.02
39.17
39.20
39.13
38.82
37.96
36.10
32.89
28.26
22.55
16.49
10.90
6.35
2.92
0.12
-2.80
-6.46
-11.08
-16.37
-21.70
-26.49
-30.44
-33.69
-36.75
-40.23
-44.73
-50.65
-58.08
-66.59
-75.11
-81.93
-85.05
-82.68
-74.01
-59.56
-41.11
-21.21
-2.36
13.62
25.84
34.28
39.37
41.68
41.79
40.29
37.82
35.12
32.82
31.39
30.96
31.34
32.20
33.18
34.10
34.94
35.73
36.45
36.87
36.56
35.07
32.19
28.03
23.06
17.88
13.04
8.79
5.06
1.56
-2.09
-6.20
-10.87
-15.98
-21.19
-26.14
-30.54
-34.37
-37.90
-41.72
-46.52
-52.92
-61.06
-70.37
-79.40
-86.02
-87.97
-83.58
-72.40
-55.52
-35.26
-14.42
4.54
20.13
31.91
40.25
45.82
49.19
50.74
50.73
49.46
47.42
45.19
43.29
42.03
41.40
41.18
41.05
40.82
40.52
40.30
40.28
40.38
40.23
39.25
36.92
33.02
27.85
22.07
16.45
11.61
7.71
4.45
1.22
-2.56
-7.23
-12.74
-18.69
-24.58
-29.97
-34.67
-38.85
-42.99
-47.81
-54.02
-61.99
-71.38
-80.96
-88.67
-92.15
-89.51
-80.02
-64.50
-45.06
-24.43
-5.13
11.18
23.86
33.08
39.35
43.21
45.05
45.20
44.05
42.05
39.74
37.57
35.86
34.75
34.23
34.17
34.39
34.70
34.96
35.10
35.05
34.73
33.95
32.41
29.83
26.13
21.57
16.74
12.35
8.95
6.59
4.83
2.89
0.03
-4.17
-9.60
-15.75
-21.87
-27.32
-31.79
-35.45
-38.93
-43.12
-48.82
-56.38
-65.21
-73.73
-79.65
-80.65
-75.17
-63.05
-45.67
-25.51
-5.43
12.20
25.95
35.44
41.11
43.75
44.14
42.95
40.63
37.53
33.98
30.24
26.55
23.12
20.14
17.85
16.49
16.19
16.91
18.26
19.68
20.48
20.19
18.58
15.76
12.00
7.63
2.85
-2.19
-7.38
-12.56
-17.50
-21.96
-25.78
-28.92
-31.48
-33.74
-36.18
-39.36
-43.84
-49.87
-57.17
-64.64
-70.60
-73.07
-70.50
-62.24
-48.90
-32.14
-14.19
2.83
17.41
28.87
37.25
42.91
46.25
47.54
46.96
44.85
41.80
38.68
36.33
35.36
35.88
37.53
39.65
41.56
42.79
43.13
42.61
41.33
39.42
36.93
33.92
30.40
26.31
21.61
16.32
10.59
4.72
-0.87
-5.84
-10.13
-13.97
-17.91
-22.59
-28.55
-36.06
-44.81
-53.95
-61.97
-67.09
-67.59
-62.38
-51.46
-35.97
-17.98
0.11
16.23
29.08
38.29
44.23
47.61
49.15
49.35
48.58
47.09
45.19
43.26
41.66
40.65
40.26
40.32
40.51
40.46
39.87
38.54
36.38
33.44
29.89
25.96
21.87
17.72
13.49
9.02
4.19
-1.01
-6.38
-11.61
-16.42
-20.64
-24.42
-28.12
-32.32
-37.58
-44.31
-52.58
-61.91
-71.19
-78.76
-82.71
-81.38
-73.95
-60.79
-43.44
-24.28
-5.78
10.11
22.47
31.31
37.31
41.34
44.06
45.79
46.58
46.44
45.50
44.04
42.37
40.70
39.03
37.21
35.11
32.75
30.28
27.89
25.64
23.41
20.90
17.83
14.14
9.95
5.51
1.00
-3.61
-8.50
-13.90
-19.84
-26.08
-32.18
-37.71
-42.48
-46.68
-50.86
-55.71
-61.81
-69.29
-77.66
-85.79
-92.06
-94.74
-92.44
-84.58
-71.56
-54.81
-36.32
-18.22
-2.19
10.81
20.58
27.51
32.19
35.20
36.89
37.43
36.94
35.66
34.01
32.51
31.56
31.35
31.74
32.38
32.92
33.12
32.95
32.40
31.43
29.90
27.65
24.61
20.90
16.77
12.50
8.22
3.95
-0.39
-4.81
-9.23
-13.46
-17.40
-21.07
-24.71
-28.71
-33.52
-39.54
-46.90
-55.23
-63.51
-70.13
-73.23
-71.25
-63.55
-50.69
-34.33
-16.70
0.07
14.47
25.83
34.12
39.68
42.90
44.11
43.67
42.00
39.67
37.32
35.53
34.69
34.93
36.03
37.60
39.12
40.22
40.69
40.52
39.82
38.65
36.95
34.55
31.23
26.93
21.77
16.07
10.24
4.66
-0.45
-5.05
-9.27
-13.39
-17.79
-22.94
-29.25
-36.96
-45.86
-55.09
-63.14
-68.12
-68.32
-62.74
-51.60
-36.29
-19.03
-2.15
12.52
24.05
32.40
38.03
41.53
43.30
43.53
42.36
40.05
37.06
34.02
31.49
29.83
29.07
28.99
29.27
29.55
29.55
29.04
27.86
25.93
23.27
19.99
16.30
12.38
8.34
4.19
-0.11
-4.64
-9.34
-14.05
-18.58
-22.71
-26.43
-29.90
-33.51
-37.77
-43.20
-50.10
-58.35
-67.23
-75.33
-80.85
-81.94
-77.36
-66.95
-51.76
-33.82
-15.53
1.03
14.61
24.89
32.25
37.36
40.79
42.87
43.77
43.61
42.58
40.99
39.22
37.56
36.25
35.29
34.62
34.12
33.71
33.38
33.10
32.75
32.01
30.48
27.83
23.99
19.26
14.15
9.23
4.82
0.88
-2.91
-6.91
-11.34
-16.12
-20.98
-25.62
-29.86
-33.80
-37.77
-42.26
-47.78
-54.68
-62.89
-71.77
-79.97
-85.65
-86.92
-82.40
-71.85
-56.31
-37.89
-19.11
-2.15
11.79
22.53
30.64
36.89
41.81
45.57
48.06
49.26
49.31
48.61
47.59
46.55
45.57
44.57
43.42
42.08
40.68
39.41
38.48
37.89
37.46
36.79
35.39
32.85
29.07
24.28
18.99
13.84
9.28
5.43
2.02
-1.45
-5.53
-10.49
-16.23
-22.33
-28.16
-33.21
-37.28
-40.60
-43.78
-47.62
-52.91
-60.06
-68.92
-78.51
-87.11
-92.53
-92.77
-86.56
-73.95
-56.35
-36.17
-16.04
1.88
16.43
27.47
35.51
41.29
45.42
48.20
49.70
49.96
49.11
47.50
45.58
43.81
42.44
41.44
40.61
39.67
38.53
37.36
36.44
35.98
35.86
35.58
34.46
31.97
27.98
22.87
17.40
12.34
8.14
4.76
1.72
-1.65
-5.91
-11.25
-17.41
-23.80
-29.69
-34.55
-38.17
-40.86
-43.29
-46.33
-50.76
-57.04
-65.05
-74.00
-82.37
-88.23
-89.64
-85.21
-74.64
-58.92
-40.11
-20.73
-3.07
11.45
22.40
30.17
35.45
38.88
40.81
41.38
40.76
39.23
37.28
35.43
34.10
33.44
33.37
33.67
34.08
34.40
34.51
34.32
33.70
32.52
30.64
27.97
24.57
20.64
16.45
12.25
8.21
4.35
0.55
-3.31
-7.29
-11.36
-15.40
-19.29
-22.94
-26.46
-30.13
-34.37
-39.58
-45.87
-52.76
-59.08
-63.15
-63.25
-58.21
-47.87
-33.15
-15.82
1.97
18.26
31.56
41.06
46.55
48.31
46.94
43.21
38.00
32.09
26.21
21.00
17.01
14.61
13.95
14.80
16.61
18.65
20.24
20.91
20.52
19.21
17.27
14.95
12.37
9.49
6.12
2.10
-2.69
-8.15
-14.06
-20.06
-25.84
-31.22
-36.23
-41.09
-46.16
-51.86
-58.62
-66.81
-76.48
-87.17
-97.67
-105.97
-109.73
-107.00
-97.02
-80.69
-60.38
-39.19
-19.91
-4.22
7.53
15.97
22.05
26.45
29.43
30.97
31.09
30.05
28.38
26.66
25.34
24.59
24.34
24.35
24.32
24.02
23.34
22.27
20.96
19.59
18.26
16.90
15.27
13.01
9.84
5.69
0.76
-4.52
-9.66
-14.29
-18.26
-21.67
-24.87
-28.36
-32.65
-38.24
-45.27
-53.39
-61.49
-67.86
-70.44
-67.53
-58.31
-43.26
-24.08
-3.17
17.08
34.87
49.37
60.52
68.78
74.64
78.45
80.34
80.43
78.96
76.40
73.39
70.52
68.17
66.37
64.86
63.27
61.30
58.84
55.96
52.80
49.39
45.66
41.44
36.50
30.70
24.00
16.55
8.65
0.78
-6.54
-12.92
-18.23
-22.73
-27.06
-32.04
-38.48
-46.76
-56.62
-66.97
-76.01
-81.59
-81.87
-75.84
-63.76
-47.11
-28.21
-9.49
7.06
20.31
30.01
36.46
40.16
41.56
41.04
39.04
36.19
33.24
30.88
29.50
29.03
29.04
28.98
28.46
27.44
26.20
25.01
23.96
22.78
20.91
17.84
13.26
7.35
0.67
-5.99
-11.90
-16.64
-20.30
-23.45
-26.93
-31.62
-38.07
-46.28
-55.47
-64.11
-70.21
-71.76
-67.43
-56.98
-41.48
-23.05
-4.23
12.79
26.61
36.86
43.86
48.19
50.29
50.40
48.68
45.48
41.47
37.50
34.32
32.30
31.32
30.88
30.43
29.64
28.50
27.14
25.65
23.78
21.05
16.96
11.27
4.17
-3.68
-11.45
-18.44
-24.32
-29.27
-33.92
-39.14
-45.74
-54.14
-64.00
-74.12
-82.48
-86.83
-85.30
-77.15
-63.04
-44.91
-25.32
-6.62
9.58
22.68
32.90
40.82
46.95
51.51
54.46
55.69
55.25
53.54
51.19
48.90
47.12
45.91
44.97
43.83
42.14
39.90
37.41
35.05
32.98
30.96
28.28
24.19
18.16
10.24
1.12
-8.10
-16.35
-22.98
-28.02
-32.13
-36.35
-41.68
-48.81
-57.91
-68.50
-79.52
-89.36
-96.03
-97.65
-92.89
-81.53
-64.66
-44.45
-23.55
-4.30
11.87
24.60
34.35
41.88
47.82
52.48
55.87
57.94
58.74
58.51
57.57
56.28
54.97
53.92
53.37
53.42
54.03
54.99
55.93
56.47
56.26
55.10
52.90
49.69
45.55
40.60
35.01
29.00
22.73
16.39
10.10
3.98
-1.82
-7.20
-12.10
-16.65
-21.15
-26.09
-31.98
-39.19
-47.68
-56.74
-64.96
-70.42
-71.27
-66.33
-55.59
-40.31
-22.67
-5.04
10.63
23.27
32.69
39.32
43.79
46.65
48.27
48.77
48.21
46.63
44.16
41.09
37.81
34.71
32.09
30.04
28.50
27.24
26.00
24.47
22.39
19.52
15.81
11.39
6.59
1.81
-2.68
-6.88
-11.00
-15.38
-20.27
-25.58
-31.01
-36.09
-40.49
-44.16
-47.42
-50.85
-55.08
-60.62
-67.63
-75.80
-84.19
-91.34
-95.41
-94.68
-88.14
-75.94
-59.42
-40.87
-22.74
-6.88
5.86
15.59
23.03
28.85
33.37
36.47
37.87
37.47
35.63
33.12
30.87
29.67
29.84
31.19
33.15
35.06
36.39
36.97
36.88
36.34
35.45
34.09
31.97
28.75
24.26
18.72
12.63
6.72
1.58
-2.50
-5.62
-8.18
-10.73
-13.76
-17.65
-22.62
-28.70
-35.65
-42.74
-48.81
-52.32
-51.80
-46.34
-36.05
-22.10
-6.50
8.61
21.56
31.52
38.50
42.93
45.25
45.58
43.83
39.98
34.35
27.78
21.37
16.11
12.48
10.29
8.87
7.44
5.47
2.83
-0.21
-3.34
-6.43
-9.67
-13.47
-18.24
-24.05
-30.58
-37.18
-43.10
-47.80
-51.13
-53.34
-54.97
-56.63
-58.88
-62.12
-66.56
-72.08
-78.14
-83.65
-87.09
-86.78
-81.44
-70.66
-55.19
-36.77
-17.57
0.38
15.79
28.12
37.52
44.35
48.99
51.63
52.50
51.90
50.37
48.52
46.87
45.77
45.19
44.85
44.32
43.20
41.26
38.44
34.90
30.88
26.62
22.26
17.81
13.18
8.24
2.90
-2.83
-8.75
-14.55
-19.83
-24.31
-27.89
-30.75
-33.35
-36.30
-40.25
-45.63
-52.46
-60.12
-67.32
-72.27
-73.14
-68.65
-58.52
-43.66
-25.99
-7.84
8.68
22.14
32.04
38.63
42.54
44.51
45.08
44.62
43.32
41.34
38.86
36.14
33.44
30.98
28.92
27.31
26.12
25.24
24.53
23.74
22.61
20.91
18.51
15.43
11.79
7.75
3.36
-1.34
-6.40
-11.74
-17.15
-22.37
-27.16
-31.37
-35.13
-38.65
-42.28
-46.37
-51.29
-57.33
-64.55
-72.51
-80.08
-85.55
-86.94
-82.78
-72.65
-57.50
-39.34
-20.63
-3.43
11.02
22.43
31.10
37.55
42.13
45.03
46.40
46.50
45.80
44.79
43.87
43.27
42.89
42.50
41.87
40.87
39.59
38.24
37.00
35.88
34.67
32.96
30.34
26.61
21.89
16.58
11.23
6.28
1.95
-1.90
-5.65
-9.72
-14.41
-19.75
-25.50
-31.18
-36.30
-40.53
-43.91
-46.83
-50.02
-54.30
-60.26
-67.98
-76.75
-85.09
-90.96
-92.33
-87.72
-76.80
-60.51
-40.89
-20.50
-1.65
14.10
26.17
34.83
40.74
44.53
46.62
47.19
46.45
44.75
42.58
40.52
39.02
38.27
38.22
38.66
39.33
39.99
40.40
40.29
39.42
37.60
34.76
31.04
26.73
22.14
17.54
13.08
8.76
4.51
0.23
-4.15
-8.64
-13.17
-17.59
-21.78
-25.65
-29.33
-33.14
-37.60
-43.31
-50.64
-59.42
-68.70
-76.72
-81.32
-80.54
-73.34
-60.02
-42.22
-22.44
-3.28
13.30
26.31
35.73
42.11
46.08
48.13
48.51
47.45
45.27
42.47
39.65
37.36
35.89
35.31
35.47
36.15
37.08
38.03
38.68
38.71
37.80
35.73
32.48
28.24
23.30
18.00
12.63
7.35
2.23
-2.75
-7.68
-12.62
-17.58
-22.51
-27.30
-31.87
-36.30
-40.89
-46.19
-52.83
-61.16
-70.87
-80.72
-88.63
-92.18
-89.42
-79.59
-63.50
-43.34
-21.89
-1.74
15.45
29.09
39.35
46.71
51.63
54.34
55.11
54.32
52.53
50.37
48.36
46.78
45.64
44.87
44.32
43.90
43.56
43.18
42.60
41.58
39.93
37.52
34.36
30.57
26.31
21.68
16.69
11.33
5.62
-0.32
-6.30
-12.08
-17.59
-22.80
-27.85
-32.90
-38.18
-43.98
-50.67
-58.56
-67.55
-76.85
-84.78
-89.06
-87.55
-79.03
-63.87
-43.97
-22.24
-1.59
15.87
29.29
38.92
45.62
50.24
53.26
54.72
54.53
52.72
49.71
46.25
43.12
40.90
39.68
39.08
38.53
37.59
36.11
34.32
32.56
31.04
29.63
27.90
25.23
21.14
15.50
8.56
0.98
-6.42
-12.92
-18.11
-22.00
-25.06
-28.01
-31.60
-36.46
-42.96
-51.07
-60.23
-69.33
-76.69
-80.37
-78.74
-71.01
-57.63
-40.23
-21.14
-2.72
13.25
25.89
35.05
41.05
44.30
45.19
44.16
41.73
38.54
35.30
32.59
30.69
29.60
28.98
28.47
27.77
26.83
25.75
24.71
23.66
22.27
19.98
16.27
10.99
4.51
-2.37
-8.76
-14.00
-18.01
-21.19
-24.35
-28.29
-33.69
-40.79
-49.27
-58.09
-65.60
-69.77
-68.90
-62.11
-49.84
-33.72
-16.07
0.87
15.53
27.22
35.96
42.06
45.78
47.25
46.58
44.10
40.51
36.70
33.55
31.61
30.93
31.14
31.62
31.82
31.46
30.53
29.22
27.63
25.68
23.07
19.42
14.50
8.43
1.74
-4.83
-10.59
-15.23
-18.92
-22.28
-26.06
-30.98
-37.42
-45.32
-54.04
-62.34
-68.51
-70.72
-67.59
-58.68
-44.82
-27.92
-10.34
5.83
19.34
29.95
38.06
44.28
48.96
52.11
53.54
53.15
51.15
48.12
44.82
41.96
39.92
38.66
37.83
36.95
35.68
33.94
31.89
29.69
27.43
24.91
21.78
17.69
12.44
6.17
-0.69
-7.51
-13.73
-18.98
-23.25
-26.85
-30.33
-34.33
-39.38
-45.78
-53.44
-61.79
-69.69
-75.55
-77.63
-74.51
-65.70
-51.88
-34.81
-16.80
0.00
14.21
25.41
34.00
40.69
46.02
50.23
53.21
54.77
54.83
53.53
51.24
48.44
45.59
43.06
41.06
39.61
38.60
37.79
36.94
35.81
34.20
31.97
29.04
25.42
21.25
16.71
12.00
7.23
2.41
-2.52
-7.59
-12.75
-17.82
-22.56
-26.84
-30.75
-34.60
-38.96
-44.42
-51.38
-59.69
-68.45
-76.05
-80.51
-80.05
-73.74
-61.87
-45.92
-28.10
-10.66
4.66
17.01
26.33
33.14
38.09
41.69
44.16
45.49
45.61
44.59
42.67
40.31
37.97
35.98
34.45
33.29
32.33
31.42
30.44
29.31
27.89
26.01
23.49
20.26
16.36
11.99
7.39
2.72
-1.88
-6.36
-10.73
-15.02
-19.27
-23.54
-27.98
-32.73
-37.95
-43.75
-50.23
-57.41
-65.10
-72.67
-79.00
-82.57
-81.84
-75.85
-64.71
-49.65
-32.80
-16.40
-2.20
8.94
17.01
22.52
26.03
27.96
28.50
27.75
25.88
23.20
20.23
17.58
15.81
15.22
15.75
16.94
18.09
18.54
17.92
16.23
13.82
11.12
8.42
5.73
2.77
-0.78
-5.09
-10.02
-15.13
-19.86
-23.75
-26.64
-28.71
-30.42
-32.32
-34.93
-38.57
-43.36
-49.16
-55.33
-60.77
-63.93
-63.23
-57.58
-46.84
-31.99
-14.83
2.54
18.38
31.65
42.02
49.66
54.89
57.99
59.14
58.52
56.46
53.46
50.11
47.01
44.54
42.87
41.88
41.33
40.94
40.50
39.86
38.93
37.56
35.62
32.99
29.64
25.63
21.04
15.92
10.35
4.43
-1.60
-7.39
-12.58
-16.98
-20.63
-23.88
-27.26
-31.35
-36.62
-43.29
-51.31
-60.14
-68.71
-75.44
-78.58
-76.63
-68.95
-56.04
-39.52
-21.68
-4.78
9.56
20.68
28.80
34.63
38.94
42.20
44.54
45.89
46.19
45.49
44.02
42.08
39.98
37.94
36.16
34.74
33.74
33.14
32.72
32.16
31.05
29.05
26.01
22.04
17.43
12.59
7.86
3.40
-0.88
-5.23
-9.96
-15.23
-20.94
-26.76
-32.23
-37.02
-41.07
-44.76
-48.77
-53.89
-60.64
-68.97
-77.97
-86.01
-91.00
-91.04
-85.07
-73.26
-57.03
-38.63
-20.36
-3.95
9.77
20.83
29.72
36.91
42.66
46.92
49.59
50.70
50.51
49.51
48.19
46.87
45.63
44.36
42.89
41.17
39.26
37.32
35.44
33.53
31.33
28.53
24.91
20.50
15.59
10.65
6.09
2.16
-1.26
-4.55
-8.20
-12.58
-17.73
-23.36
-28.92
-33.90
-38.06
-41.56
-44.98
-49.12
-54.68
-62.02
-70.78
-79.82
-87.28
-91.03
-89.29
-81.24
-67.43
-49.64
-30.38
-12.08
3.57
15.86
24.99
31.59
36.33
39.66
41.74
42.68
42.61
41.83
40.71
39.59
38.68
38.00
37.52
37.17
36.94
36.83
36.75
36.47
35.63
33.88
31.08
27.38
23.17
18.91
14.88
11.10
7.34
3.32
-1.17
-6.10
-11.28
-16.43
-21.28
-25.75
-29.88
-33.96
-38.41
-43.73
-50.28
-58.08
-66.49
-74.21
-79.36
-80.07
-75.01
-64.00
-48.20
-29.74
-11.17
5.31
18.42
27.86
34.11
37.94
40.06
40.93
40.82
39.90
38.43
36.78
35.34
34.41
34.13
34.43
35.08
35.81
36.39
36.63
36.39
35.53
33.85
31.18
27.49
22.98
18.10
13.33
9.07
5.37
1.95
-1.65
-5.85
-10.81
-16.32
-21.92
-27.07
-31.40
-34.88
-37.93
-41.31
-45.90
-52.31
-60.51
-69.59
-77.76
-82.77
-82.58
-76.05
-63.41
-46.21
-26.90
-8.04
8.38
21.36
30.83
37.32
41.52
43.98
45.06
45.05
44.26
43.11
41.97
41.07
40.43
39.90
39.30
38.59
37.90
37.44
37.36
37.54
37.58
36.91
34.99
31.60
26.89
21.41
15.85
10.83
6.59
3.00
-0.41
-4.18
-8.69
-13.97
-19.74
-25.50
-30.76
-35.25
-39.02
-42.42
-46.08
-50.69
-56.83
-64.68
-73.76
-82.76
-89.68
-92.32
-88.91
-78.88
-63.06
-43.58
-23.18
-4.37
11.15
22.83
31.02
36.55
40.23
42.65
44.12
44.83
44.97
44.76
44.46
44.19
43.94
43.58
43.01
42.28
41.54
41.04
40.86
40.85
40.58
39.52
37.22
33.59
28.87
23.66
18.61
14.19
10.49
7.17
3.70
-0.42
-5.44
-11.19
-17.23
-23.03
-28.19
-32.63
-36.68
-40.98
-46.29
-53.22
-61.90
-71.72
-81.22
-88.35
-90.95
-87.47
-77.50
-61.97
-42.93
-22.88
-4.11
11.85
24.38
33.56
39.90
43.96
46.23
47.14
47.04
46.29
45.18
43.92
42.65
41.41
40.22
39.12
38.21
37.57
37.23
37.09
36.95
36.49
35.38
33.40
30.49
26.84
22.79
18.77
15.06
11.67
8.29
4.46
-0.18
-5.70
-11.77
-17.82
-23.29
-27.90
-31.81
-35.54
-39.82
-45.30
-52.30
-60.57
-69.23
-76.79
-81.37
-81.22
-75.21
-63.29
-46.70
-27.61
-8.55
8.33
21.70
31.22
37.25
40.46
41.49
40.78
38.66
35.54
31.96
28.62
26.19
25.12
25.52
27.08
29.21
31.20
32.52
32.84
32.18
30.70
28.65
26.16
23.23
19.75
15.64
10.90
5.68
0.24
-5.18
-10.39
-15.28
-19.82
-24.00
-27.89
-31.65
-35.59
-40.20
-46.01
-53.23
-61.52
-69.76
-76.11
-78.50
-75.25
-65.79
-50.90
-32.58
-13.41
4.22
18.75
29.66
37.23
42.13
44.96
46.09
45.72
44.01
41.31
38.12
35.06
32.66
31.26
30.88
31.29
32.06
32.67
32.73
32.01
30.48
28.25
25.41
22.05
18.14
13.62
8.48
2.77
-3.29
-9.43
-15.40
-21.00
-26.17
-31.00
-35.70
-40.52
-45.84
-52.04
-59.46
-68.12
-77.41
-86.01
-91.98
-93.24
-88.29
-76.78
-59.79
-39.57
-18.85
-0.10
15.17
26.52
34.44
39.80
43.47
45.97
47.46
47.91
47.29
45.84
43.96
42.22
41.06
40.71
41.03
41.63
41.99
41.66
40.33
37.94
34.63
30.60
26.07
21.15
15.95
10.47
4.71
-1.29
-7.48
-13.71
-19.76
-25.41
-30.48
-34.96
-39.10
-43.44
-48.67
-55.39
-63.76
-73.19
-82.17
-88.59
-90.17
-85.26
-73.50
-55.98
-35.05
-13.57
5.94
21.93
34.00
42.66
48.77
53.05
55.92
57.53
57.95
57.43
56.39
55.31
54.56
54.23
54.16
54.04
53.62
52.80
51.72
50.60
49.62
48.72
47.55
45.44
41.73
35.92
28.03
18.54
8.35
-1.55
-10.39
-17.81
-23.92
-29.15
-34.11
-39.38
-45.42
-52.41
-60.13
-67.84
-74.30
-77.95
-77.32
-71.52
-60.58
-45.50
-28.06
-10.29
5.95
19.38
29.45
36.16
39.92
41.24
40.66
38.67
35.79
32.54
29.44
26.86
24.98
23.73
22.91
22.30
21.78
21.28
20.76
20.01
18.69
16.37
12.77
7.87
1.98
-4.35
-10.49
-15.96
-20.57
-24.50
-28.26
-32.60
-38.25
-45.56
-54.24
-63.14
-70.42
-73.99
-72.15
-64.19
-50.74
-33.58
-15.09
2.39
17.25
28.72
36.83
41.96
44.59
45.10
43.79
41.05
37.38
33.42
29.78
26.88
24.86
23.65
23.00
22.64
22.27
21.62
20.35
18.14
14.73
10.04
4.26
-2.21
-8.83
-15.12
-20.80
-25.95
-30.96
-36.46
-43.06
-51.03
-59.96
-68.64
-75.19
-77.55
-74.12
-64.38
-49.16
-30.45
-10.78
7.47
22.71
34.33
42.53
47.95
51.29
53.02
53.37
52.46
50.45
47.63
44.37
41.01
37.76
34.67
31.76
29.07
26.69
24.71
22.98
21.15
18.65
14.96
9.84
3.50
-3.48
-10.38
-16.63
-22.03
-26.88
-31.81
-37.64
-44.99
-53.94
-63.75
-72.85
-79.11
-80.44
-75.53
-64.37
-48.29
-29.58
-10.74
6.25
20.34
31.38
39.81
46.19
50.87
53.94
55.32
55.01
53.26
50.57
47.63
45.09
43.35
42.45
42.14
42.06
42.03
42.15
42.70
43.86
45.31
46.17
45.32
41.88
35.73
27.68
19.15
11.55
5.73
1.61
-1.53
-4.79
-9.10
-14.99
-22.41
-30.68
-38.49
-44.08
-45.60
-41.68
-31.91
-17.09
0.97
20.02
38.01
53.63
66.43
76.64
84.83
91.48
96.85
100.92
103.58
104.78
104.73
103.92
102.98
102.45
102.52
102.95
103.24
102.89
101.73
99.98
98.20
96.91
96.28
95.94
95.04
92.59
87.93
81.04
72.55
63.51
54.67
45.94
36.00
22.41
2.22
-27.23
-67.44
-117.99
-176.28
-237.63
-295.97
-345.08
-379.95
-397.98
-399.35
-386.75
-364.18
-335.70
-304.45
-272.29
-240.15
-208.58
-178.20
-149.78
-123.93
-100.88
-80.22
-61.14
-42.74
-24.45
-6.31
11.04
26.67
39.83
50.30
58.48
65.16
70.97
76.03
79.84
81.59
80.62
76.89
71.10
64.37
57.87
52.29
47.70
43.64
39.37
34.21
27.70
19.65
10.14
-0.38
-10.97
-20.17
-26.17
-27.35
-22.82
-12.88
0.96
16.48
31.39
43.92
53.21
59.18
62.19
62.74
61.33
58.38
54.41
50.04
45.88
42.44
39.97
38.42
37.50
36.83
36.08
35.10
33.94
32.66
31.27
29.59
27.27
23.95
19.44
13.83
7.59
1.37
-4.10
-8.41
-11.55
-14.05
-16.80
-20.78
-26.67
-34.45
-43.21
-51.29
-56.61
-57.33
-52.43
-42.05
-27.55
-11.13
4.87
18.53
28.84
35.72
39.75
41.75
42.37
41.95
40.59
38.41
35.67
32.80
30.34
28.61
27.65
27.17
26.70
25.88
24.62
23.13
21.71
20.59
19.62
18.34
16.15
12.54
7.36
0.89
-6.23
-13.24
-19.49
-24.63
-28.70
-32.09
-35.46
-39.56
-44.95
-51.66
-58.94
-65.27
-68.68
-67.31
-60.20
-47.63
-31.19
-13.23
3.90
18.45
29.72
37.82
43.35
46.96
49.07
49.80
49.19
47.31
44.44
41.10
37.89
35.34
33.66
32.66
31.82
30.61
28.75
26.40
24.00
22.02
20.53
19.12
17.02
13.51
8.31
1.76
-5.31
-11.92
-17.39
-21.55
-24.78
