1520870117.00
64.000000
-0.00
-0.00
-0.00
-0.00
-0.00
-0.00
-0.00
-0.00
-0.00
-0.00
0.00
0.01
0.01
-0.00
-0.03
-0.05
-0.05
0.00
0.13
0.36
0.66
1.01
1.37
1.72
2.06
2.40
2.79
3.24
3.80
4.42
5.06
5.66
6.20
6.68
7.15
7.68
8.31
9.14
10.09
11.04
11.88
12.56
13.14
13.76
14.65
15.96
17.91
20.32
22.90
25.38
27.58
29.57
31.68
34.32
37.81
42.54
48.15
54.10
59.83
64.97
69.58
74.14
79.34
85.71
93.76
103.00
112.62
121.73
129.77
136.75
143.30
150.75
157.77
166.64
177.95
191.79
206.97
220.57
228.25
225.36
208.53
176.87
132.76
80.05
23.07
-34.94
-92.44
-149.16
-205.23
-260.37
-313.74
-363.87
-409.83
-450.91
-486.50
-515.74
-537.23
-549.22
-549.96
-538.37
-514.21
-478.67
-433.88
-382.45
-327.02
-269.84
-212.63
-156.66
-102.95
-52.37
-5.90
35.58
71.43
101.35
125.50
144.38
158.69
169.15
176.37
180.75
182.57
182.07
179.51
175.23
169.65
163.18
156.15
148.81
141.30
133.69
126.02
118.33
110.69
103.16
95.80
88.68
81.83
75.25
68.95
62.95
57.25
51.86
46.78
42.03
37.59
33.45
29.61
26.07
22.81
19.83
17.11
14.67
12.48
10.54
8.83
7.35
6.07
4.97
4.05
3.27
2.62
2.09
1.65
1.30
1.01
0.79
0.61
0.47
0.37
0.28
0.22
0.18
0.15
0.13
0.12
0.12
0.12
0.14
0.16
0.18
0.21
0.25
0.29
0.33
0.37
0.42
0.46
0.51
0.56
0.61
0.66
0.72
0.78
0.85
0.92
1.00
1.09
1.19
1.30
1.43
1.56
1.72
1.89
2.09
2.30
2.54
2.80
3.09
3.41
3.75
4.14
4.58
5.05
5.55
6.08
6.60
7.12
7.65
8.22
8.84
9.56
10.36
11.23
12.15
13.09
14.04
15.01
16.02
17.11
18.30
19.55
20.80
21.91
22.73
23.10
22.95
22.20
20.87
18.96
16.45
13.32
9.48
4.94
-0.19
-5.63
-11.00
-15.87
-19.89
-22.93
-25.11
-26.73
-28.14
-29.59
-31.06
-32.31
-33.02
-32.91
-32.02
-30.69
-29.50
-29.01
-29.54
-30.96
-32.75
-34.29
-35.07
-34.94
-34.19
-33.38
-33.11
-33.95
-36.37
-40.49
-45.94
-51.40
-54.72
-53.42
-45.75
-31.60
-12.95
6.70
23.64
35.25
40.85
41.49
39.09
35.46
31.73
28.32
25.34
22.97
21.43
20.92
21.23
21.88
22.21
21.71
20.24
18.12
15.89
14.10
13.12
12.90
13.05
13.08
12.39
10.72
8.14
4.99
1.73
-1.25
-3.73
-5.77
-7.66
-9.84
-12.54
-15.64
-18.57
-20.51
-20.70
-18.83
-15.11
-10.26
-5.11
-0.25
4.07
7.92
11.41
14.48
16.90
18.45
19.16
19.35
19.58
20.28
21.54
23.13
24.59
25.65
26.35
27.05
28.16
29.89
32.07
34.23
35.90
36.73
36.61
35.63
33.95
31.82
29.51
27.28
25.25
23.41
21.61
19.57
17.12
14.17
10.75
6.90
2.76
-1.41
-5.10
-7.65
-8.45
-7.26
-4.33
-0.38
3.73
7.40
10.37
12.72
14.56
15.88
16.54
16.42
15.58
14.25
12.78
11.36
10.04
8.70
7.23
5.59
3.76
1.72
-0.66
-3.54
-6.96
-10.78
-14.57
-17.92
-20.57
-22.63
-24.48
-26.54
-29.07
-32.02
-35.18
-38.29
-41.30
-44.38
-47.69
-51.25
-54.63
-57.13
-57.93
-56.50
-52.82
-47.44
-41.17
-34.77
-28.71
-23.18
-18.27
-14.11
-11.04
-9.34
-9.14
-10.13
-11.66
-12.93
-13.30
-12.50
-10.64
-8.15
-5.56
-3.30
-1.64
-0.66
-0.28
-0.32
-0.67
-1.29
-2.20
-3.40
-4.79
-6.20
-7.41
-8.30
-8.85
-9.19
-9.52
-10.04
-10.83
-11.83
-12.88
-13.75
-14.11
-13.68
-12.19
-9.51
-5.58
-0.54
5.33
11.61
17.73
23.09
27.18
29.71
30.63
30.17
28.68
26.54
24.12
21.76
19.74
18.24
17.39
17.13
17.29
17.60
17.80
17.71
17.25
16.47
15.44
14.22
12.88
11.38
9.68
7.69
5.32
2.52
-0.60
-3.91
-7.23
-10.41
-13.43
-16.39
-19.36
-22.25
-24.69
-26.13
-26.01
-24.07
-20.53
-16.03
-11.33
-7.07
-3.47
-0.45
2.24
4.71
6.90
8.62
9.78
10.48
10.96
11.45
11.99
12.37
12.29
11.57
10.23
8.56
7.01
5.87
5.26
5.03
4.93
4.58
3.69
2.13
-0.12
-2.89
-5.88
-8.75
-11.32
-13.60
-15.82
-18.28
-21.27
-24.89
-29.03
-33.37
-37.47
-40.82
-42.98
-43.55
-42.32
-39.36
-35.06
-29.95
-24.68
-19.76
-15.49
-12.02
-9.38
-7.63
-6.79
-6.84
-7.50
-8.34
-8.74
-8.09
-6.04
-2.68
1.48
5.57
8.74
10.44
10.52
9.31
7.37
5.23
3.22
1.49
0.04
-1.03
-1.54
-1.32
-0.35
1.06
2.31
2.70
1.68
-0.90
-4.77
-9.26
-13.67
-17.43
-20.30
-22.28
-23.38
-23.46
-22.19
-19.13
-14.09
-7.33
0.40
8.08
14.72
19.72
22.96
24.72
25.50
25.75
25.83
25.97
26.27
26.72
27.16
27.35
27.12
26.48
25.68
25.08
24.97
25.42
26.21
27.00
27.53
27.77
27.90
28.07
28.25
28.17
27.51
26.12
24.20
22.19
20.51
19.29
18.24
16.84
14.62
11.47
7.75
4.00
0.70
-1.99
-4.21
-6.15
-7.85
-9.11
-9.58
-8.96
-7.23
-4.61
-1.49
1.75
4.76
7.30
9.16
10.14
10.11
9.03
7.04
4.44
1.57
-1.23
-3.66
-5.48
-6.48
-6.50
-5.47
-3.52
-0.93
1.81
4.19
5.74
6.24
5.70
4.33
2.44
0.24
-2.09
-4.47
-6.81
-8.93
-10.75
-12.24
-13.66
-15.45
-18.02
-21.53
-25.64
-29.60
-32.38
-33.11
-31.27
-26.88
-20.38
-12.43
-3.66
5.42
14.49
23.23
31.31
38.25
43.53
46.73
47.57
46.13
42.81
38.30
33.43
28.97
25.64
23.95
24.28
26.67
30.88
36.32
42.18
47.69
52.28
55.67
57.82
58.84
58.87
58.04
56.47
54.30
51.62
48.39
44.49
39.73
34.02
27.42
20.18
12.64
5.17
-1.74
-7.61
-11.96
-14.52
-15.32
-14.77
-13.42
-11.77
-10.10
-8.45
-6.87
-5.50
-4.63
-4.56
-5.36
-6.77
-8.31
-9.42
-9.70
-9.03
-7.53
-5.51
-3.37
-1.44
0.03
1.01
1.59
1.94
2.14
2.13
1.75
0.78
-0.90
-3.22
-5.96
-8.83
-11.60
-14.21
-16.78
-19.55
-22.81
-26.62
-30.83
-35.07
-38.92
-42.01
-44.10
-45.08
-44.85
-43.28
-40.27
-35.79
-30.10
-23.71
-17.23
-11.24
-6.10
-1.95
1.18
3.30
4.45
4.65
4.06
2.97
1.74
0.66
-0.10
-0.61
-1.06
-1.66
-2.58
-3.80
-5.21
-6.58
-7.71
-8.44
-8.73
-8.63
-8.27
-7.76
-7.17
-6.57
-6.09
-5.94
-6.45
-7.98
-10.77
-14.77
-19.61
-24.62
-28.98
-31.93
-32.99
-31.99
-29.10
-24.72
-19.35
-13.54
-7.86
-2.80
1.20
3.90
5.27
5.49
4.89
3.73
2.22
0.40
-1.73
-4.08
-6.47
-8.65
-10.36
-11.43
-11.79
-11.44
-10.47
-9.10
-7.69
-6.59
-6.01
-5.87
-5.83
-5.52
-4.92
-4.40
-4.73
-6.61
-10.30
-15.39
-20.93
-25.83
-29.26
-30.88
-30.76
-29.19
-26.46
-22.79
-18.39
-13.62
-8.95
-4.92
-1.92
-0.05
0.95
1.52
2.10
2.93
4.03
5.20
6.20
6.89
7.34
7.77
8.44
9.49
10.89
12.38
13.59
14.21
14.07
13.11
11.45
9.28
6.78
4.04
1.08
-2.17
-5.78
-9.81
-14.18
-18.66
-22.93
-26.59
-29.22
-30.52
-30.25
-28.32
-24.83
-20.12
-14.72
-9.26
-4.28
-0.10
3.25
5.92
8.01
9.58
10.61
11.13
11.22
11.05
10.80
10.61
10.60
10.88
11.58
12.72
14.24
15.93
17.53
18.82
19.64
19.93
19.62
18.59
16.74
14.09
10.86
7.37
3.90
0.51
-3.01
-7.02
-11.73
-17.09
-22.64
-27.72
-31.65
-33.92
-34.32
-32.93
-29.96
-25.70
-20.46
-14.53
-8.28
-2.12
3.50
8.19
11.68
13.88
14.90
15.05
14.72
14.32
14.08
14.03
13.92
13.41
12.32
10.77
9.15
7.88
7.17
6.84
6.37
5.15
2.82
-0.61
-4.84
-9.49
-14.30
-19.15
-23.99
-28.68
-32.96
-36.66
-39.73
-42.31
-44.51
-46.22
-47.02
-46.30
-43.56
-38.66
-32.06
-24.65
-17.52
-11.56
-7.26
-4.63
-3.26
-2.48
-1.68
-0.51
1.07
2.67
3.78
3.95
3.04
1.23
-0.99
-3.08
-4.57
-5.24
-5.15
-4.56
-3.80
-3.07
-2.38
-1.55
-0.39
1.15
2.89
4.43
5.37
5.59
5.26
4.74
4.31
4.02
3.69
3.04
1.97
0.63
-0.65
-1.51
-1.57
-0.55
1.81
5.65
10.95
17.39
24.37
31.14
36.91
41.08
43.25
43.32
41.33
37.53
32.39
26.55
20.82
15.91
12.31
10.15
9.19
9.04
9.31
9.82
10.56
11.63
13.06
14.79
16.56
18.10
19.22
19.76
19.63
18.70
16.79
13.80
9.78
5.03
0.04
-4.66
-8.69
-11.98
-14.77
-17.51
-20.65
-24.40
-28.59
-32.65
-35.76
-37.18
-36.41
-33.38
-28.40
-22.07
-15.05
-7.94
-1.27
4.58
9.28
12.68
14.80
15.81
16.09
16.04
16.07
16.38
17.06
18.08
19.40
20.98
22.84
24.95
27.21
29.40
31.25
32.53
33.19
33.31
33.06
32.57
31.80
30.61
28.84
26.46
23.55
20.35
17.10
13.97
11.05
8.31
5.64
2.84
-0.31
-4.08
-8.64
-13.97
-19.75
-25.38
-30.13
-33.23
-34.15
-32.61
-28.68
-22.78
-15.59
-7.95
-0.59
5.88
11.23
15.43
18.63
21.02
22.76
23.93
24.71
25.27
25.77
26.35
27.02
27.73
28.45
29.20
30.03
30.89
31.60
31.85
31.37
29.98
27.68
24.62
21.04
17.12
13.06
9.06
5.36
2.18
-0.35
-2.21
-3.57
-4.64
-5.66
-6.88
-8.54
-10.88
-14.16
-18.57
-24.17
-30.75
-37.84
-44.70
-50.40
-54.03
-54.87
-52.64
-47.64
-40.61
-32.60
-24.61
-17.39
-11.20
-5.96
-1.35
3.05
7.62
12.60
18.09
24.01
30.10
36.03
41.42
45.96
49.44
51.85
53.25
53.81
53.73
53.18
52.28
51.11
49.68
47.96
45.85
43.26
40.04
36.09
31.42
26.19
20.76
15.64
11.34
8.12
5.94
4.36
2.75
0.55
-2.54
-6.42
-10.69
-14.85
-18.57
-21.69
-24.23
-26.14
-27.26
-27.29
-26.05
-23.64
-20.52
-17.42
-15.04
-13.83
-13.84
-14.81
-16.35
-18.15
-20.01
-21.83
-23.56
-25.15
-26.54
-27.69
-28.59
-29.14
-29.25
-28.78
-27.70
-26.11
-24.30
-22.63
-21.41
-20.84
-20.94
-21.65
-22.93
-24.70
-26.95
-29.57
-32.41
-35.27
-38.00
-40.51
-42.75
-44.57
-45.86
-46.52
-46.56
-46.17
-45.57
-44.77
-43.47
-41.07
-36.93
-30.72
-22.68
-13.50
-4.21
4.33
11.59
17.51
22.29
26.24
29.56
32.25
34.25
35.46
35.90
35.71
35.08
34.27
33.47
32.78
32.27
31.90
31.59
31.25
30.75
29.96
28.81
27.24
25.34
23.23
21.06
18.92
16.81
14.64
12.25
9.55
6.50
3.23
-0.06
-3.17
-6.04
-8.79
-11.64
-14.81
-18.35
-22.07
-25.56
-28.32
-29.88
-29.92
-28.28
-24.93
-19.98
-13.70
-6.57
0.79
7.65
13.47
17.93
21.04
23.07
24.39
25.32
26.08
26.76
27.41
28.11
29.01
30.31
32.10
34.32
36.77
39.08
40.90
42.05
42.52
42.46
42.05
41.35
40.31
38.73
36.39
33.11
28.85
23.68
17.84
11.60
5.26
-0.97
-7.05
-13.12
-19.38
-25.99
-32.89
-39.74
-45.97
-50.82
-53.65
-54.05
-51.91
-47.56
-41.62
-34.94
-28.32
-22.37
-17.33
-13.18
-9.68
-6.57
-3.64
-0.81
2.01
4.95
8.18
11.81
15.78
19.85
23.65
26.87
29.35
31.18
32.63
33.92
35.16
36.14
36.49
35.80
33.86
30.80
27.06
23.17
19.60
16.56
14.02
11.82
9.78
7.76
5.66
3.30
0.46
-3.00
-7.00
-11.14
-14.80
-17.31
-18.18
-17.19
-14.47
-10.37
-5.38
-0.08
4.98
9.44
13.10
15.89
17.82
18.86
18.85
17.67
15.24
11.73
7.46
2.81
-1.93
-6.60
-11.11
-15.36
-19.12
-22.12
-24.17
-25.26
-25.51
-25.20
-24.61
-23.93
-23.34
-22.95
-22.87
-23.22
-24.07
-25.42
-27.14
-28.86
-30.23
-30.97
-31.11
-31.03
-31.26
-32.24
-34.04
-36.21
-37.97
-38.58
-37.57
-34.92
-30.92
-26.08
-20.88
-15.80
-11.25
-7.59
-5.01
-3.51
-2.85
-2.71
-2.78
-2.83
-2.70
-2.31
-1.61
-0.68
0.25
0.81
0.60
-0.56
-2.58
-5.09
-7.70
-10.15
-12.42
-14.67
-17.02
-19.50
-21.99
-24.42
-26.82
-29.38
-32.26
-35.45
-38.70
-41.53
-43.45
-44.13
-43.47
-41.54
-38.49
-34.47
-29.70
-24.45
-19.03
-13.80
-8.95
-4.56
-0.62
2.87
5.80
8.00
9.33
9.80
9.66
9.35
9.24
9.56
10.18
10.79
11.07
10.85
10.29
9.65
9.22
9.02
8.82
8.23
6.98
5.23
3.55
2.78
3.60
6.20
10.14
14.55
18.46
21.13
22.22
21.69
19.72
16.62
12.85
9.05
6.06
4.72
5.64
8.98
14.34
20.92
27.75
33.97
39.03
42.74
45.17
46.55
47.11
47.08
46.73
46.38
46.43
47.15
48.64
50.67
52.78
54.40
55.01
54.34
52.34
49.19
45.27
41.11
37.22
33.97
31.39
29.14
26.60
23.21
18.63
12.95
6.63
0.46
-4.61
-7.71
-8.24
-6.13
-1.92
3.33
8.32
11.88
13.27
12.33
9.51
5.63
1.71
-1.32
-2.81
-2.64
-1.21
0.65
1.99
2.02
0.39
-2.73
-6.75
-10.82
-14.04
-15.71
-15.44
-13.22
-9.35
-4.33
1.38
7.35
13.28
18.85
23.74
27.59
30.14
31.36
31.56
31.29
31.23
31.97
33.85
36.90
40.92
45.52
50.29
54.82
58.74
61.72
63.51
64.04
63.46
62.13
60.34
58.12
55.06
50.31
42.93
32.36
18.69
2.66
-14.53
-31.61
-47.58
-61.73
-73.57
-82.74
-89.04
-92.57
-93.84
-93.63
-92.70
-91.48
-89.86
-87.43
-83.74
-78.71
-72.80
-66.90
-62.01
-58.89
-57.81
-58.38
-59.76
-60.85
-60.64
-58.46
-54.23
-48.32
-41.41
-34.28
-27.56
-21.75
-17.23
-14.24
-12.90
-13.03
-14.14
-15.55
-16.73
-17.41
-17.70
-17.92
-18.40
-19.31
-20.64
-22.40
-24.74
-27.86
-31.98
-37.07
-42.77
-48.47
-53.44
-57.12
-59.25
-59.96
-59.54
-58.34
-56.55
-54.15
-51.00
-47.03
-42.38
-37.37
-32.42
-27.81
-23.55
-19.40
-15.08
-10.38
-5.36
-0.25
4.60
8.89
12.51
15.45
17.82
19.75
21.30
22.43
22.98
22.76
21.68
19.83
17.50
15.06
12.84
10.99
9.40
7.80
5.81
3.08
-0.61
-5.29
-10.71
-16.33
-21.33
-24.75
-25.69
-23.59
-18.30
-10.17
0.19
12.00
24.60
37.48
50.21
62.38
73.48
82.91
90.07
94.63
96.66
96.65
95.39
93.59
91.54
88.82
84.28
76.31
63.29
44.30
19.53
-9.43
-39.86
-68.55
-92.64
-110.34
-121.33
-126.67
-128.39
-128.90
-130.31
-133.79
-139.08
-144.23
-145.97
-140.55
-124.86
-97.48
-58.92
-11.32
42.32
98.84
155.05
207.71
253.37
288.81
311.71
321.44
319.33
308.12
290.95
270.34
247.62
223.17
197.07
169.78
142.52
117.01
94.84
76.92
63.05
52.17
42.86
34.07
25.46
17.39
10.52
5.38
2.07
0.25
-0.67
-1.35
-2.30
-3.89
-6.26
-9.32
-12.77
-16.24
-19.46
-22.59
-26.43
-32.60
-43.26
-60.38
-84.95
-116.26
-151.73
-187.52
-219.58
-244.94
-262.31
-271.92
-274.76
-271.52
-262.15
-246.14
-223.40
-195.05
-163.71
-132.84
-105.82
-85.33
-73.11
-70.09
-76.38
-91.02
-111.62
-134.55
-155.71
-171.93
-182.07
-187.08
-188.99
-189.39
-188.15
-183.26
-171.82
-151.34
-120.75
-80.37
-31.40
24.43
84.77
146.33
204.77
255.22
293.54
317.52
327.36
325.32
314.53
297.77
276.69
251.86
223.40
191.77
158.20
124.47
92.44
63.55
38.49
17.33
-0.12
-14.14
-24.83
-32.25
-36.57
-38.14
-37.43
-34.86
-30.58
-24.61
-17.00
-8.13
1.15
9.66
16.29
20.24
21.28
19.57
15.53
9.60
2.21
-6.37
-15.95
-26.32
-37.21
-48.20
-58.64
-67.94
-75.61
-81.55
-86.03
-89.62
-92.92
-96.25
-99.55
-102.41
-104.31
-104.77
-103.49
-100.40
-95.55
-89.13
-81.45
-72.94
-63.98
-54.94
-46.07
-37.49
-29.25
-21.35
-13.83
-6.86
-0.63
4.60
8.68
11.63
13.70
15.28
16.80
18.49
20.32
22.02
23.21
23.58
23.05
21.80
20.16
18.46
16.95
15.68
14.57
13.47
12.26
10.99
9.79
8.80
8.08
7.56
7.06
6.36
5.42
4.31
3.27
2.48
2.09
2.08
2.32
2.52
2.34
1.43
-0.49
-3.55
-7.69
-12.57
-17.61
-21.99
-24.82
-25.40
-23.31
-18.69
-12.01
-3.97
4.84
14.00
23.24
32.31
40.81
48.26
54.32
58.88
62.18
64.69
66.79
68.70
70.45
71.85
72.70
72.84
72.13
70.50
68.03
64.94
61.61
58.45
55.68
53.26
50.89
48.19
44.94
41.17
37.15
33.20
29.54
26.06
22.46
18.23
12.84
5.94
-2.52
-12.23
-22.41
-31.97
-39.67
-44.41
-45.59
-43.30
-38.39
-32.27
-26.52
-22.33
-20.16
-19.66
-19.82
-19.49
-17.74
-14.08
-8.44
-1.08
7.57
16.85
25.87
33.58
38.96
41.28
40.32
36.50
30.76
24.36
18.62
14.56
12.66
12.73
14.08
15.79
17.12
17.80
18.05
18.33
18.96
19.95
21.04
21.98
22.77
23.67
24.96
26.71
28.70
30.47
31.69
32.27
32.41
32.46
32.63
32.83
32.80
32.23
30.99
29.17
27.04
24.75
22.36
19.77
16.87
13.66
10.25
6.81
3.45
0.25
-2.73
-5.28
-7.06
-7.67
-6.84
-4.57
-1.17
2.82
6.87
10.58
13.81
16.58
18.98
21.04
22.67
23.73
24.07
23.66
22.63
21.22
19.69
18.22
16.84
15.53
14.23
13.02
12.02
11.29
10.81
10.39
9.80
8.93
7.82
6.67
5.64
4.80
4.01
3.04
1.70
-0.08
-2.24
-4.66
-7.26
-10.01
-12.90
-15.97
-19.25
-22.76
-26.55
-30.54
-34.55
-38.13
-40.74
-41.83
-41.09
-38.56
-34.70
-30.15
-25.50
-21.10
-17.01
-13.14
-9.42
-5.94
-2.90
-0.55
1.03
1.98
2.58
3.07
3.56
3.97
4.14
4.03
3.75
3.54
3.59
3.98
4.58
5.22
5.74
6.14
6.57
7.16
7.98
8.89
9.58
9.71
8.98
7.27
4.59
1.10
-2.96
-7.31
-11.64
-15.66
-19.19
-22.27
-25.12
-28.03
-31.16
-34.36
-37.13
-38.75
-38.59
-36.40
-32.42
-27.22
-21.47
-15.65
-9.99
-4.57
0.46
4.88
8.37
10.64
11.71
11.73
11.04
10.01
8.86
7.76
6.74
5.90
5.36
5.25
5.65
6.55
7.76
9.01
10.00
10.48
10.34
9.66
8.61
7.34
5.89
4.24
2.38
0.41
-1.53
-3.28
-4.85
-6.44
-8.39
-10.99
-14.33
-18.27
-22.44
-26.38
-29.65
-31.84
-32.67
-31.94
-29.61
-25.82
-20.92
-15.43
-9.88
-4.71
-0.17
3.65
6.77
9.21
10.99
12.13
12.77
13.05
13.14
13.13
13.05
12.84
12.49
12.09
11.80
11.79
12.11
12.65
13.19
13.49
13.35
12.73
11.67
10.26
8.62
6.86
5.06
3.19
1.18
-1.05
-3.49
-6.08
-8.66
-11.19
-13.75
-16.54
-19.82
-23.68
-27.99
-32.30
-36.01
-38.54
-39.42
-38.45
-35.64
-31.23
-25.64
-19.46
-13.33
-7.78
-3.08
0.78
4.07
7.09
10.05
12.99
15.80
18.33
20.49
22.21
23.46
24.22
24.48
24.38
24.19
24.25
24.79
25.80
26.95
27.79
27.93
27.28
26.08
24.81
23.85
23.31
22.96
22.33
20.97
18.73
15.73
12.28
8.70
5.13
1.51
-2.33
-6.58
-11.38
-16.77
-22.72
-28.99
-35.12
-40.41
-43.98
-45.15
-43.66
-39.80
-34.35
-28.20
-22.13
-16.63
-11.90
-7.92
-4.68
-2.07
0.06
1.86
3.47
4.94
6.20
7.11
7.61
7.75
7.68
7.61
7.66
7.89
8.25
8.70
9.11
9.36
9.25
8.64
7.45
5.83
4.02
2.31
0.85
-0.36
-1.49
-2.81
-4.55
-6.87
-9.75
-12.99
-16.27
-19.25
-21.74
-23.84
-25.87
-28.27
-31.36
-35.12
-39.21
-43.02
-45.91
-47.34
-47.01
-44.75
-40.64
-34.89
-27.93
-20.32
-12.66
-5.52
0.70
5.75
9.54
12.10
13.64
14.52
15.16
15.91
16.93
18.14
19.24
19.96
20.23
20.19
20.20
20.54
21.36
22.53
23.78
24.80
25.39
25.50
25.16
24.51
23.63
22.60
21.43
20.17
18.88
17.57
16.20
14.58
12.47
9.65
6.05
1.84
-2.55
-6.59
-9.87
-12.21
-13.86
-15.32
-17.27
-20.25
-24.47
-29.72
-35.38
-40.59
-44.43
-46.21
-45.57
-42.52
-37.45
-31.04
-24.09
-17.37
-11.51
-6.75
-3.02
0.05
2.85
5.62
8.35
10.89
13.07
14.81
16.23
17.46
18.59
19.58
20.35
20.89
21.32
21.87
22.69
23.76
24.83
25.55
25.66
25.14
24.13
22.91
21.70
20.60
19.56
18.45
17.14
15.60
13.81
11.82
9.66
7.35
4.93
2.44
-0.04
-2.47
-4.80
-7.05
-9.29
-11.62
-14.19
-17.16
-20.67
-24.75
-29.31
-34.02
-38.34
-41.60
-43.14
-42.50
-39.60
-34.75
-28.57
-21.77
-15.03
-8.79
-3.34
1.22
4.85
7.60
9.57
10.94
12.01
13.10
14.43
16.06
17.86
19.63
21.15
22.27
22.97
23.29
23.41
23.53
23.83
24.34
24.95
25.39
25.33
24.60
23.26
21.53
19.74
18.10
16.65
15.23
13.64
11.65
9.22
6.38
3.22
-0.12
-3.48
-6.67
-9.54
-12.05
-14.27
-16.45
-18.90
-21.92
-25.58
-29.73
-33.90
-37.50
-39.88
-40.58
-39.36
-36.28
-31.62
-25.83
-19.41
-12.88
-6.70
-1.24
3.23
6.59
8.80
9.95
10.21
9.89
9.37
9.07
9.29
10.14
11.54
13.21
14.79
15.98
16.59
16.57
15.99
15.11
14.21
13.46
12.91
12.37
11.56
10.26
8.42
6.21
3.98
2.00
0.38
-0.98
-2.38
-4.01
-5.93
-7.97
-9.86
-11.42
-12.64
-13.73
-14.99
-16.67
-18.96
-21.85
-25.26
-29.00
-32.88
-36.60
-39.75
-41.80
-42.32
-40.99
-37.83
-33.23
-27.76
-22.03
-16.43
-11.18
-6.30
-1.78
2.28
5.69
8.29
10.02
11.01
11.61
12.17
12.95
14.00
15.20
16.43
17.58
18.64
19.71
20.85
22.05
23.19
24.11
24.64
24.68
24.27
23.53
22.58
21.54
20.49
19.42
18.33
17.11
15.69
13.96
11.94
9.73
7.54
5.55
3.81
2.22
0.54
-1.37
-3.55
-5.80
-7.96
-9.96
-11.95
-14.25
-17.12
-20.63
-24.58
-28.66
-32.62
-36.35
-39.74
-42.60
-44.45
-44.71
-42.90
-38.97
-33.38
-26.90
-20.38
-14.33
-8.89
-3.93
0.69
4.92
8.56
11.32
13.11
14.07
14.56
14.93
15.44
16.15
16.98
17.88
18.84
19.96
21.30
22.80
24.24
25.33
25.77
25.45
24.47
23.10
21.65
20.35
19.30
18.47
17.72
16.89
15.83
14.46
12.77
10.80
8.63
6.33
3.97
1.61
-0.66
-2.72
-4.46
-5.95
-7.39
-9.15
-11.58
-14.91
-19.11
-23.85
-28.61
-32.78
-35.77
-37.15
-36.70
-34.47
-30.72
-25.87
-20.42
-14.79
-9.37
-4.37
0.08
3.98
7.38
10.36
12.94
15.04
16.56
17.40
17.61
17.37
17.00
16.75
16.80
17.12
17.62
18.16
18.60
18.93
19.11
19.16
19.07
18.77
18.14
17.08
15.52
13.51
11.26
9.04
7.06
5.39
3.87
2.18
0.01
-2.73
-5.88
-9.07
-11.90
-14.12
-15.78
-17.21
-18.86
-21.10
-24.13
-27.90
-32.18
-36.65
-40.88
-44.35
-46.48
-46.72
-44.70
-40.48
-34.53
-27.74
-21.04
-15.14
-10.27
-6.23
-2.56
1.06
4.65
7.87
10.31
11.71
12.25
12.40
12.73
13.51
14.68
15.88
16.75
17.21
17.54
18.10
19.16
20.70
22.39
23.84
24.74
24.98
24.72
24.20
23.67
23.25
22.95
22.67
22.25
21.57
20.55
19.18
17.42
15.23
12.62
9.67
6.59
3.67
1.13
-0.96
-2.79
-4.65
-6.85
-9.45
-12.33
-15.31
-18.26
-21.23
-24.42
-28.06
-32.27
-36.98
-41.82
-46.24
-49.55
-51.08
-50.37
-47.31
-42.19
-35.62
-28.42
-21.34
-14.95
-9.52
-5.08
-1.51
1.34
3.58
5.35
6.82
8.16
9.57
11.22
13.10
15.10
16.95
18.41
19.38
19.90
20.21
20.58
21.20
22.09
23.11
24.04
24.74
25.12
25.23
25.15
24.88
24.36
23.44
22.02
20.14
18.04
16.08
14.59
13.71
13.30
12.99
12.33
10.99
8.85
6.01
2.69
-0.83
-4.29
-7.49
-10.25
-12.53
-14.44
-16.25
-18.39
-21.23
-24.96
-29.34
-33.77
-37.35
-39.17
-38.53
-35.22
-29.57
-22.41
-14.76
-7.62
-1.70
2.73
5.75
7.72
9.09
10.27
11.53
12.92
14.36
15.65
16.63
17.19
17.48
17.78
18.37
19.40
20.76
22.10
23.02
23.22
22.66
21.55
20.20
18.84
17.53
16.17
14.60
12.77
10.75
8.65
6.61
4.72
2.99
1.44
0.05
-1.24
-2.53
-3.94
-5.56
-7.42
-9.45
-11.58
-13.77
-16.03
-18.53
-21.47
-25.03
-29.19
-33.62
-37.69
-40.66
-41.87
-41.00
-38.17
-33.85
-28.61
-23.01
-17.39
-11.94
-6.74
-1.94
2.33
5.95
8.80
10.90
12.25
12.96
13.17
13.09
12.95
12.98
13.30
13.97
14.96
16.17
17.48
18.76
19.77
20.31
20.22
19.49
18.29
16.99
15.91
15.23
14.88
14.63
14.19
13.41
12.27
10.91
9.46
8.03
6.65
5.28
3.88
2.38
0.71
-1.22
-3.39
-5.73
-8.11
-10.48
-12.86
-15.34
-17.96
-20.67
-23.40
-26.14
-29.07
-32.42
-36.28
-40.39
-44.04
-46.35
-46.56
-44.41
-40.25
-34.80
-28.82
-22.80
-16.91
-11.13
-5.57
-0.55
3.44
6.02
7.22
7.48
7.53
8.04
9.34
11.25
13.37
15.31
16.88
18.16
19.30
20.40
21.41
22.23
22.79
23.19
23.51
23.82
24.07
24.16
24.00
23.63
23.13
22.56
21.93
21.15
20.15
18.91
17.49
15.98
14.51
13.13
11.89
10.77
9.62
8.24
6.44
4.12
1.37
-1.52
-4.18
-6.34
-7.96
-9.31
-10.80
-12.89
-16.01
-20.27
-25.54
-31.29
-36.71
-40.86
-42.87
-42.30
-39.17
-34.01
-27.65
-20.91
-14.43
-8.53
-3.25
1.51
5.77
9.39
12.16
13.92
14.74
15.01
15.31
16.10
17.48
19.12
20.47
21.10
21.06
20.79
20.93
21.86
23.42
25.04
26.05
26.03
24.99
23.27
21.30
19.38
17.57
15.75
13.79
11.70
9.61
7.73
6.20
5.03
3.96
2.59
0.59
-2.09
-5.19
-8.15
-10.44
-11.86
-12.65
-13.37
-14.63
-16.85
-20.14
-24.40
-29.34
-34.57
-39.47
-43.27
-45.18
-44.66
-41.66
-36.71
-30.70
-24.55
-18.93
-14.04
-9.78
-5.90
-2.23
1.26
4.48
7.30
9.64
11.46
12.84
13.83
14.55
15.08
15.54
16.13
17.04
18.44
20.30
22.45
24.50
26.11
27.05
27.31
27.01
26.30
25.28
24.00
22.58
21.20
20.09
19.38
19.03
18.70
17.98
16.58
14.49
12.06
9.78
8.07
7.01
6.34
5.57
4.26
2.20
-0.50
-3.48
-6.35
-8.88
-11.11
-13.23
-15.47
-18.00
-20.89
-24.22
-28.02
-32.31
-36.90
-41.35
-45.00
-47.15
-47.31
-45.37
-41.62
-36.58
-30.84
-24.87
-19.00
-13.51
-8.58
-4.33
-0.76
2.25
4.83
7.04
8.86
10.23
11.19
11.89
12.60
13.58
14.96
16.70
18.63
20.52
22.17
23.44
24.28
24.73
24.85
24.83
24.83
25.02
25.43
26.00
26.54
26.79
26.41
25.19
23.09
20.37
17.55
15.19
13.67
12.99
12.76
12.40
11.42
9.60
7.04
4.06
1.03
-1.81
-4.32
-6.49
-8.38
-10.08
-11.77
-13.68
-16.15
-19.41
-23.53
-28.23
-32.87
-36.55
-38.38
-37.82
-34.86
-30.09
-24.44
-18.84
-13.94
-9.92
-6.64
-3.83
-1.31
0.94
2.78
4.09
4.84
5.17
5.30
5.47
5.78
6.20
6.62
6.99
7.32
7.75
8.42
9.41
10.60
11.76
12.67
13.13
13.11
12.65
11.94
11.10
10.26
9.49
8.78
8.07
7.28
6.37
5.34
4.27
3.25
2.31
1.39
0.33
-0.97
-2.55
-4.23
-5.77
-6.95
-7.82
-8.64
-9.83
-11.78
-14.68
-18.49
-22.91
-27.57
-32.04
-35.89
-38.64
-39.80
-39.02
-36.27
-31.91
-26.67
-21.35
-16.62
-12.77
-9.70
-7.12
-4.71
-2.27
0.26
2.82
5.30
7.60
9.65
11.35
12.68
13.67
14.44
15.20
16.18
17.54
19.35
21.45
23.59
25.41
26.62
27.07
26.82
26.06
24.99
23.77
22.48
21.16
19.84
18.56
17.27
15.87
14.25
12.32
10.15
7.89
5.77
3.89
2.14
0.24
-2.11
-5.03
-8.37
-11.77
-14.85
-17.51
-19.97
-22.73
-26.21
-30.57
-35.41
-40.06
-43.71
-45.78
-46.07
-44.66
-41.80
-37.76
-32.78
-27.16
-21.32
-15.75
-10.89
-6.98
-4.11
-2.14
-0.84
0.04
0.74
1.48
2.37
3.41
4.49
5.54
6.55
7.64
8.96
10.59
12.40
14.17
15.66
16.80
17.68
18.46
19.26
20.06
20.72
21.06
20.98
20.46
19.55
18.34
16.90
15.23
13.38
11.41
9.46
7.70
6.28
5.26
4.60
4.14
3.68
2.99
1.89
0.20
-2.24
-5.54
-9.67
-14.31
-18.92
-22.79
-25.29
-26.08
-25.26
-23.33
-20.98
-18.78
-17.01
-15.56
-14.02
-11.88
-8.86
-4.98
-0.60
3.73
7.52
10.53
12.78
14.43
15.65
16.47
16.88
16.99
17.02
17.30
18.04
19.22
20.55
21.61
22.09
21.95
21.41
20.78
20.30
20.13
20.31
20.81
21.52
22.19
22.40
21.65
19.55
15.95
11.04
5.23
-0.98
-7.08
-12.74
-17.69
-21.90
-25.51
-28.98
-32.94
-38.00
-44.42
-51.86
-59.36
-65.59
-69.33
-69.90
-67.36
-62.37
-55.92
-48.88
-41.89
-35.26
-29.13
-23.58
-18.65
-14.35
-10.57
-7.12
-3.80
-0.52
2.64
5.45
7.65
9.09
9.83
10.16
10.46
11.10
12.36
14.27
16.68
19.31
21.82
23.86
25.17
25.60
25.18
24.15
22.88
21.74
20.95
20.49
20.18
19.82
19.34
18.81
18.39
18.14
17.90
17.33
16.07
13.98
11.19
8.11
5.27
3.04
1.53
0.50
-0.52
-2.04
-4.42
-7.75
-11.86
-16.39
-20.93
-25.10
-28.51
-30.75
-31.50
-30.54
-27.94
-24.10
-19.63
-15.16
-11.14
-7.76
-4.88
-2.30
0.11
2.31
4.13
5.35
5.88
5.79
5.31
4.70
4.20
4.04
4.40
5.48
7.41
10.26
13.95
18.21
22.67
26.92
30.56
33.23
34.61
34.51
32.82
29.65
25.39
20.59
15.82
11.56
8.03
5.23
3.03
1.29
-0.12
-1.25
-2.14
-2.88
-3.59
-4.38
-5.32
-6.44
-7.80
-9.44
-11.39
-13.54
-15.59
-17.05
-17.33
-15.97
-12.76
-7.86
-1.80
4.65
10.62
15.38
18.52
20.02
20.24
19.82
19.34
19.22
19.55
20.22
21.00
21.70
22.19
22.43
22.44
22.24
21.87
21.36
20.78
20.20
19.72
19.37
19.06
18.66
17.95
16.76
15.04
12.86
10.43
7.97
5.61
3.32
1.02
-1.42
-4.02
-6.72
-9.36
-11.81
-14.05
-16.14
-18.28
-20.69
-23.51
-26.68
-29.95
-32.86
-34.92
-35.81
-35.36
-33.69
-31.01
-27.60
-23.72
-19.59
-15.44
-11.50
-7.99
-5.07
-2.83
-1.21
-0.13
0.56
1.03
1.46
1.99
2.67
3.44
4.16
4.69
4.97
5.05
5.12
5.32
5.72
6.17
6.43
6.20
5.30
3.71
1.58
-0.77
-3.04
-4.97
-6.44
-7.48
-8.20
-8.68
-8.99
-9.16
-9.38
-9.93
-11.17
-13.37
-16.55
-20.47
-24.59
-28.25
-30.77
-31.66
-30.71
-28.02
-24.01
-19.26
-14.36
-9.72
-5.47
-1.51
2.31
6.04
9.53
12.52
14.76
16.24
17.12
17.72
18.33
19.11
20.04
21.00
21.82
22.44
22.90
23.34
23.83
24.37
24.79
24.94
24.75
24.29
23.71
23.13
22.52
21.71
20.51
18.80
16.65
14.30
12.11
10.31
9.03
8.20
7.58
6.82
5.58
3.66
1.08
-1.97
-5.19
-8.30
-11.19
-13.92
-16.65
-19.60
-22.92
-26.68
-30.75
-34.81
-38.41
-41.05
-42.26
-41.87
-39.91
-36.64
-32.36
-27.32
-21.81
-16.10
-10.62
-5.81
-1.99
0.85
3.00
4.92
7.00
9.38
11.91
14.37
16.57
18.46
20.15
21.73
23.23
24.62
25.73
26.49
26.86
26.92
26.73
26.42
26.10
25.85
25.74
25.75
25.83
25.90
25.87
25.67
25.23
24.52
23.50
22.20
20.69
19.15
17.72
16.45
15.24
13.83
11.92
9.36
6.20
2.69
-0.82
-4.02
-6.83
-9.36
-11.86
-14.62
-17.84
-21.59
-25.81
-30.24
-34.48
-37.98
-40.20
-40.69
-39.26
-36.04
-31.40
-25.94
-20.24
-14.74
-9.69
-5.17
-1.19
2.25
5.05
7.17
8.58
9.45
10.05
10.69
11.56
12.73
14.00
15.20
16.20
17.00
17.72
18.41
18.99
19.25
18.97
18.00
16.48
14.73
13.13
11.95
11.22
10.79
10.42
9.92
9.19
8.27
7.17
5.91
4.43
2.67
0.62
-1.74
-4.27
-6.87
-9.39
-11.71
-13.75
-15.45
-16.83
-18.01
-19.21
-20.78
-23.03
-26.12
-29.99
-34.25
-38.33
-41.54
-43.31
-43.31
-41.46
-37.99
-33.34
-28.06
-22.70
-17.72
-13.38
-9.71
-6.60
-3.85
-1.28
1.15
3.44
5.48
7.19
8.57
9.63
10.48
11.23
12.01
12.87
13.82
14.78
15.64
16.34
16.91
17.48
18.19
19.06
20.01
20.83
21.28
21.21
20.61
19.60
18.41
17.33
16.51
16.01
15.75
15.56
15.23
14.64
13.73
12.58
11.30
9.99
8.67
7.26
5.60
3.60
1.30
-1.20
-3.75
-6.19
-8.51
-10.72
-12.94
-15.28
-17.88
-20.86
-24.27
-28.11
-32.17
-36.09
-39.34
-41.37
-41.75
-40.31
-37.23
-33.00
-28.25
-23.58
-19.36
-15.66
-12.28
-9.01
-5.73
-2.50
0.50
3.07
5.16
6.81
8.13
9.19
10.02
10.66
11.20
11.79
12.58
13.63
14.85
16.09
17.20
18.16
18.98
19.70
20.29
20.67
20.73
20.43
19.81
18.94
17.91
16.87
15.96
15.31
14.95
14.79
14.56
13.97
12.83
11.12
9.08
6.99
5.04
3.25
1.47
-0.48
-2.69
-5.11
-7.61
-10.01
-12.20
-14.21
-16.18
-18.39
-21.11
-24.52
-28.50
-32.61
-36.11
-38.28
-38.62
-37.03
-33.81
-29.48
-24.60
-19.60
-14.80
-10.34
-6.29
-2.67
0.49
3.13
5.13
6.37
6.85
6.77
6.48
6.45
6.98
8.21
9.95
11.83
13.48
14.73
15.58
16.24
16.93
17.71
18.45
18.90
18.83
18.28
17.46
16.73
16.37
16.40
16.60
16.66
16.33
15.53
14.35
12.91
11.31
9.61
7.87
6.16
4.58
3.12
1.68
0.15
-1.59
-3.46
-5.31
-6.99
-8.49
-9.96
-11.69
-13.91
-16.72
-19.99
-23.45
-26.75
-29.64
-31.88
-33.31
-33.74
-33.01
-31.01
-27.75
-23.44
-18.47
-13.36
-8.60
-4.58
-1.47
0.81
2.49
3.87
5.11
6.25
7.18
7.82
8.18
8.43
8.78
9.39
10.30
11.42
12.62
13.78
14.84
15.75
16.36
16.50
16.02
14.96
13.57
12.22
11.22
10.57
10.02
9.15
7.73
5.85
3.87
2.27
1.35
1.07
1.12
1.01
0.35
-1.08
-3.22
-5.89
-8.74
-11.36
-13.32
-14.42
-14.76
-14.82
-15.32
-16.90
-19.83
-23.84
-28.19
-32.01
-34.53
-35.28
-34.15
-31.34
-27.24
-22.37
-17.24
-12.28
-7.75
-3.69
-0.06
3.26
6.22
8.76
10.73
12.12
13.04
13.69
14.29
14.98
15.75
16.50
17.16
17.66
18.00
18.28
18.56
18.94
19.37
19.72
19.84
19.57
18.89
17.91
16.79
15.61
14.27
12.61
10.49
7.96
5.27
2.76
0.61
-1.22
-3.05
-5.18
-7.76
-10.71
-13.80
-16.86
-19.87
-22.93
-26.16
-29.52
-32.70
-35.26
-36.66
-36.45
-34.45
-30.79
-25.95
-20.64
-15.62
-11.42
-8.20
-5.75
-3.66
-1.61
0.36
2.03
3.17
3.74
4.06
4.58
5.57
7.02
8.50
9.53
9.85
9.57
9.18
9.18
9.91
11.20
12.62
13.61
13.79
13.07
11.66
9.90
8.14
6.62
5.38
4.41
3.64
3.01
2.54
2.14
1.68
0.93
-0.39
-2.42
-5.08
-8.15
-11.36
-14.55
-17.73
-21.05
-24.70
-28.70
-32.84
-36.68
-39.70
-41.38
-41.31
-39.38
-35.71
-30.74
-25.04
-19.16
-13.47
-8.10
-3.14
1.34
5.15
8.13
10.23
11.60
12.48
13.14
13.64
13.95
13.99
13.88
13.94
14.57
15.99
18.05
20.31
22.26
23.63
24.45
24.99
25.51
25.99
26.22
25.82
24.62
22.71
20.47
18.34
16.64
15.44
14.59
13.87
13.14
12.33
11.38
10.17
8.52
6.26
3.34
-0.09
-3.72
-7.22
-10.39
-13.25
-16.04
-19.06
-22.46
-26.06
-29.35
-31.61
-32.25
-30.95
-27.86
-23.41
-18.13
-12.49
-6.84
-1.44
3.44
7.55
10.75
13.11
14.87
16.33
17.75
19.19
20.57
21.77
22.76
23.66
24.58
25.65
26.84
28.02
29.04
29.72
29.96
29.76
29.14
28.16
26.89
25.36
23.59
21.62
19.53
17.43
15.41
13.49
11.59
9.60
7.45
5.16
2.86
0.65
-1.45
-3.49
-5.56
-7.76
-10.23
-13.12
-16.64
-20.87
-25.68
-30.65
-35.03
-38.11
-39.37
-38.71
-36.40
-32.85
-28.45
-23.42
-18.01
-12.40
-6.91
-1.84
2.59
6.26
9.12
11.14
12.31
12.69
12.52
12.18
12.07
12.45
13.29
14.33
15.27
15.97
16.48
16.99
17.69
18.57
19.45
20.04
20.19
19.88
19.26
18.56
17.91
17.29
16.55
15.48
13.91
11.87
9.50
7.05
4.79
2.95
1.58
0.61
-0.20
-1.22
-2.77
-5.07
-8.07
-11.50
-14.98
-18.20
-21.13
-23.98
-27.12
-30.74
-34.67
-38.31
-40.86
-41.57
-40.14
-36.73
-31.95
-26.51
-21.02
-15.80
-10.95
-6.42
-2.20
1.71
5.17
8.10
10.42
12.13
13.28
14.02
14.52
14.97
15.48
16.13
17.00
18.14
19.62
21.43
23.44
25.32
26.72
27.31
27.00
25.93
24.47
23.05
21.98
21.40
21.17
21.04
20.74
20.12
19.17
18.01
16.75
15.44
13.99
12.27
10.25
7.95
5.53
3.09
0.66
-1.80
-4.38
-7.06
-9.77
-12.38
-14.96
-17.77
-21.18
-25.42
-30.32
-35.24
-39.12
-40.96
-40.11
-36.61
-31.16
-24.81
-18.62
-13.29
-9.01
-5.56
-2.59
0.14
2.71
5.07
7.15
8.95
10.55
12.03
13.40
14.59
15.51
16.10
16.39
16.50
16.57
16.75
17.08
17.57
18.14
18.72
19.21
19.49
19.50
19.22
18.69
17.98
17.13
16.18
15.05
13.69
12.12
10.37
8.54
6.72
4.95
3.25
1.60
-0.01
-1.54
-2.95
-4.29
-5.75
-7.62
-10.22
-13.71
-17.96
-22.57
-27.01
-30.77
-33.47
-34.84
-34.72
-33.04
-29.82
-25.34
-20.11
-14.79
-10.02
-6.13
-3.14
-0.81
1.14
2.89
4.45
5.76
6.82
7.71
8.58
9.52
10.49
11.31
11.81
11.89
11.68
11.43
11.46
11.90
12.66
13.50
14.09
14.20
13.82
13.07
12.10
10.99
9.68
8.08
6.21
4.20
2.28
0.65
-0.67
-1.76
-2.83
-4.08
-5.64
-7.50
-9.59
-11.71
-13.67
-15.31
-16.60
-17.65
-18.81
-20.46
-22.97
-26.51
-30.85
-35.45
-39.53
-42.22
-42.90
-41.36
-37.86
-33.01
-27.59
-22.21
-17.26
-12.84
-8.95
-5.55
-2.70
-0.45
1.18
2.24
2.92
3.44
4.03
4.87
6.08
7.65
9.42
11.12
12.47
13.32
13.79
14.19
14.82
15.84
17.08
18.24
19.06
19.39
19.37
19.16
18.88
18.50
17.90
16.97
15.72
14.29
12.86
11.62
10.60
9.70
8.66
7.13
4.87
1.84
-1.65
-5.09
-7.97
-10.08
-11.56
-12.91
-14.63
-17.04
-20.19
-23.88
-27.84
-31.78
-35.30
-37.95
-39.18
-38.59
-36.09
-32.02
-27.04
-21.92
-17.28
-13.45
-10.47
-8.18
-6.27
-4.51
-2.71
-0.82
1.08
2.85
4.33
5.46
6.30
7.00
7.78
8.80
10.17
11.84
13.73
15.64
17.39
18.77
19.68
20.05
19.91
19.36
18.53
17.58
16.65
15.90
15.38
15.08
14.86
14.55
13.95
12.91
11.43
9.56
7.46
5.31
3.22
1.26
-0.55
-2.28
-4.02
-5.88
-8.03
-10.69
-14.01
-18.00
-22.40
-26.66
-30.07
-31.93
-31.83
-29.78
-26.20
-21.74
-17.06
-12.68
-8.85
-5.63
-2.90
-0.53
1.62
3.59
5.37
6.93
8.29
9.48
10.57
11.59
12.49
13.16
13.47
13.41
13.07
12.63
12.31
12.23
12.38
12.66
12.91
12.94
12.61
11.86
10.76
9.50
8.38
7.59
7.11
6.65
5.79
4.19
1.83
-0.95
-3.59
-5.61
-6.92
-7.83
-8.90
-10.63
-13.20
-16.43
-19.74
-22.46
-23.98
-23.95
-22.35
-19.44
-15.63
-11.32
-6.82
-2.24
2.33
6.76
10.79
14.11
16.49
17.91
18.62
19.03
19.50
20.17
20.95
21.62
22.07
22.38
22.73
23.28
23.92
24.34
24.15
23.12
21.37
19.25
17.24
15.58
14.19
12.71
10.75
8.12
4.95
1.60
-1.49
-4.08
-6.20
-8.06
-9.96
-12.17
-14.86
-18.06
-21.82
-26.06
-30.58
-34.93
-38.47
-40.49
-40.47
-38.34
-34.48
-29.62
-24.53
-19.71
-15.31
-11.23
-7.31
-3.59
-0.26
2.42
4.30
5.46
6.11
6.53
6.89
7.29
7.79
8.51
9.56
11.03
12.82
14.73
16.47
17.90
19.05
20.10
21.22
22.42
23.43
23.93
23.68
22.72
21.34
19.96
18.90
18.23
17.80
17.36
16.79
16.09
15.38
14.70
13.91
12.70
10.75
7.91
4.39
0.69
-2.63
-5.19
-6.99
-8.35
-9.79
-11.71
-14.30
-17.50
-21.16
-25.19
-29.57
-34.29
-39.15
-43.69
-47.27
-49.29
-49.46
-47.82
-44.71
-40.56
-35.65
-30.19
-24.36
-18.50
-13.09
-8.63
-5.34
-3.07
-1.30
0.51
2.64
4.97
7.17
8.92
10.18
11.20
12.37
14.00
16.20
18.81
21.52
24.02
26.02
27.36
28.02
28.13
27.89
27.54
27.13
26.59
25.74
24.55
23.16
21.84
20.81
20.13
19.55
18.78
17.69
16.36
15.04
13.90
12.86
11.58
9.69
7.04
3.96
0.98
-1.35
-2.89
-4.01
-5.43
-7.88
-11.63
-16.29
-20.93
-24.45
-25.97
-25.20
-22.37
-18.07
-12.99
-7.73
-2.73
1.72
5.42
8.35
10.57
12.27
13.69
14.97
16.15
17.12
17.70
17.78
17.36
16.64
15.87
15.34
15.23
15.55
16.18
16.93
17.68
18.39
19.06
19.68
20.12
20.24
19.94
19.30
18.54
17.86
17.35
16.91
16.35
15.52
14.41
13.15
11.88
10.68
9.45
8.04
6.28
4.12
1.66
-0.95
-3.57
-6.13
-8.66
-11.24
-13.94
-16.77
-19.66
-22.43
-24.83
-26.58
-27.36
-26.90
-25.06
-21.89
-17.71
-13.10
-8.74
-5.25
-2.93
-1.67
-1.07
-0.69
-0.22
0.32
0.71
0.68
0.15
-0.73
-1.64
-2.26
-2.38
-1.95
-1.02
0.24
1.65
2.98
4.02
4.56
4.56
4.12
3.41
2.60
1.76
0.94
0.14
-0.63
-1.31
-1.91
-2.58
-3.47
-4.73
-6.34
-8.11
-9.74
-11.01
-11.89
-12.51
-13.13
-13.92
-14.92
-16.05
-17.21
-18.41
-19.75
-21.36
-23.29
-25.37
-27.23
-28.36
-28.32
-26.75
-23.60
-19.16
-13.93
-8.57
-3.60
0.59
3.87
6.29
7.94
8.86
9.10
8.77
8.07
7.43
7.26
7.86
9.15
10.77
12.17
12.92
12.94
12.44
11.87
11.59
11.74
12.20
12.68
12.83
12.39
11.30
9.67
7.74
5.86
4.32
3.23
2.50
1.91
1.23
0.41
-0.39
-0.97
-1.23
-1.35
-1.62
-2.31
-3.39
-4.58
-5.50
-5.95
-6.06
-6.28
-7.09
-8.74
-11.21
-14.18
-17.27
-20.24
-22.91
-25.21
-26.97
-27.90
-27.66
-25.99
-22.92
-18.80
-14.23
-9.84
-6.07
-3.03
-0.58
1.47
3.23
4.58
5.28
5.19
4.42
3.21
1.99
1.11
0.76
0.99
1.74
2.91
4.34
5.84
7.15
8.05
8.42
8.31
7.93
7.51
7.21
7.07
7.01
6.94
6.79
6.57
6.31
6.09
5.91
5.73
5.46
4.98
4.24
3.18
1.76
-0.01
-2.07
-4.27
-6.37
-8.11
-9.35
-10.16
-10.83
-11.83
-13.54
-16.12
-19.38
-22.84
-26.01
-28.53
-30.36
-31.67
-32.65
-33.31
-33.41
-32.56
-30.51
-27.26
-23.16
-18.76
-14.55
-10.80
-7.54
-4.63
-2.05
0.07
1.51
2.08
1.87
1.22
0.64
0.58
1.20
2.40
3.90
5.36
6.53
7.34
7.83
8.13
8.37
8.66
9.05
9.51
9.99
10.45
10.87
11.25
11.62
11.89
11.90
11.50
10.63
9.47
8.31
7.47
7.06
6.95
6.85
6.45
5.61
4.37
2.90
1.36
-0.13
-1.49
-2.62
-3.44
-3.97
-4.33
-4.87
-5.91
-7.66
-10.09
-12.98
-16.08
-19.21
-22.30
-25.26
-27.95
-29.99
-30.88
-30.18
-27.65
-23.42
-17.90
-11.76
-5.65
-0.17
4.35
7.75
10.00
11.17
11.39
10.84
9.79
8.57
7.53
6.93
6.87
7.26
7.93
8.65
9.25
9.70
10.02
10.29
10.56
10.77
10.80
10.53
9.91
9.02
8.04
7.13
6.33
5.48
4.44
3.08
1.50
-0.05
-1.42
-2.64
-3.99
-5.75
-7.95
-10.24
-12.13
-13.32
-13.92
-14.49
-15.71
-17.99
-21.27
-25.10
-28.99
-32.59
-35.75
-38.28
-39.83
-39.88
-37.97
-34.01
-28.38
-21.82
-15.17
-9.13
-4.03
0.10
3.46
6.29
8.76
10.87
12.55
13.64
14.11
14.08
13.83
13.71
13.98
14.72
15.88
17.30
18.87
20.46
21.91
23.04
23.65
23.65
23.09
22.17
21.09
20.02
19.13
18.54
18.27
18.30
18.38
18.17
17.37
15.91
14.06
12.26
10.90
10.03
9.42
8.63
7.35
5.47
3.12
0.52
-2.18
-4.86
-7.50
-10.00
-12.32
-14.48
-16.62
-19.06
-22.16
-26.19
-31.05
-36.31
-41.16
-44.65
-45.98
-44.76
-41.14
-35.68
-29.06
-21.89
-14.59
-7.46
-0.85
4.88
9.47
12.89
15.43
17.44
19.17
20.53
21.30
21.28
20.61
19.76
19.35
19.81
21.15
22.95
24.66
25.86
26.46
26.60
26.62
26.69
26.78
26.69
26.19
25.15
23.64
21.80
19.83
17.81
15.75
13.64
11.65
10.02
8.98
8.51
8.28
7.73
6.34
3.88
0.59
-3.00
-6.25
-8.81
-10.65
-12.10
-13.67
-15.80
-18.71
-22.31
-26.20
-29.76
-32.30
-33.16
-31.89
-28.30
-22.53
-15.07
-6.69
1.66
9.08
14.93
18.95
21.29
22.37
22.72
22.73
22.63
22.50
22.39
22.40
22.62
23.08
23.67
24.22
24.56
24.71
24.77
24.92
25.16
25.36
25.24
24.60
23.43
21.97
20.54
19.33
18.31
17.22
15.76
13.78
11.38
8.84
6.49
4.47
2.74
1.09
-0.70
-2.77
-5.06
-7.37
-9.48
-11.24
-12.70
-14.05
-15.57
-17.54
-20.16
-23.49
-27.50
-31.97
-36.50
-40.52
-43.29
-44.08
-42.44
-38.28
-32.05
-24.52
-16.58
-9.07
-2.46
3.01
7.30
10.46
12.59
13.81
14.34
14.49
14.61
15.00
15.78
16.87
18.07
19.12
19.83
20.16
20.21
20.20
20.40
20.94
21.79
22.74
23.49
23.76
23.44
22.57
21.37
20.12
19.00
18.09
17.37
16.73
16.07
15.29
14.30
13.06
11.57
9.89
8.14
6.45
4.85
3.29
1.62
-0.27
-2.38
-4.62
-6.79
-8.75
-10.52
-12.20
-14.01
-16.11
-18.63
-21.63
-25.10
-28.94
-32.83
-36.32
-38.83
-39.83
-39.01
-36.38
-32.19
-26.89
-20.98
-14.93
-9.13
-3.80
0.94
5.11
8.78
11.96
14.57
16.40
17.28
17.21
16.44
15.44
14.67
14.45
14.78
15.44
16.10
16.61
16.98
17.40
18.02
18.89
19.76
20.30
20.19
19.35
17.96
16.38
14.97
13.90
13.08
12.25
11.17
9.76
8.18
6.75
5.69
4.98
4.35
3.41
1.96
0.05
-1.94
-3.67
-4.96
-5.97
-7.03
-8.43
-10.26
-12.35
-14.52
-16.67
-18.93
-21.47
-24.33
-27.32
-29.95
-31.73
-32.21
-31.22
-28.82
-25.32
-21.16
-16.79
-12.58
-8.76
-5.38
-2.40
0.21
2.39
4.03
5.06
5.55
5.71
5.84
6.11
6.56
7.13
7.79
8.64
9.87
11.63
13.85
16.27
18.51
20.30
21.56
22.36
22.75
22.61
21.69
19.77
16.77
12.87
8.49
4.05
-0.06
-3.52
-6.14
-7.81
-8.56
-8.62
-8.39
-8.33
-8.83
-10.07
-12.07
-14.70
-17.82
-21.19
-24.53
-27.51
-29.95
-31.86
-33.53
-35.36
-37.60
-40.14
-42.49
-43.91
-43.78
-41.82
-38.13
-33.11
-27.29
-21.13
-15.04
-9.35
-4.37
-0.35
2.58
4.47
5.60
6.46
7.58
9.37
11.94
15.09
18.35
21.20
23.29
24.48
24.87
24.64
24.00
23.18
22.50
22.35
23.05
24.75
27.22
29.99
32.46
34.11
34.71
34.27
32.96
31.03
28.73
26.21
23.65
21.16
18.82
16.66
14.62
12.57
10.37
7.86
4.95
1.66
-1.95
-5.75
-9.54
-13.16
-16.34
-18.78
-20.14
-20.16
-18.75
-16.07
-12.54
-8.65
-4.87
-1.57
1.03
2.89
4.03
4.52
4.43
3.88
3.01
2.04
1.28
1.06
1.56
2.75
4.28
5.72
6.66
6.98
6.81
6.46
6.20
6.11
6.12
6.04
5.79
5.33
4.75
4.11
3.47
2.83
2.25
1.86
1.76
1.97
2.26
2.37
1.99
0.99
-0.48
-2.12
-3.58
-4.65
-5.39
-6.04
-6.91
-8.24
-10.06
-12.23
-14.49
-16.57
-18.13
-18.86
-18.44
-16.63
-13.40
-8.99
-3.96
0.97
5.13
8.16
10.10
11.25
11.99
12.60
13.08
13.32
13.19
12.68
11.90
10.98
10.03
9.12
8.36
7.79
7.48
7.38
7.36
7.24
6.85
6.14
5.12
3.88
2.44
0.78
-1.11
-3.22
-5.45
-7.73
-10.04
-12.39
-14.79
-17.15
-19.25
-20.92
-22.16
-23.19
-24.42
-26.25
-28.82
-31.92
-35.09
-37.70
-39.27
-39.48
-38.21
-35.52
-31.58
-26.68
-21.30
-16.03
-11.35
-7.59
-4.80
-2.76
-1.16
0.27
1.65
2.94
3.96
4.52
4.54
4.10
3.51
3.13
3.30
4.17
5.64
7.41
9.14
10.57
11.61
12.21
12.28
11.66
10.26
8.12
5.62
3.31
1.69
0.91
0.73
0.59
-0.07
-1.52
-3.62
-5.98
-8.15
-9.89
-11.24
-12.45
-13.77
-15.37
-17.28
-19.45
-21.78
-24.20
-26.54
-28.52
-29.78
-29.90
-28.55
-25.62
-21.25
-15.93
-10.31
-5.05
-0.58
2.97
5.79
8.12
10.13
11.78
12.91
13.43
13.46
13.35
13.53
14.21
15.32
16.53
17.58
18.39
19.10
19.89
20.80
21.65
22.16
22.17
21.75
21.15
20.64
20.31
20.09
19.78
19.24
18.46
17.48
16.34
14.94
13.25
11.33
9.43
7.90
6.95
6.52
6.24
5.64
4.33
2.22
-0.48
-3.39
-6.18
-8.62
-10.75
-12.77
-14.98
-17.66
-21.01
-25.02
-29.44
-33.75
-37.28
-39.35
-39.46
-37.44
-33.51
-28.27
-22.53
-17.10
-12.49
-8.81
-5.77
-2.93
-0.00
3.01
5.78
7.89
9.08
9.40
9.13
8.65
8.23
8.02
8.09
8.59
9.68
11.47
13.90
16.69
19.40
21.62
23.08
23.70
23.56
22.81
21.62
20.18
18.67
17.28
16.15
15.29
14.55
13.65
12.29
10.26
7.58
4.51
1.47
-1.08
-2.86
-3.85
-4.27
-4.53
-4.98
-5.87
-7.27
-9.14
-11.39
-13.92
-16.69
-19.67
-22.84
-26.10
-29.23
-31.84
-33.54
-33.99
-33.05
-30.80
-27.49
-23.41
-18.84
-14.07
-9.43
-5.30
-2.03
0.19
1.40
1.86
1.91
1.80
1.71
1.77
2.08
2.82
4.07
5.70
7.48
9.13
10.48
11.58
12.49
13.23
13.61
13.44
12.64
11.44
10.32
9.80
10.17
11.35
12.95
14.38
15.19
15.16
14.44
13.43
12.57
12.25
12.57
13.29
14.05
14.34
13.80
12.27
9.86
6.84
3.57
0.33
-2.74
-5.62
-8.45
-11.45
-14.72
-18.22
-21.67
-24.64
-26.77
-27.79
-27.60
-26.13
-23.36
-19.30
-14.15
-8.38
-2.63
2.43
6.33
9.01
10.64
11.52
11.88
11.84
11.47
10.88
10.35
10.16
10.48
11.29
12.38
13.45
14.14
14.28
13.82
12.95
11.96
11.17
10.77
10.73
10.81
10.67
10.12
9.18
8.01
6.83
5.77
4.79
3.77
2.57
1.12
-0.53
-2.27
-3.99
-5.61
-7.14
-8.76
-10.68
-13.13
-16.15
-19.56
-23.00
-25.96
-28.03
-28.90
-28.43
-26.62
-23.56
-19.51
-14.91
-10.34
-6.39
-3.48
-1.76
-1.08
-1.05
-1.30
-1.47
-1.30
-0.64
0.49
1.94
3.41
4.62
5.38
5.73
5.90
6.23
7.01
8.41
10.36
12.67
14.94
16.75
17.74
17.74
16.84
15.46
14.18
13.46
13.45
13.88
14.12
13.54
11.68
8.56
4.57
0.40
-3.37
-6.37
-8.65
-10.60
-12.66
-15.14
-18.01
-20.95
-23.58
-25.57
-26.67
-26.67
-25.39
-22.61
-18.35
-12.91
-6.98
-1.35
3.28
6.63
8.83
10.27
11.38
12.38
13.32
14.10
14.65
14.93
15.02
15.00
14.95
14.94
14.91
14.86
14.73
14.60
14.54
14.68
15.06
15.61
16.12
16.30
15.89
14.68
12.63
9.89
6.84
3.92
1.56
-0.03
-0.97
-1.61
-2.39
-3.58
-5.18
-6.95
-8.64
-10.17
-11.65
-13.33
-15.41
-17.96
-20.91
-24.12
-27.39
-30.52
-33.22
-35.15
-36.00
-35.52
-33.57
-30.19
-25.58
-20.08
-14.21
-8.54
-3.60
0.28
2.96
4.62
5.57
6.13
6.61
7.18
7.88
8.64
9.37
10.04
10.69
11.48
12.53
13.85
15.28
16.45
17.05
16.94
16.23
15.22
14.23
13.41
12.67
11.78
10.49
8.71
6.50
4.07
1.64
-0.56
-2.45
-4.01
-5.28
-6.24
-6.92
-7.37
-7.70
-8.16
-9.03
-10.54
-12.81
-15.77
-19.28
-23.12
-27.00
-30.54
-33.18
-34.32
-33.41
-30.14
-24.67
-17.61
-9.84
-2.37
4.04
8.91
12.17
14.07
14.98
15.32
15.40
15.50
15.78
16.35
17.21
18.28
19.37
20.33
21.08
21.65
22.15
22.65
23.15
23.53
23.63
23.36
22.72
21.82
20.72
19.50
18.20
16.86
15.60
14.46
13.34
11.94
9.87
6.80
2.73
-1.96
-6.67
-10.77
-13.82
-15.84
-17.23
-18.63
-20.65
-23.69
-27.72
-32.31
-36.77
-40.38
-42.54
-42.84
-41.17
-37.60
-32.44
-26.17
-19.36
-12.63
-6.53
-1.39
2.57
5.37
7.15
8.19
8.84
9.45
10.32
11.50
12.82
13.94
14.52
14.43
13.85
13.18
12.87
13.18
14.08
15.30
16.44
17.19
17.40
17.08
16.30
15.18
13.80
12.23
10.58
9.02
7.69
6.62
5.68
4.66
3.39
1.87
0.33
-0.94
-1.69
-2.00
-2.16
-2.60
-3.61
-5.18
-7.06
-8.92
-10.65
-12.41
-14.59
-17.55
-21.31
-25.51
-29.48
-32.50
-34.04
-33.97
-32.49
-29.96
-26.69
-22.84
-18.44
-13.48
-8.08
-2.53
2.72
7.21
10.58
12.65
13.49
13.35
12.59
11.62
10.87
10.74
11.45
13.07
15.41
18.11
20.74
22.96
24.57
25.56
26.05
26.15
25.90
25.24
24.08
22.35
20.12
17.60
15.07
12.74
10.72
8.91
7.09
5.06
2.73
0.20
-2.28
-4.53
-6.49
-8.25
-10.07
-12.17
-14.71
-17.71
-21.02
-24.41
-27.55
-30.08
-31.59
-31.67
-30.04
-26.65
-21.77
-15.88
-9.63
-3.56
1.97
6.79
10.85
14.15
16.60
18.10
18.66
18.46
17.90
17.43
17.45
18.06
19.03
19.91
20.30
20.02
19.28
18.52
18.19
18.49
19.22
19.89
19.93
19.01
17.16
14.72
12.11
9.70
7.59
5.68
3.78
1.71
-0.56
-2.97
-5.35
-7.50
-9.33
-10.86
-12.22
-13.68
-15.52
-17.96
-21.07
-24.72
-28.54
-31.97
-34.39
-35.25
-34.25
-31.48
-27.38
-22.63
-17.85
-13.49
-9.63
-6.19
-3.00
0.02
2.83
5.34
7.43
9.08
10.30
11.11
11.52
11.51
11.12
10.53
10.05
10.02
10.72
12.24
14.40
16.76
18.78
19.97
20.04
19.04
17.28
15.28
13.53
12.36
11.83
11.76
11.77
11.45
10.51
8.91
6.83
4.59
2.54
0.89
-0.35
-1.36
-2.44
-3.84
-5.67
-7.93
-10.48
-13.15
-15.76
-18.23
-20.64
-23.19
-26.19
-29.83
-34.03
-38.32
-41.96
-44.13
-44.23
-42.09
-38.05
-32.74
-26.89
-21.06
-15.58
-10.57
-6.06
-2.04
1.49
4.56
7.12
9.10
10.43
11.16
11.52
11.89
12.74
14.42
17.00
20.16
23.35
26.00
27.67
28.35
28.25
27.72
27.01
26.18
25.18
23.95
22.54
21.10
19.81
18.76
17.87
16.94
15.75
14.18
12.26
10.22
8.31
6.71
5.46
4.36
3.07
1.25
-1.23
-4.17
-7.19
-9.85
-11.93
-13.59
-15.33
-17.66
-20.91
-24.98
-29.30
-33.01
-35.26
-35.44
-33.36
-29.34
-24.06
-18.34
-12.88
-8.09
-4.05
-0.65
2.30
4.86
6.94
8.43
9.28
9.54
9.40
9.07
8.72
8.46
8.43
8.79
9.67
11.06
12.79
14.55
16.01
16.98
17.44
17.49
17.28
16.82
16.05
14.88
13.34
11.57
9.83
8.38
7.33
6.62
6.01
5.22
3.93
2.01
-0.53
-3.47
-6.50
-9.31
-11.77
-13.86
-15.75
-17.65
-19.81
-22.45
-25.70
-29.52
-33.59
-37.35
-40.06
-40.99
-39.72
-36.26
-31.04
-24.80
-18.37
-12.36
-7.16
-2.93
0.41
2.95
4.87
6.34
7.59
8.83
10.21
11.78
13.41
14.89
16.00
16.74
17.22
17.66
18.20
18.88
19.59
20.26
20.89
21.47
21.95
22.16
21.90
21.07
19.77
18.28
16.93
15.92
15.24
14.71
14.12
13.30
12.20
10.87
9.37
7.86
6.49
5.44
4.74
4.22
3.52
2.31
0.42
-2.05
-4.76
-7.39
-9.79
-12.00
-14.19
-16.54
-19.15
-22.11
-25.52
-29.46
-33.82
-38.19
-41.86
-43.98
-43.89
-41.43
-36.93
-31.11
-24.81
-18.74
-13.34
-8.72
-4.85
-1.60
1.08
3.25
4.92
6.16
7.18
8.24
9.59
11.34
13.33
15.24
16.73
17.67
18.24
18.77
19.59
20.79
22.17
23.40
24.17
24.38
24.10
23.51
22.76
21.94
21.11
20.29
19.55
18.87
18.21
17.48
16.63
15.68
14.72
13.86
13.06
12.13
10.77
8.72
5.91
2.53
-1.05
-4.42
-7.34
-9.76
-11.81
-13.72
-15.68
-17.84
-20.35
-23.32
-26.78
-30.49
-33.93
-36.29
-36.78
-34.95
-30.91
-25.32
-19.20
-13.47
-8.72
-5.00
-1.99
0.66
3.20
5.58
7.57
8.98
9.82
10.31
10.80
11.58
12.69
13.96
15.13
16.00
16.60
17.04
17.46
17.91
18.34
18.65
18.79
18.74
18.48
17.99
17.20
16.09
14.72
13.23
11.78
10.53
9.51
8.74
8.15
7.69
7.25
6.66
5.71
4.28
2.41
0.33
-1.58
-2.99
-3.84
-4.41
-5.20
-6.71
-9.11
-12.19
-15.36
-18.10
-20.18
-21.85
-23.68
-26.23
-29.70
-33.79
-37.73
-40.61
-41.63
-40.35
-36.85
-31.63
-25.49
-19.25
-13.62
-8.94
-5.25
-2.35
-0.02
1.87
3.36
4.47
5.33
6.15
7.24
8.76
10.72
12.90
15.00
16.74
18.01
18.86
19.49
20.10
20.81
21.59
22.26
22.62
22.53
22.00
21.18
20.25
19.27
18.19
16.95
15.56
14.15
12.91
11.96
11.28
10.70
10.05
9.20
8.11
6.82
5.34
3.68
1.80
-0.24
-2.33
-4.31
-6.11
-7.79
-9.53
-11.55
-14.00
-16.93
-20.33
-24.12
-28.15
-32.16
-35.74
-38.39
-39.61
-39.05
-36.69
-32.76
-27.77
-22.26
-16.70
-11.42
-6.66
-2.55
0.86
3.54
5.55
7.01
8.07
8.85
9.48
10.05
10.64
11.35
12.23
13.31
14.54
15.79
16.98
18.02
18.91
19.65
20.22
20.56
20.57
20.21
19.55
18.76
18.07
17.65
17.46
17.25
16.75
15.75
14.24
12.42
10.54
8.85
7.45
6.31
5.28
4.21
2.98
1.54
-0.12
-2.05
-4.30
-6.94
-10.01
-13.40
-16.93
-20.37
-23.63
-26.69
-29.65
-32.49
-34.92
-36.46
-36.56
-34.97
-31.83
-27.63
-23.03
-18.51
-14.22
-10.10
-6.07
-2.24
1.06
3.39
4.43
4.24
3.27
2.26
1.90
2.58
4.24
6.40
8.51
10.22
11.53
12.75
14.19
15.84
17.40
18.42
18.61
18.02
16.98
15.94
15.14
14.55
13.94
13.17
12.18
11.07
9.96
8.91
7.79
6.50
5.00
3.37
1.71
0.09
-1.53
-3.26
-5.25
-7.56
-10.11
-12.70
-15.13
-17.28
-19.21
-21.17
-23.44
-26.20
-29.38
-32.60
-35.27
-36.79
-36.73
-34.93
-31.56
-26.97
-21.60
-15.89
-10.15
-4.56
0.78
5.85
10.56
14.69
17.98
20.21
21.28
21.38
20.86
20.10
19.52
19.34
19.64
20.38
21.32
22.16
22.61
22.50
21.83
20.81
19.75
18.94
18.55
18.56
18.86
19.27
19.64
19.85
19.86
19.71
19.44
19.03
18.35
17.18
15.29
12.50
8.82
4.44
-0.49
-5.82
-11.43
-17.24
-23.01
-28.44
-33.19
-37.07
-40.12
-42.61
-44.90
-47.31
-50.03
-53.08
-56.33
-59.55
-62.43
-64.54
-65.35
-64.33
-61.09
-55.54
-48.09
-39.49
-30.71
-22.57
-15.50
-9.49
-4.26
0.54
5.15
9.64
13.95
17.94
21.52
24.52
26.76
28.16
28.83
29.15
29.59
30.50
31.90
33.49
34.87
35.79
36.25
36.45
36.47
36.12
35.03
32.93
29.94
26.60
23.59
21.38
19.86
18.46
16.45
13.37
9.21
4.42
-0.36
-4.54
-7.72
-9.76
-10.70
-10.74
-10.20
-9.40
-8.64
-8.01
-7.48
-6.85
-5.97
-4.88
-3.84
-3.26
-3.59
-5.16
-8.01
-11.79
-15.86
-19.35
-21.42
-21.57
-19.74
-16.42
-12.41
-8.65
-5.87
-4.47
-4.43
-5.31
-6.45
-7.18
-7.02
-5.83
-3.80
-1.33
1.19
3.68
6.31
9.54
13.74
18.94
24.71
30.20
34.48
36.89
37.33
36.21
34.25
32.14
30.14
28.10
25.65
22.58
19.00
15.41
12.38
10.25
8.92
8.05
7.34
6.79
6.76
7.68
9.64
12.17
14.30
15.02
13.73
10.63
6.49
2.36
-1.01
-3.48
-5.46
-7.63
-10.52
-14.36
-18.94
-23.88
-28.65
-32.67
-35.33
-36.08
-34.51
-30.55
-24.59
-17.36
-9.73
-2.43
4.04
9.51
13.90
17.15
19.16
19.92
19.63
18.75
17.85
17.48
17.91
19.10
20.73
22.31
23.44
23.91
23.69
22.97
22.00
21.00
20.14
19.50
19.07
18.75
18.36
17.64
16.36
14.37
11.71
8.60
5.31
2.04
-1.23
-4.65
-8.45
-12.64
-16.99
-21.09
-24.53
-27.06
-28.76
-29.97
-31.12
-32.53
-34.28
-36.24
-38.12
-39.74
-41.13
-42.55
-44.41
-47.04
-50.66
-55.23
-60.44
-65.74
-70.43
-73.71
-74.83
-73.32
-69.13
-62.68
-54.77
-46.35
-38.23
-30.92
-24.58
-19.18
-14.61
-10.79
-7.66
-5.20
-3.37
-2.12
-1.35
-0.93
-0.63
-0.11
1.10
3.41
7.06
11.99
17.75
23.71
29.11
33.38
36.18
37.54
37.70
37.10
36.20
35.41
34.98
35.08
35.75
36.94
38.50
40.14
41.42
41.88
41.19
39.37
36.78
33.97
31.39
29.18
27.09
24.70
21.72
18.19
14.55
11.36
9.10
7.90
7.43
6.94
5.45
2.02
-3.94
-12.39
-22.58
-33.17
-42.54
-49.24
-52.37
-51.73
-47.88
-41.79
-34.65
-27.52
-21.13
-15.74
-11.18
-7.03
-2.77
1.96
7.30
13.12
19.12
24.96
30.33
34.98
38.77
41.65
43.71
45.21
46.52
47.94
49.54
50.92
51.37
50.05
46.46
40.68
33.44
25.88
19.15
14.00
10.61
8.62
7.41
6.35
4.97
3.03
0.45
-2.74
-6.40
-10.29
-14.07
-17.42
-20.12
-22.22
-23.99
-25.79
-27.95
-30.59
-33.65
-36.94
-40.31
-43.65
-46.85
-49.66
-51.57
-51.97
-50.35
-46.57
-41.02
-34.46
-27.81
-21.73
-16.49
-11.99
-8.00
-4.40
-1.34
0.96
2.35
2.94
3.14
3.42
4.14
5.39
6.97
8.60
10.10
11.44
12.69
13.91
15.01
15.83
16.14
15.86
15.05
14.00
13.03
12.42
12.22
12.24
12.11
11.48
10.27
8.70
7.27
6.42
6.28
6.57
6.70
6.08
4.45
2.00
-0.75
-3.22
-5.06
-6.32
-7.29
-8.46
-10.18
-12.70
-16.10
-20.27
-24.84
-29.18
-32.49
-33.93
-33.01
-29.71
-24.56
-18.42
-12.15
-6.42
-1.50
2.60
6.02
8.94
11.50
13.75
15.74
17.49
18.98
20.16
21.03
21.56
21.81
21.84
21.76
21.67
21.69
21.87
22.26
22.80
23.36
23.79
23.91
23.64
23.03
22.21
21.38
20.68
20.13
19.60
18.83
17.62
15.91
13.84
11.72
9.81
8.21
6.82
5.42
3.86
2.11
0.31
-1.37
-2.90
-4.45
-6.32
-8.75
-11.82
-15.38
-19.20
-23.02
-26.70
-30.09
-32.93
-34.86
-35.48
-34.56
-32.14
-28.56
-24.35
-19.95
-15.66
-11.62
-7.90
-4.63
-2.02
-0.19
0.81
1.13
1.03
0.82
0.74
0.90
1.36
2.05
2.91
3.84
4.78
5.73
6.83
8.25
10.07
12.27
14.57
16.67
18.32
19.50
20.36
21.14
21.95
22.71
23.21
23.28
22.89
22.15
21.22
20.18
18.93
17.30
15.21
12.72
10.04
7.39
4.82
2.18
