1520270672.00
64.000000
-0.00
-0.00
-0.00
-0.00
-0.00
-0.00
-0.00
-0.00
-0.00
-0.00
0.00
0.01
0.01
-0.00
-0.03
-0.05
-0.05
0.00
0.13
0.36
0.66
1.01
1.37
1.72
2.06
2.40
2.79
3.24
3.80
4.42
5.06
5.66
6.20
6.68
7.15
7.68
8.31
9.14
10.09
11.04
11.88
12.56
13.14
13.76
14.65
15.96
17.91
20.32
22.90
25.38
27.58
29.57
31.68
34.32
37.81
42.54
48.15
54.10
59.83
64.97
69.58
74.14
79.34
85.71
93.76
103.00
112.62
121.73
129.77
136.75
143.30
150.75
157.77
166.64
177.95
191.79
206.97
220.57
228.25
225.36
208.53
176.87
132.76
80.05
23.07
-34.94
-92.44
-149.16
-205.23
-260.37
-313.74
-363.87
-409.83
-450.90
-486.48
-515.70
-537.17
-549.13
-549.84
-538.21
-514.00
-478.42
-433.57
-382.08
-326.59
-269.35
-212.07
-156.03
-102.25
-51.60
-5.06
36.51
72.44
102.46
126.71
145.70
160.13
170.72
178.09
182.64
184.64
184.35
182.01
178.00
172.71
166.55
159.87
152.92
145.83
138.70
131.54
124.42
117.38
110.52
103.88
97.53
91.50
85.81
80.47
75.48
70.86
66.62
62.76
59.28
56.18
53.48
51.15
49.22
47.65
46.44
45.56
44.94
44.49
44.10
43.60
42.82
41.59
39.75
37.18
33.79
29.60
24.63
19.02
12.94
6.65
0.40
-5.56
-10.97
-15.64
-19.43
-22.26
-24.11
-25.02
-25.10
-24.45
-23.20
-21.52
-19.53
-17.32
-14.98
-12.55
-10.08
-7.61
-5.15
-2.69
-0.21
2.31
4.89
7.58
10.41
13.36
16.41
19.55
22.80
26.16
29.63
33.26
37.07
41.13
45.34
49.67
54.08
58.58
63.19
67.92
72.82
77.95
83.39
89.01
94.72
100.47
106.26
112.08
117.97
123.94
130.06
136.39
142.66
148.63
154.06
158.66
162.09
163.89
163.49
160.08
154.94
148.50
141.04
132.77
123.88
114.57
105.01
95.41
86.00
77.01
68.39
60.12
52.25
44.82
37.88
31.49
25.72
20.67
16.45
12.91
10.00
7.65
5.86
4.59
3.83
3.57
3.78
4.45
5.40
6.47
7.52
8.44
9.11
9.47
9.47
9.08
8.34
7.24
5.85
4.26
2.63
1.06
-0.35
-1.56
-2.59
-3.48
-4.30
-5.12
-5.97
-6.85
-7.76
-8.70
-9.69
-10.76
-12.00
-13.42
-14.98
-16.61
-18.16
-19.50
-20.60
-21.53
-22.47
-23.68
-25.31
-27.43
-29.90
-32.47
-34.88
-37.07
-39.17
-41.57
-44.75
-49.04
-54.51
-60.86
-67.55
-74.05
-80.10
-85.87
-91.91
-98.96
-107.55
-117.81
-129.33
-141.41
-153.36
-164.80
-175.84
-187.00
-199.07
-213.02
-229.87
-250.37
-274.54
-300.98
-326.64
-347.31
-358.83
-358.62
-346.73
-325.82
-300.02
-273.33
-248.34
-225.86
-205.48
-186.49
-168.55
-151.78
-136.34
-122.05
-108.39
-94.79
-81.14
-67.95
-56.22
-46.95
-40.66
-37.06
-35.23
-33.96
-32.26
-29.74
-26.61
-23.47
-20.92
-19.27
-18.44
-18.13
-17.99
-17.88
-17.89
-18.34
-19.65
-22.12
-25.80
-30.29
-34.82
-38.25
-39.45
-37.58
-32.35
-24.16
-13.94
-2.86
7.94
17.58
25.49
31.43
35.43
37.71
38.63
38.58
37.88
36.78
35.43
34.01
32.69
31.62
30.90
30.43
29.95
29.19
27.87
25.86
23.14
19.78
15.99
12.00
8.10
4.46
1.02
-2.59
-6.96
-12.70
-20.08
-28.84
-38.27
-47.49
-55.95
-63.71
-71.40
-79.92
-89.98
-101.87
-115.38
-129.80
-143.89
-155.76
-162.94
-162.76
-153.13
-133.42
-105.01
-71.16
-36.34
-5.12
19.07
34.67
42.28
44.25
43.67
43.32
44.74
48.00
52.15
55.98
58.78
60.37
60.55
58.53
52.76
41.58
24.36
2.42
-20.89
-40.92
-53.01
-53.70
-41.30
-15.94
20.62
65.28
113.80
161.14
202.05
231.92
247.78
249.17
238.06
218.40
195.13
173.02
155.80
145.72
143.37
147.49
155.34
163.30
168.06
167.76
162.79
155.63
149.71
147.77
150.56
156.67
163.34
167.95
169.00
166.34
160.40
151.18
137.75
118.72
93.21
61.81
26.90
-8.07
-39.72
-65.72
-85.38
-99.39
-108.98
-115.24
-118.82
-119.90
-118.49
-114.66
-108.54
-100.20
-89.70
-77.18
-63.09
-48.33
-34.03
-21.28
-10.73
-2.36
4.41
10.58
17.07
24.47
32.83
41.64
49.96
56.80
61.44
63.75
64.17
63.46
62.33
61.07
59.50
57.16
53.66
48.93
43.20
36.91
30.46
24.10
17.96
12.14
6.82
2.22
-1.53
-4.46
-6.74
-8.69
-10.55
-12.38
-14.00
-15.07
-15.31
-14.63
-13.29
-11.77
-10.67
-10.47
-11.33
-13.05
-15.03
-16.21
-15.29
-10.95
-2.19
11.45
29.75
51.98
76.81
102.36
126.18
145.41
157.36
160.20
153.66
139.11
119.16
96.73
74.27
53.28
34.25
16.92
0.56
-15.76
-33.00
-51.78
-71.95
-92.34
-110.88
-125.38
-134.27
-137.34
-135.77
-131.53
-126.60
-122.28
-118.82
-115.64
-111.93
-107.10
-101.08
-94.22
-86.97
-79.64
-72.30
-64.98
-57.80
-51.06
-45.19
-40.55
-37.24
-35.13
-33.95
-33.33
-33.07
-33.04
-33.20
-33.51
-33.87
-34.19
-34.39
-34.48
-34.55
-34.95
-36.06
-38.08
-40.78
-43.39
-44.88
-44.44
-42.10
-38.82
-36.08
-34.96
-35.46
-36.36
-35.93
-32.63
-26.06
-16.90
-6.30
4.51
14.70
23.64
30.64
34.80
35.09
30.74
21.73
9.00
-5.60
-19.72
-31.06
-38.03
-40.05
-37.67
-32.30
-25.68
-19.26
-13.88
-9.54
-5.64
-1.25
4.35
11.23
18.68
25.47
30.48
33.11
33.83
33.72
33.84
34.79
36.49
38.50
40.25
41.35
41.58
40.83
39.04
36.33
33.18
30.23
28.00
26.38
24.71
22.10
18.12
13.13
8.19
4.27
1.25
-2.48
-9.48
-21.75
-39.04
-58.18
-73.77
-80.29
-74.76
-58.63
-37.88
-21.51
-18.81
-36.56
-76.80
-135.66
-204.02
-269.74
-321.02
-349.90
-354.31
-337.99
-308.16
-272.13
-234.76
-197.78
-160.70
-122.36
-81.93
-39.18
5.76
52.27
98.86
142.84
180.69
209.39
227.61
236.33
238.24
236.51
233.67
231.23
229.93
230.30
232.68
236.81
241.37
244.00
242.09
233.85
219.35
200.45
180.02
160.79
144.02
129.10
113.85
95.40
70.91
38.10
-4.27
-55.79
-113.44
-171.39
-221.59
-256.07
-269.79
-262.77
-240.33
-211.10
-183.74
-164.08
-154.13
-152.84
-158.10
-168.16
-182.00
-198.62
-216.26
-232.26
-243.71
-248.71
-247.02
-240.15
-230.74
-221.43
-213.97
-208.78
-205.21
-202.07
-198.40
-193.89
-189.00
-184.57
-181.36
-179.59
-178.80
-177.99
-176.03
-171.99
-165.45
-156.51
-145.64
-133.38
-120.19
-106.20
-91.33
-75.27
-57.75
-38.62
-18.00
3.62
25.42
46.45
65.78
82.83
97.56
110.48
122.46
134.34
146.61
159.12
171.24
182.12
191.26
198.93
206.21
214.72
225.93
240.59
258.34
277.95
297.84
316.75
334.29
350.94
367.85
386.56
408.85
436.46
470.31
509.35
549.49
583.65
603.28
601.23
574.52
525.61
461.33
389.94
318.02
248.71
182.35
118.53
58.06
3.63
-41.41
-74.80
-96.62
-109.13
-115.54
-118.52
-119.55
-119.05
-117.19
-114.51
-111.76
-109.44
-107.23
-104.15
-99.33
-92.79
-85.88
-80.77
-79.51
-83.03
-90.56
-99.75
-107.26
-109.55
-103.75
-88.38
-63.96
-33.30
-1.05
27.38
47.43
56.82
56.14
48.28
37.16
26.24
17.60
11.90
8.87
7.96
8.73
10.85
13.88
17.19
19.95
21.45
21.26
19.49
16.68
13.57
10.79
8.64
7.04
5.60
3.92
1.74
-0.89
-3.70
-6.39
-8.87
-11.31
-14.02
-17.23
-20.89
-24.50
-27.29
-28.48
-27.63
-24.81
-20.54
-15.61
-10.86
-6.86
-3.86
-1.76
-0.24
1.06
2.41
3.87
5.31
6.49
7.18
7.28
6.89
6.18
5.39
4.70
4.21
3.95
3.98
4.27
4.73
5.11
5.19
4.85
4.16
3.29
2.46
1.74
1.02
0.09
-1.19
-2.79
-4.50
-6.06
-7.30
-8.18
-8.76
-9.19
-9.62
-10.17
-10.93
-11.99
-13.45
-15.42
-17.91
-20.85
-24.01
-26.99
-29.27
-30.36
-29.95
-28.06
-24.99
-21.18
-17.11
-13.12
-9.42
-6.15
-3.37
-1.11
0.74
2.42
4.13
5.96
7.79
9.33
10.31
10.64
10.44
9.94
9.35
8.75
8.09
7.34
6.57
5.95
5.65
5.66
5.84
5.98
5.91
5.61
5.15
4.63
4.09
3.48
2.75
1.81
0.65
-0.75
-2.37
-4.17
-6.03
-7.82
-9.32
-10.46
-11.33
-12.18
-13.41
-15.36
-18.12
-21.47
-24.94
-27.93
-30.01
-30.93
-30.72
-29.51
-27.44
-24.61
-21.16
-17.34
-13.48
-10.00
-7.11
-4.81
-2.80
-0.74
1.60
4.23
6.97
9.51
11.60
13.04
13.76
13.73
13.03
11.84
10.44
9.13
8.09
7.35
6.82
6.34
5.85
5.36
4.97
4.75
4.74
4.85
4.94
4.86
4.55
4.03
3.37
2.62
1.79
0.80
-0.40
-1.88
-3.57
-5.37
-7.15
-8.83
-10.36
-11.70
-12.83
-13.76
-14.58
-15.52
-16.85
-18.81
-21.37
-24.20
-26.72
-28.27
-28.35
-26.81
-23.83
-19.88
-15.54
-11.37
-7.70
-4.69
-2.32
-0.43
1.12
2.38
3.43
4.32
5.15
6.08
7.22
8.53
9.85
10.89
11.46
11.53
11.23
10.85
10.56
10.41
10.30
10.06
9.61
8.97
8.20
7.35
6.41
5.32
4.11
2.94
2.02
1.53
1.46
1.60
1.59
1.10
0.03
-1.53
-3.29
-5.05
-6.71
-8.33
-10.00
-11.69
-13.25
-14.48
-15.25
-15.67
-16.08
-16.90
-18.45
-20.75
-23.44
-25.96
-27.66
-28.06
-26.98
-24.57
-21.24
-17.53
-13.93
-10.74
-8.07
-5.87
-3.96
-2.15
-0.31
1.55
3.39
5.05
6.38
7.26
7.70
7.81
7.82
7.94
8.27
8.75
9.17
9.31
9.05
8.47
7.77
7.20
6.92
6.89
7.00
7.09
7.11
7.11
7.14
7.22
7.26
7.09
6.59
5.71
4.54
3.19
1.80
0.37
-1.14
-2.79
-4.60
-6.54
-8.50
-10.36
-12.04
-13.51
-14.82
-16.05
-17.26
-18.48
-19.71
-20.95
-22.22
-23.50
-24.65
-25.41
-25.32
-24.02
-21.36
-17.59
-13.34
-9.31
-6.09
-3.87
-2.45
-1.45
-0.50
0.52
1.53
2.39
3.04
3.52
3.96
4.41
4.81
5.06
5.06
4.81
4.45
4.17
4.15
4.42
4.89
5.36
5.66
5.71
5.58
5.40
5.29
5.25
5.26
5.22
5.11
4.90
4.55
4.00
3.10
1.78
0.08
-1.76
-3.48
-4.91
-6.05
-7.06
-8.14
-9.38
-10.75
-12.10
-13.37
-14.62
-16.02
-17.73
-19.76
-21.91
-23.77
-24.93
-25.08
-24.13
-22.24
-19.71
-16.88
-14.01
-11.30
-8.77
-6.43
-4.23
-2.14
-0.18
1.64
3.23
4.49
5.39
5.94
6.28
6.58
7.02
7.66
8.49
9.38
10.26
11.00
11.54
11.81
11.76
11.35
10.59
9.59
8.47
7.39
6.49
5.81
5.31
4.85
4.28
3.46
2.38
1.11
-0.22
-1.47
-2.53
-3.42
-4.22
-4.98
-5.81
-6.75
-7.88
-9.25
-10.94
-12.95
-15.21
-17.60
-19.98
-22.25
-24.29
-25.96
-26.99
-27.08
-26.00
-23.72
-20.45
-16.63
-12.74
-9.14
-6.00
-3.23
-0.75
1.49
3.41
4.90
5.85
6.30
6.41
6.40
6.43
6.55
6.71
6.81
6.78
6.61
6.33
6.04
5.82
5.79
6.06
6.64
7.45
8.35
9.15
9.71
9.98
9.99
9.80
9.46
8.99
8.40
7.71
6.92
6.00
4.88
3.50
1.75
-0.34
-2.64
-4.92
-6.96
-8.65
-10.09
-11.44
-12.93
-14.66
-16.65
-18.76
-20.85
-22.70
-24.11
-24.87
-24.79
-23.76
-21.86
-19.27
-16.30
-13.29
-10.42
-7.77
-5.34
-3.11
-1.14
0.47
1.66
2.43
2.94
3.45
4.17
5.22
6.57
8.03
9.39
10.49
11.30
11.90
12.40
12.88
13.29
13.50
13.36
12.78
11.82
10.63
9.45
8.47
7.74
7.16
6.58
5.88
5.04
4.14
3.25
2.33
1.25
-0.15
-1.90
-3.85
-5.69
-7.14
-8.14
-8.90
-9.84
-11.33
-13.54
-16.27
-19.07
-21.44
-22.98
-23.50
-23.01
-21.62
-19.45
-16.65
-13.43
-10.09
-7.01
-4.44
-2.45
-0.84
0.71
2.42
4.34
6.22
7.69
8.53
8.76
8.67
8.67
9.01
9.72
10.63
11.48
12.17
12.78
13.48
14.33
15.21
15.77
15.62
14.54
12.60
10.15
7.71
5.69
4.31
3.53
3.15
2.90
2.55
1.93
0.96
-0.36
-1.99
-3.77
-5.58
-7.29
-8.88
-10.47
-12.24
-14.34
-16.78
-19.37
-21.74
-23.45
-24.13
-23.64
-22.05
-19.67
-16.89
-14.07
-11.46
-9.15
-7.09
-5.21
-3.39
-1.54
0.39
2.34
4.24
5.96
7.44
8.71
9.92
11.24
12.71
14.22
15.46
16.13
16.07
15.47
14.74
14.27
14.26
14.53
14.64
14.17
12.94
11.13
9.18
7.51
6.31
5.47
4.66
3.57
2.11
0.47
-1.05
-2.21
-3.05
-3.85
-4.96
-6.59
-8.70
-11.06
-13.39
-15.54
-17.46
-19.10
-20.26
-20.51
-19.50
-17.12
-13.68
-9.81
-6.17
-3.17
-0.83
1.12
2.95
4.72
6.28
7.43
8.15
8.62
9.17
10.01
11.09
12.08
12.64
12.61
12.15
11.68
11.61
12.13
13.07
14.08
14.79
15.01
14.76
14.16
13.30
12.20
10.86
9.38
7.95
6.79
5.95
5.27
4.45
3.19
1.42
-0.69
-2.83
-4.73
-6.31
-7.62
-8.82
-10.05
-11.40
-12.86
-14.40
-15.89
-17.10
-17.78
-17.71
-16.78
-15.07
-12.80
-10.26
-7.68
-5.19
-2.81
-0.55
1.59
3.58
5.32
6.75
7.82
8.52
8.96
9.25
9.55
9.98
10.57
11.25
11.85
12.22
12.32
12.22
12.05
11.91
11.77
11.45
10.75
9.62
8.23
6.90
5.95
5.48
5.31
5.15
4.73
4.00
3.10
2.27
1.64
1.25
1.01
0.76
0.42
-0.15
-1.13
-2.75
-5.16
-8.36
-11.98
-15.45
-18.09
-19.41
-19.23
-17.75
-15.40
-12.65
-9.88
-7.29
-4.94
-2.83
-0.92
0.79
2.31
3.62
4.68
5.48
6.00
6.33
6.58
6.80
7.02
7.17
7.15
6.91
6.55
6.32
6.48
7.16
8.30
9.60
10.68
11.20
11.04
10.29
9.24
8.20
7.32
6.60
5.86
4.91
3.68
2.23
0.75
-0.62
-1.88
-3.17
-4.66
-6.48
-8.61
-10.89
-13.05
-14.87
-16.16
-16.90
-17.07
-16.70
-15.84
-14.47
-12.63
-10.42
-8.05
-5.76
-3.74
-2.04
-0.56
0.90
2.44
4.02
5.47
6.57
7.27
7.69
8.08
8.68
9.53
10.54
11.52
12.32
12.92
13.40
13.74
13.84
13.51
12.59
11.14
9.34
7.58
6.19
5.39
5.20
5.41
5.73
5.82
5.45
4.54
3.12
1.35
-0.56
-2.43
-4.15
-5.60
-6.76
-7.65
-8.41
-9.27
-10.48
-12.12
-13.97
-15.57
-16.33
-15.87
-14.21
-11.75
-9.08
-6.69
-4.78
-3.24
-1.80
-0.28
1.38
3.08
4.67
5.99
6.90
7.31
7.13
6.39
5.27
4.05
3.07
2.55
2.52
2.89
3.50
4.21
4.96
5.71
6.41
6.96
7.28
7.33
7.14
6.84
6.55
6.35
6.29
6.30
6.32
6.17
5.72
4.80
3.41
1.71
-0.00
-1.43
-2.46
-3.16
-3.86
-4.90
-6.47
-8.57
-10.97
-13.41
-15.70
-17.81
-19.79
-21.57
-22.92
-23.47
-22.84
-20.89
-17.87
-14.28
-10.71
-7.58
-5.01
-2.87
-0.91
1.01
2.94
4.83
6.56
8.03
9.13
9.78
9.93
9.64
9.10
8.59
8.37
8.52
8.95
9.46
9.85
10.05
10.07
10.00
9.87
9.65
9.23
8.55
7.58
6.41
5.21
4.14
3.27
2.55
1.85
1.03
0.09
-0.84
-1.52
-1.77
-1.60
-1.28
-1.21
-1.76
-3.09
-5.08
-7.46
-9.97
-12.41
-14.67
-16.66
-18.21
-19.11
-19.21
-18.45
-16.98
-15.01
-12.79
-10.53
-8.33
-6.27
-4.37
-2.66
-1.13
0.27
1.64
3.08
4.59
6.07
7.36
8.30
8.84
9.09
9.20
9.33
9.56
9.85
10.05
10.03
9.74
9.21
8.58
8.00
7.60
7.39
7.32
7.28
7.19
7.05
6.92
6.89
7.01
7.22
7.41
7.42
7.09
6.22
4.69
2.48
-0.24
-3.09
-5.61
-7.47
-8.67
-9.52
-10.55
-12.13
-14.30
-16.63
-18.49
-19.34
-18.96
-17.61
-15.81
-14.10
-12.75
-11.72
-10.78
-9.61
-8.05
-6.17
-4.20
-2.35
-0.74
0.65
1.97
3.33
4.75
6.15
7.40
8.38
9.04
9.38
9.49
9.47
9.47
9.63
9.99
10.47
10.87
10.96
10.57
9.72
8.61
7.57
6.88
6.62
6.67
6.74
6.55
6.02
5.22
4.33
3.51
2.78
2.00
1.01
-0.24
-1.70
-3.22
-4.70
-6.24
-8.07
-10.38
-13.20
-16.27
-19.12
-21.32
-22.53
-22.66
-21.79
-20.05
-17.59
-14.62
-11.43
-8.40
-5.89
-4.10
-2.96
-2.18
-1.38
-0.27
1.26
3.13
5.09
6.88
8.29
9.28
9.91
10.34
10.71
11.09
11.46
11.75
11.96
12.16
12.55
13.19
14.00
14.60
14.60
13.76
12.12
9.98
7.75
5.71
3.95
2.40
0.96
-0.38
-1.53
-2.37
-2.86
-3.08
-3.23
-3.59
-4.31
-5.49
-7.09
-9.01
-11.16
-13.42
-15.71
-17.87
-19.68
-20.83
-21.01
-20.04
-17.96
-15.06
-11.80
-8.66
-5.97
-3.80
-2.06
-0.56
0.85
2.22
3.49
4.54
5.33
5.90
6.32
6.66
6.90
6.96
6.79
6.43
6.02
5.74
5.70
5.90
6.23
6.53
6.73
6.85
6.94
6.99
6.90
6.58
6.01
5.32
4.76
4.52
4.64
4.93
5.12
4.97
4.39
3.41
2.11
0.56
-1.28
-3.41
-5.72
-8.03
-10.13
-11.86
-13.21
-14.25
-15.05
-15.60
-15.85
-15.76
-15.34
-14.58
-13.50
-12.05
-10.19
-8.02
-5.72
-3.58
-1.85
-0.55
0.47
1.45
2.49
3.54
4.39
4.90
5.10
5.17
5.31
5.58
5.89
6.08
6.13
6.20
6.48
7.06
7.73
8.17
8.09
7.49
6.61
5.80
5.24
4.83
4.27
3.29
1.85
0.21
-1.22
-2.08
-2.27
-1.94
-1.46
-1.20
-1.42
-2.21
-3.49
-5.10
-6.87
-8.70
-10.51
-12.26
-13.78
-14.87
-15.25
-14.76
-13.38
-11.33
-8.96
-6.58
-4.36
-2.34
-0.49
1.21
2.72
3.94
4.81
5.31
5.55
5.66
5.81
6.08
6.46
6.89
7.23
7.40
7.37
7.19
7.01
6.97
7.11
7.41
7.78
8.15
8.57
9.08
9.65
10.09
10.07
9.27
7.61
5.31
2.85
0.73
-0.77
-1.64
-2.15
-2.60
-3.17
-3.92
-4.84
-5.94
-7.27
-8.85
-10.68
-12.68
-14.71
-16.65
-18.36
-19.67
-20.37
-20.23
-19.12
-17.13
-14.51
-11.65
-8.88
-6.43
-4.35
-2.64
-1.23
-0.11
0.76
1.41
1.89
2.27
2.60
2.91
3.25
3.68
4.28
5.01
5.81
6.50
7.01
7.34
7.69
8.26
9.16
10.32
11.43
12.16
12.25
11.66
10.57
9.29
8.05
7.02
6.13
5.23
4.21
2.96
1.47
-0.16
-1.86
-3.53
-5.09
-6.55
-7.98
-9.49
-11.23
-13.24
-15.43
-17.51
-19.06
-19.65
-19.06
-17.38
-15.01
-12.56
-10.50
-9.04
-8.00
-6.97
-5.51
-3.40
-0.72
2.22
5.03
7.37
9.07
10.08
10.45
10.31
9.78
9.08
8.37
7.85
7.65
7.81
8.26
8.84
9.35
9.61
9.48
9.01
8.35
7.72
7.30
7.16
7.21
7.24
7.03
6.41
5.31
3.82
2.07
0.24
-1.46
-2.90
-4.02
-4.94
-5.87
-7.13
-8.94
-11.32
-14.06
-16.68
-18.67
-19.58
-19.19
-17.56
-15.07
-12.19
-9.37
-6.88
-4.81
-3.05
-1.44
0.10
1.54
2.74
3.56
3.93
3.87
3.56
3.21
3.06
3.24
3.74
4.49
5.35
6.20
6.99
7.77
8.59
9.48
10.33
10.91
11.03
10.59
9.71
8.74
8.03
7.80
8.00
8.33
8.46
8.19
7.52
6.62
5.65
4.74
3.89
3.10
2.40
1.84
1.42
1.04
0.46
-0.54
-2.05
-3.97
-6.03
-7.90
-9.23
-9.79
-9.47
-8.23
-6.24
-3.77
-1.20
1.20
3.26
5.05
6.77
8.59
10.61
12.73
14.78
16.62
18.25
19.88
21.83
24.39
27.65
31.42
35.35
38.98
41.94
44.07
45.44
46.29
47.01
48.01
49.66
52.21
55.60
59.41
62.90
65.10
65.16
62.66
57.83
51.62
45.52
41.05
39.40
40.86
44.74
49.56
53.51
55.01
53.14
47.69
39.20
28.65
17.32
6.47
-2.88
-10.16
-15.49
-19.69
-24.07
-29.96
-38.18
-48.59
-60.01
-70.56
-78.08
-80.86
-78.17
-70.62
-60.11
-49.43
-41.33
-37.66
-38.67
-42.97
-48.16
-51.96
-53.32
-52.97
-53.25
-57.36
-68.03
-86.45
-111.70
-141.25
-171.61
-199.57
-223.15
-241.84
-256.59
-269.62
-283.99
-302.98
-328.83
-361.25
-396.42
-427.30
-445.62
-444.99
-423.54
-384.79
-336.07
-285.54
-239.21
-199.52
-165.88
-136.35
-109.21
-83.56
-59.07
-35.28
-11.31
13.79
40.44
68.21
96.05
122.64
147.35
170.68
194.31
220.31
249.94
282.46
314.72
341.87
359.08
363.42
355.04
336.95
313.68
289.43
266.86
246.68
228.38
211.09
194.33
178.10
162.59
147.87
133.75
120.03
106.63
93.75
81.80
71.21
62.23
54.80
48.54
42.90
37.31
31.34
24.81
17.87
10.99
4.88
0.31
-2.14
-2.28
-0.36
3.07
7.42
12.25
17.38
22.81
28.46
34.13
39.49
44.26
48.28
51.64
54.53
57.16
59.63
62.00
64.32
66.65
69.13
71.81
74.76
77.99
81.43
84.89
87.99
90.25
91.17
90.45
88.15
84.69
80.66
76.65
73.02
69.91
67.21
64.69
61.98
58.59
53.93
47.37
38.35
26.58
12.05
-4.81
-23.27
-42.24
-60.41
-76.39
-89.03
-97.73
-102.56
-104.28
-103.88
-102.26
-99.88
-96.79
-92.89
-88.29
-83.41
-78.98
-75.69
-74.03
-74.05
-75.48
-77.82
-80.54
-83.14
-85.17
-86.28
-86.20
-84.91
-82.55
-79.42
-75.78
-71.81
-67.49
-62.65
-57.09
-50.70
-43.52
-35.75
-27.75
-19.92
-12.64
-6.22
-0.92
3.12
5.89
7.53
8.34
8.65
8.68
8.47
7.80
6.30
3.59
-0.66
-6.47
-13.59
-21.33
-28.67
-34.38
-37.40
-37.18
-33.88
-28.22
-21.26
-13.94
-6.81
0.04
6.73
13.32
19.66
25.32
29.84
32.96
34.83
35.92
36.81
37.97
39.51
41.28
43.03
44.60
46.00
47.33
48.61
49.67
50.16
49.75
48.28
45.83
42.68
39.16
35.52
31.89
28.33
24.80
21.27
17.73
14.21
10.74
7.40
4.30
1.51
-0.92
-3.01
-4.91
-6.86
-9.14
-11.97
-15.31
-18.85
-21.98
-23.98
-24.24
-22.54
-19.11
-14.53
-9.51
-4.68
-0.39
3.25
6.27
8.73
10.61
11.81
12.27
12.05
11.36
10.54
9.92
9.72
9.98
10.53
11.19
11.79
12.27
12.66
13.02
13.25
13.23
12.74
11.63
9.96
7.93
5.85
3.99
2.43
1.03
-0.53
-2.50
-4.96
-7.79
-10.72
-13.55
-16.23
-18.92
-21.77
-24.83
-27.90
-30.52
-32.13
-32.24
-30.64
-27.44
-22.99
-17.78
-12.31
-7.02
-2.15
2.16
5.83
8.81
11.06
12.59
13.47
13.87
14.01
14.11
14.34
14.76
15.35
15.98
16.54
16.96
17.23
17.41
17.57
17.67
17.58
17.09
16.00
14.28
12.12
9.86
7.87
6.34
5.17
4.02
2.50
0.41
-2.17
-4.90
-7.34
-9.15
-10.38
-11.39
-12.71
-14.88
-18.07
-22.08
-26.32
-29.99
-32.33
-32.86
-31.43
-28.20
-23.62
-18.23
-12.58
-7.14
-2.23
2.05
5.73
8.94
11.76
14.18
16.06
17.27
17.80
17.76
17.36
16.88
16.44
16.09
15.72
15.27
14.79
14.39
14.30
14.61
15.24
15.92
16.22
15.83
14.66
12.93
11.03
9.35
8.06
7.00
5.82
4.20
2.02
-0.54
-3.11
-5.34
-7.03
-8.22
-9.11
-9.99
-11.09
-12.60
-14.66
-17.32
-20.53
-24.00
-27.21
-29.47
-30.07
-28.55
-24.90
-19.54
-13.23
-6.75
-0.62
4.98
10.21
15.33
20.51
25.64
30.43
34.49
37.62
39.86
41.53
43.04
44.74
46.65
48.51
49.84
50.19
49.34
47.33
44.48
41.14
37.65
34.35
31.62
29.95
29.86
31.64
35.14
39.61
43.88
46.65
46.87
44.02
38.17
29.85
19.88
9.23
-1.14
-10.42
-18.06
-23.91
-28.31
-31.94
-35.60
-39.93
-45.08
-50.66
-55.88
-59.80
-61.75
-61.51
-59.32
-55.71
-51.19
-46.18
-40.92
-35.67
-30.66
-26.17
-22.37
-19.21
-16.48
-14.03
-11.84
-10.07
-8.95
-8.53
-8.59
-8.67
-8.39
-7.53
-6.18
-4.63
-3.13
-1.80
-0.60
0.53
1.54
2.26
2.48
2.10
1.20
0.14
-0.69
-0.99
-0.74
-0.25
-0.03
-0.60
-2.15
-4.48
-7.08
-9.35
-10.87
-11.63
-11.98
-12.48
-13.62
-15.74
-18.86
-22.75
-26.99
-30.96
-33.96
-35.33
-34.67
-31.97
-27.59
-22.19
-16.39
-10.68
-5.27
-0.20
4.52
8.82
12.57
15.59
17.81
19.24
19.97
20.11
19.81
19.24
18.67
18.35
18.47
18.98
19.67
20.18
20.24
19.77
18.87
17.75
16.57
15.38
14.13
12.72
11.14
9.42
7.63
5.80
3.94
1.96
-0.12
-2.27
-4.36
-6.32
-8.13
-9.87
-11.70
-13.79
-16.28
-19.23
-22.59
-26.15
-29.57
-32.35
-33.91
-33.74
-31.59
-27.56
-22.17
-16.18
-10.33
-5.10
-0.56
3.45
7.12
10.43
13.12
14.82
15.34
14.82
13.75
12.74
12.25
12.35
12.83
13.37
13.78
14.12
14.61
15.42
16.42
17.22
17.27
16.23
14.09
11.21
8.14
5.32
2.93
0.90
-0.98
-2.87
-4.83
-6.78
-8.59
-10.20
-11.60
-12.87
-14.13
-15.53
-17.19
-19.27
-21.85
-24.94
-28.33
-31.55
-33.86
-34.48
-32.87
-28.93
-23.19
-16.62
-10.32
-5.02
-0.92
2.31
5.23
8.23
11.36
14.30
16.63
18.09
18.74
18.85
18.79
18.83
18.98
19.15
19.14
18.87
18.39
17.87
17.54
17.50
17.72
17.99
18.01
17.50
16.30
14.40
11.99
9.35
6.83
4.68
2.99
1.65
0.37
-1.20
-3.31
-5.96
-8.87
-11.67
-14.01
-15.82
-17.33
-18.94
-21.02
-23.77
-27.11
-30.79
-34.44
-37.61
-39.81
-40.56
-39.50
-36.54
-31.94
-26.26
-20.14
-14.11
-8.42
-3.10
1.89
6.52
10.63
14.05
16.67
18.57
19.91
20.86
21.52
21.89
21.97
21.83
21.55
21.23
20.91
20.54
20.01
19.23
18.20
16.99
15.77
14.68
13.83
13.20
12.64
11.94
10.91
9.49
7.78
5.96
4.28
2.84
1.57
0.33
-1.06
-2.68
-4.53
-6.48
-8.44
-10.40
-12.42
-14.62
-17.09
-19.84
-22.86
-26.12
-29.59
-33.12
-36.33
-38.65
-39.39
-38.00
-34.41
-29.08
-22.88
-16.79
-11.52
-7.28
-3.84
-0.77
2.27
5.35
8.31
10.92
13.00
14.54
15.68
16.56
17.30
17.91
18.36
18.63
18.79
18.90
19.09
19.45
19.99
20.61
21.09
21.17
20.72
19.71
18.30
16.75
15.28
13.97
12.75
11.49
10.11
8.62
7.13
5.72
4.35
2.88
1.09
-1.07
-3.54
-6.13
-8.66
-11.01
-13.21
-15.36
-17.59
-20.02
-22.72
-25.78
-29.20
-32.84
-36.35
-39.12
-40.46
-39.79
-36.85
-31.86
-25.42
-18.42
-11.66
-5.70
-0.72
3.43
7.04
10.30
13.19
15.47
16.84
17.24
16.89
16.22
15.70
15.55
15.68
15.86
15.88
15.80
15.83
16.17
16.82
17.48
17.77
17.39
16.36
14.96
13.61
12.60
11.96
11.47
10.83
9.89
8.66
7.35
6.18
5.22
4.42
3.52
2.34
0.75
-1.26
-3.60
-6.10
-8.65
-11.10
-13.34
-15.38
-17.34
-19.51
-22.22
-25.66
-29.67
-33.67
-36.78
-38.16
-37.26
-34.07
-29.08
-23.03
-16.67
-10.54
-4.92
0.10
4.56
8.37
11.45
13.65
14.95
15.49
15.58
15.60
15.81
16.32
17.03
17.74
18.28
18.62
18.87
19.18
19.64
20.21
20.64
20.63
19.94
18.45
16.31
13.76
11.16
8.81
6.82
5.18
3.70
2.23
0.63
-1.14
-3.07
-5.08
-7.11
-9.04
-10.70
-12.01
-12.95
-13.70
-14.55
-15.90
-18.07
-21.15
-24.98
-29.08
-32.76
-35.25
-35.85
-34.20
-30.36
-24.81
-18.38
-11.95
-6.19
-1.49
2.17
4.96
7.13
8.85
10.22
11.29
12.13
12.80
13.31
13.68
13.88
13.91
13.82
13.71
13.70
13.85
14.18
14.57
14.81
14.71
14.11
13.03
11.60
10.03
8.53
7.20
6.00
4.82
3.53
2.06
0.43
-1.33
-3.20
-5.19
-7.28
-9.45
-11.65
-13.86
-16.18
-18.80
-21.91
-25.55
-29.44
-33.01
-35.40
-35.85
-33.90
-29.64
-23.67
-16.95
-10.46
-4.88
-0.51
2.88
5.70
8.35
10.94
13.29
15.07
16.02
16.17
15.80
15.36
15.19
15.42
15.94
16.53
16.96
17.09
16.90
16.44
15.85
15.23
14.64
14.03
13.23
12.09
10.61
8.94
7.38
6.18
5.38
4.72
3.82
2.33
0.21
-2.30
-4.80
-7.02
-8.88
-10.57
-12.37
-14.54
-17.24
-20.52
-24.32
-28.44
-32.55
-36.09
-38.37
-38.72
-36.72
-32.43
-26.40
-19.51
-12.69
-6.61
-1.58
2.45
5.75
8.54
10.96
13.02
14.71
16.01
16.90
17.42
17.58
17.49
17.28
17.17
17.34
17.84
18.59
19.33
19.86
20.00
19.69
18.97
17.89
16.49
14.79
12.87
10.78
8.66
6.64
4.89
3.56
2.67
2.11
1.53
0.58
-1.06
-3.41
-6.26
-9.24
-12.02
-14.51
-16.86
-19.46
-22.63
-26.55
-31.04
-35.60
-39.54
-42.13
-42.83
-41.34
-37.76
-32.52
-26.23
-19.51
-12.90
-6.75
-1.26
3.51
7.58
11.00
13.86
16.22
18.10
19.47
20.28
20.51
20.30
19.87
19.54
19.57
20.08
21.03
22.23
23.45
24.55
25.42
25.96
26.03
25.47
24.22
22.35
20.17
18.06
16.30
14.96
13.84
12.65
11.13
9.20
6.93
4.46
1.88
-0.75
-3.41
-6.00
-8.42
-10.56
-12.42
-14.12
-15.89
-17.94
-20.49
-23.69
-27.62
-32.15
-36.89
-41.14
-44.01
-44.67
-42.76
-38.47
-32.57
-26.00
-19.64
-13.97
-9.10
-4.85
-0.90
2.97
6.88
10.77
14.44
17.63
20.08
21.64
22.35
22.44
22.21
21.96
21.88
22.04
22.38
22.78
23.09
23.11
22.71
21.87
20.66
19.24
17.72
16.11
14.36
12.38
10.18
7.84
5.46
3.11
0.79
-1.53
-3.84
-6.01
-7.95
-9.57
-10.98
-12.42
-14.22
-16.72
-20.03
-24.04
-28.37
-32.44
-35.57
-37.22
-37.03
-34.98
-31.33
-26.50
-20.94
-15.09
-9.25
-3.71
1.27
5.42
8.65
11.01
12.73
14.15
15.51
16.92
18.24
19.29
19.91
20.08
19.88
19.49
19.08
18.78
18.68
18.77
19.01
19.31
19.54
19.51
19.06
18.03
16.34
14.08
11.49
8.88
6.54
4.57
2.88
1.24
-0.60
-2.69
-4.87
-6.82
-8.28
-9.22
-9.96
-10.99
-12.84
-15.80
-19.86
-24.68
-29.70
-34.21
-37.49
-38.95
-38.25
-35.40
-30.83
-25.19
-19.26
-13.64
-8.66
-4.36
-0.51
3.11
6.68
10.19
13.52
16.51
18.93
20.66
21.63
21.91
21.74
21.45
21.38
21.76
22.58
23.63
24.61
25.23
25.31
24.80
23.76
22.24
20.32
18.08
15.66
13.25
10.98
8.91
6.99
5.09
3.06
0.81
-1.69
-4.35
-7.07
-9.66
-12.00
-14.10
-16.05
-18.17
-20.76
-24.03
-27.89
-31.93
-35.49
-37.82
-38.41
-37.09
-34.06
-29.83
-24.94
-19.83
-14.75
-9.83
-5.12
-0.70
3.30
6.76
9.60
11.87
13.74
15.38
16.91
18.30
19.45
20.20
20.50
20.40
20.14
19.97
20.13
20.66
21.41
22.07
22.34
22.01
21.04
19.48
17.42
14.94
12.15
9.23
6.41
3.91
1.83
0.11
-1.46
-3.07
-4.79
-6.55
-8.22
-9.81
-11.48
-13.56
-16.35
-19.93
-24.07
-28.25
-31.82
-34.14
-34.75
-33.43
-30.30
-25.71
-20.21
-14.43
-8.88
-3.90
0.38
4.03
7.18
9.96
12.46
14.68
16.53
17.90
18.64
18.78
18.45
17.94
17.56
17.53
17.87
18.41
18.98
19.44
19.77
20.00
20.07
19.78
18.90
17.27
15.01
12.50
10.17
8.27
6.72
5.14
3.12
0.48
-2.63
-5.78
-8.51
-10.63
-12.28
-13.82
-15.64
-17.99
-20.91
-24.25
-27.79
-31.29
-34.35
-36.47
-37.02
-35.54
-31.94
-26.65
-20.48
-14.38
-9.01
-4.62
-1.01
2.20
5.33
8.44
11.35
13.79
15.55
16.62
17.14
17.38
17.60
17.93
18.39
18.89
19.30
19.54
19.57
19.48
19.30
18.95
18.26
17.04
15.22
12.95
10.53
8.28
6.36
4.69
3.06
1.25
-0.86
-3.16
-5.47
-7.58
-9.34
-10.76
-11.98
-13.29
-15.04
-17.55
-20.96
-25.06
-29.29
-32.84
-34.89
-34.90
-32.80
-28.97
-24.08
-18.83
-13.72
-9.02
-4.78
-0.96
2.50
5.64
8.44
10.88
12.95
14.57
15.74
16.47
16.90
17.22
17.62
18.24
19.06
19.98
20.82
21.44
21.75
21.77
21.50
20.97
20.19
19.11
17.76
16.18
14.44
12.64
10.83
9.04
7.26
5.42
3.51
1.50
-0.60
-2.76
-4.94
-7.14
-9.35
-11.60
-13.95
-16.45
-19.19
-22.23
-25.62
-29.33
-33.27
-37.15
-40.49
-42.63
-42.95
-41.04
-36.96
-31.27
-24.85
-18.61
-13.09
-8.39
-4.16
0.00
4.30
8.61
12.59
15.85
18.23
19.78
20.66
21.07
21.09
20.82
20.37
19.97
19.89
20.29
21.13
22.16
23.01
23.34
22.99
21.89
20.19
18.10
15.86
13.76
11.94
10.47
9.23
8.01
6.65
5.05
3.28
1.44
-0.37
-2.15
-3.94
-5.84
-7.89
-10.08
-12.39
-14.80
-17.32
-20.05
-23.12
-26.65
-30.59
-34.70
-38.39
-40.95
-41.70
-40.20
-36.50
-31.06
-24.65
-18.07
-11.93
-6.51
-1.78
2.46
6.40
10.11
13.53
16.48
18.77
20.32
21.14
21.37
21.21
20.81
20.29
19.77
19.39
19.32
19.70
20.50
21.47
22.22
22.32
21.48
19.76
17.47
15.06
12.92
11.15
9.64
8.17
6.62
5.11
3.86
3.10
2.77
2.60
2.11
0.92
-1.13
-3.90
-7.05
-10.16
-12.96
-15.35
-17.40
-19.30
-21.29
-23.57
-26.22
-29.15
-32.09
-34.53
-35.93
-35.81
-33.99
-30.65
-26.26
-21.42
-16.64
-12.22
-8.13
-4.24
-0.36
3.53
7.30
10.75
13.69
16.01
17.70
18.80
19.37
19.53
19.47
19.42
19.58
20.06
20.80
21.64
22.35
22.74
22.77
22.50
21.98
21.25
20.29
19.07
17.55
15.81
13.95
12.11
10.37
8.71
7.03
5.20
3.15
0.93
-1.34
-3.50
-5.42
-7.12
-8.74
-10.49
-12.53
-14.90
-17.52
-20.34
-23.36
-26.66
-30.28
-33.99
-37.30
-39.47
-39.86
-38.14
-34.46
-29.36
-23.62
-17.89
-12.68
-8.16
-4.35
-1.09
1.84
4.65
7.48
10.31
13.00
15.35
17.21
18.63
19.73
20.71
21.63
22.43
22.94
23.06
22.85
22.47
22.14
21.94
21.79
21.39
20.55
19.15
17.33
15.35
13.44
11.73
10.18
8.65
6.97
5.06
2.89
0.47
-2.14
-4.85
-7.53
-9.99
-12.10
-13.80
-15.23
-16.61
-18.20
-20.18
-22.65
-25.56
-28.80
-32.13
-35.17
-37.38
-38.16
-36.99
-33.70
-28.61
-22.42
-16.05
-10.23
-5.33
-1.26
2.26
5.51
8.56
11.28
13.51
15.18
16.38
17.30
18.08
18.74
19.19
19.29
19.05
18.60
18.15
17.90
17.91
18.05
18.13
17.91
17.24
16.11
14.55
12.70
10.73
8.86
7.25
6.00
5.00
4.03
2.81
1.17
-0.83
-2.92
-4.80
-6.31
-7.54
-8.76
-10.25
-12.18
-14.52
-17.16
-20.01
-23.01
-26.05
-28.77
-30.67
-31.16
-29.85
-26.70
-22.10
-16.74
-11.35
-6.47
-2.34
1.09
4.02
6.63
8.91
10.75
12.00
12.62
12.75
12.69
12.74
13.08
13.67
14.31
14.83
15.14
15.31
15.40
15.45
15.33
14.83
13.81
12.23
10.28
8.22
6.34
4.76
3.43
2.18
0.83
-0.70
-2.36
-4.06
-5.76
-7.53
-9.49
-11.72
-14.22
-16.90
-19.67
-22.50
-25.36
-28.17
-30.66
-32.39
-32.84
-31.64
-28.73
-24.39
-19.22
-13.88
-8.90
-4.56
-0.84
2.38
5.24
7.70
9.66
11.00
11.73
12.01
12.07
12.10
12.17
12.23
12.24
12.22
12.30
12.62
13.27
14.18
15.13
15.85
16.06
15.54
14.22
12.16
9.59
6.82
4.16
1.87
0.01
-1.48
-2.78
-4.07
-5.47
-7.01
-8.67
-10.41
-12.27
-14.35
-16.80
-19.76
-23.27
-27.20
-31.22
-34.85
-37.49
-38.61
-37.88
-35.27
-31.05
-25.71
-19.89
-14.15
-8.87
-4.19
-0.00
3.85
7.55
11.10
14.39
17.18
19.23
20.37
20.64
20.29
19.67
19.16
19.03
19.31
19.84
20.37
20.66
20.50
19.90
18.86
17.48
15.84
14.03
12.17
10.37
8.69
7.12
5.56
3.81
1.76
-0.63
-3.24
-5.88
-8.36
-10.60
-12.65
-14.63
-16.73
-19.18
-22.17
-25.84
-30.07
-34.46
-38.28
-40.68
-40.97
-38.90
-34.75
-29.26
-23.29
-17.47
-12.07
-7.03
-2.23
2.32
6.42
9.77
12.20
13.78
14.81
15.68
16.72
18.03
19.54
21.04
22.36
23.37
24.07
24.49
24.65
24.55
24.20
23.62
22.82
21.86
20.76
19.55
18.23
16.77
15.14
13.31
11.21
8.83
6.16
3.27
0.28
-2.61
-5.20
-7.40
-9.25
-10.96
-12.86
-15.21
-18.21
-21.92
-26.23
-30.92
-35.58
-39.77
-42.93
-44.56
-44.31
-42.11
-38.15
-32.91
-26.94
-20.77
-14.80
-9.20
-3.98
0.98
5.79
10.44
14.80
18.64
21.73
24.01
25.58
26.66
27.44
28.01
28.36
28.42
28.18
27.71
27.20
26.81
26.59
26.53
26.47
26.21
25.55
24.38
22.69
20.56
18.18
15.76
13.47
11.36
9.32
7.11
4.56
1.63
-1.54
-4.66
-7.42
-9.72
-11.69
-13.62
-15.92
-18.90
-22.72
-27.31
-32.39
-37.45
-41.84
-44.83
-45.85
-44.64
-41.36
-36.52
-30.82
-24.82
-18.88
-13.15
-7.64
-2.36
2.61
7.18
11.21
14.60
17.29
19.30
20.71
21.72
22.52
23.29
24.11
24.93
25.64
26.20
26.64
27.05
27.45
27.74
27.71
27.15
25.95
24.15
21.92
19.48
17.04
14.80
12.87
11.32
10.13
9.15
8.15
6.90
5.22
3.14
0.81
-1.57
-3.86
-6.03
-8.19
-10.51
-13.16
-16.25
-19.83
-23.90
-28.41
-33.21
-37.96
-42.16
-45.11
-46.19
-44.92
-41.29
-35.73
-29.03
-22.14
-15.80
-10.38
-5.75
-1.53
2.65
6.94
11.16
14.94
17.94
20.03
21.33
22.11
22.71
23.31
23.96
24.61
25.23
25.82
26.42
27.03
27.54
27.77
27.56
26.80
25.52
23.83
21.84
19.64
17.30
14.88
12.50
10.34
8.51
6.95
5.49
3.86
1.88
-0.46
-3.01
-5.53
-7.85
-9.99
-12.17
-14.72
-17.96
-22.07
-26.91
-32.02
-36.68
-40.08
-41.57
-40.84
-37.97
-33.40
-27.73
-21.55
-15.34
-9.38
-3.90
0.97
5.13
8.60
11.41
13.68
15.52
17.01
18.22
19.14
19.78
20.14
20.23
20.16
20.06
20.15
20.53
21.20
21.91
22.30
22.04
20.96
19.17
17.02
14.89
13.04
11.50
10.08
8.53
6.68
4.47
2.00
-0.61
-3.17
-5.55
-7.67
-9.57
-11.37
-13.37
-15.89
-19.23
-23.35
-27.89
-32.18
-35.35
-36.68
-35.78
-32.73
-27.99
-22.30
-16.40
-10.86
-5.95
-1.68
2.11
5.60
8.84
11.66
13.80
15.03
15.30
14.81
14.01
13.35
13.14
13.44
14.13
15.01
15.94
16.88
17.76
18.45
18.70
18.30
17.14
15.39
13.37
11.44
9.85
8.61
7.56
6.43
5.00
3.18
1.00
-1.40
-3.86
-6.24
-8.47
-10.69
-13.12
-16.00
-19.49
-23.47
-27.49
-30.89
-32.99
-33.34
-31.81
-28.68
-24.44
-19.64
-14.73
-9.98
-5.54
-1.47
2.22
5.55
8.51
11.08
13.19
14.77
15.79
16.30
16.47
16.54
16.77
17.28
18.06
18.95
19.70
20.12
20.10
19.65
18.80
17.55
15.89
13.84
11.53
9.20
7.08
5.27
3.74
2.29
0.68
-1.24
-3.49
-5.94
-8.41
-10.74
-12.90
-14.97
-17.21
-19.92
-23.39
-27.64
-32.33
-36.71
-39.82
-40.78
-39.13
-35.04
-29.17
-22.45
-15.77
-9.74
-4.60
-0.22
3.69
7.40
11.08
14.67
17.96
20.63
22.43
23.25
23.21
22.58
21.76
21.02
20.55
20.38
20.45
20.70
21.02
21.30
21.35
20.94
19.86
18.01
15.55
12.79
10.16
7.96
6.26
4.87
3.45
1.74
-0.39
-2.79
-5.22
-7.43
-9.31
-10.95
-12.60
-14.55
-17.07
-20.32
-24.34
-28.96
-33.82
-38.30
-41.61
-43.04
-42.13
-38.88
-33.75
-27.53
-21.06
-14.98
-9.61
-4.92
-0.68
3.36
7.32
11.21
14.87
18.05
20.50
22.05
22.70
22.60
22.03
21.30
20.75
20.63
21.03
21.91
23.05
24.21
25.09
25.55
25.49
24.95
23.98
22.61
20.86
18.81
16.65
14.61
12.93
11.67
10.65
9.49
7.79
5.31
2.09
-1.59
-5.32
-8.74
-11.65
-14.07
-16.17
-18.31
-20.80
-23.93
-27.78
-32.17
-36.67
-40.68
-43.53
-44.66
-43.74
-40.74
-35.97
-30.03
-23.63
-17.48
-12.00
-7.35
-3.31
0.44
4.18
7.96
11.62
14.89
17.57
19.64
21.17
22.30
23.07
23.51
23.69
23.77
24.00
24.60
25.62
26.87
27.95
28.44
28.10
26.92
25.14
23.05
20.89
18.72
16.51
14.20
11.82
9.44
7.17
4.97
2.73
0.34
-2.32
-5.18
-8.14
-11.06
-13.84
-16.50
-19.17
-22.06
-25.41
-29.42
-33.99
-38.74
-42.93
-45.62
-46.08
-43.98
-39.62
-33.77
-27.37
-21.19
-15.57
-10.47
-5.58
-0.65
4.41
9.39
13.93
17.61
20.18
21.61
22.13
22.11
21.97
22.02
22.41
23.19
24.25
25.46
26.62
27.47
27.78
27.40
26.33
24.67
22.65
20.55
18.49
16.49
14.46
12.30
9.99
7.63
5.35
3.27
1.35
-0.46
-2.24
-3.98
-5.63
-7.13
-8.50
-9.90
-11.53
-13.57
-16.13
-19.20
-22.80
-26.88
-31.26
-35.53
-39.01
-40.93
-40.68
-38.10
-33.61
-28.01
-22.18
-16.74
-11.93
-7.62
-3.54
0.50
4.52
8.38
11.86
14.81
17.13
18.81
19.88
20.38
20.44
20.21
19.95
19.89
20.17
20.79
21.55
22.23
22.56
22.37
21.64
20.40
18.74
16.74
14.49
12.08
9.61
7.19
4.86
2.67
0.61
-1.37
-3.34
-5.36
-7.46
-9.64
-11.84
-14.07
-16.37
-18.88
-21.73
-24.93
-28.30
-31.35
-33.43
-33.91
-32.43
-29.04
-24.21
-18.65
-13.04
-7.86
-3.31
0.60
3.96
6.79
9.08
10.81
12.01
12.81
13.37
13.85
14.27
14.59
14.71
14.56
14.19
13.72
13.33
13.09
13.01
12.92
12.69
12.19
11.39
10.38
9.26
8.12
6.99
5.84
4.61
3.25
1.74
0.12
-1.55
-3.21
-4.86
-6.61
-8.65
-11.23
-14.52
-18.54
-23.08
-27.67
-31.68
-34.43
-35.39
-34.29
-31.25
-26.73
-21.44
-16.03
-10.92
-6.27
-2.01
1.95
5.60
8.79
11.33
13.10
14.08
14.39
14.15
13.57
12.86
12.30
12.11
12.44
13.23
14.28
15.36
16.30
17.04
17.55
17.68
17.17
15.77
13.43
10.41
7.26
4.48
2.32
0.60
-1.13
-3.29
-6.02
-9.13
-12.22
-14.99
-17.39
-19.67
-22.24
-25.40
-29.22
-33.40
-37.32
-40.22
-41.39
-40.38
-37.15
-32.11
-25.99
-19.56
-13.44
-7.89
-2.91
1.62
5.77
9.52
12.80
15.61
18.02
20.12
21.89
23.16
23.75
23.61
22.94
22.15
21.69
21.84
22.54
23.44
24.04
23.94
22.99
21.25
18.94
16.29
13.48
10.62
7.75
4.89
2.11
-0.55
-3.05
-5.47
-7.90
-10.43
-13.08
-15.79
-18.49
-21.23
-24.22
-27.66
-31.63
-35.86
-39.76
-42.59
-43.71
-42.86
-40.18
-36.09
-31.09
-25.58
-19.85
-14.10
-8.53
-3.32
1.35
5.40
8.77
11.50
13.63
15.23
16.40
17.20
17.65
17.74
17.46
16.83
15.96
15.02
14.14
13.40
12.76
12.17
11.55
10.79
9.77
8.26
5.97
2.61
-1.96
-7.63
-14.06
-20.77
-27.35
-33.56
-39.39
-44.95
-50.32
-55.36
-59.83
-63.41
-65.93
-67.39
-67.96
-67.85
-67.21
-66.02
-64.08
-61.12
-56.88
-51.16
-43.97
-35.41
-25.75
-15.25
-4.17
7.22
18.51
29.09
38.20
45.04
49.02
50.01
48.23
44.16
38.27
30.82
22.06
12.33
2.36
-6.75
-13.85
-18.20
-19.82
-19.46
-18.26
-17.12
-16.13
-14.54
-10.95
-4.03
6.90
21.45
38.26
55.40
71.05
83.95
93.60
100.14
103.89
104.95
103.07
97.74
88.54
75.49
59.19
40.73
21.56
3.12
-13.20
-26.23
-35.14
-39.64
-40.16
-37.75
-33.79
-29.45
-25.34
-21.39
-17.16
-12.32
-6.95
-1.61
3.04
6.62
9.21
11.15
12.72
13.79
13.81
12.17
8.67
3.73
-1.69
-6.48
-9.86
-11.57
-11.85
-11.21
-10.13
-8.93
-7.76
-6.71
-5.83
-5.14
-4.63
-4.25
-3.98
-3.93
-4.23
-5.01
-6.21
-7.69
-9.24
-10.75
-12.36
-14.33
-16.99
-20.50
-24.75
-29.42
-33.96
-37.72
-40.00
-40.19
-37.91
-33.17
-26.46
-18.60
-10.46
-2.75
4.26
10.64
16.58
22.24
27.56
32.30
36.13
38.75
40.05
40.07
39.05
37.44
35.78
34.60
34.26
34.86
36.21
37.93
39.61
40.92
41.71
41.93
41.66
40.96
39.86
38.30
36.14
33.24
29.57
25.34
20.88
16.56
12.55
8.71
4.69
0.09
-5.26
-11.28
-17.51
-23.35
-28.15
-31.33
-32.42
-31.09
-27.27
-21.18
-13.44
-4.89
3.59
11.32
17.94
23.38
27.79
31.31
34.10
36.15
37.39
37.74
37.15
35.66
33.45
30.77
27.95
25.22
22.74
20.48
18.35
16.25
14.12
11.94
9.69
7.26
4.59
1.60
-1.69
-5.15
-8.61
-11.91
-14.92
