1520267216.00
64.000000
-0.00
-0.00
-0.00
-0.00
-0.00
-0.00
-0.00
-0.00
-0.00
-0.00
0.00
0.01
0.01
-0.00
-0.03
-0.05
-0.05
0.00
0.13
0.36
0.66
1.01
1.37
1.72
2.06
2.40
2.79
3.24
3.80
4.42
5.06
5.66
6.20
6.68
7.15
7.68
8.31
9.14
10.09
11.04
11.88
12.56
13.14
13.76
14.65
15.96
17.91
20.32
22.90
25.38
27.58
29.57
31.68
34.32
37.81
42.54
48.15
54.10
59.83
64.97
69.58
74.14
79.34
85.71
93.76
103.00
112.62
121.73
129.77
136.75
143.30
150.75
157.77
166.64
177.95
191.79
206.97
220.57
228.25
225.36
208.53
176.87
132.76
80.05
23.07
-34.94
-92.44
-149.16
-205.23
-260.37
-313.74
-363.87
-409.83
-450.91
-486.50
-515.74
-537.23
-549.22
-549.96
-538.37
-514.21
-478.67
-433.88
-382.45
-327.02
-269.84
-212.63
-156.66
-102.95
-52.37
-5.90
35.58
71.43
101.35
125.50
144.38
158.69
169.15
176.37
180.75
182.57
182.07
179.51
175.23
169.65
163.18
156.15
148.81
141.30
133.69
126.02
118.33
110.69
103.16
95.80
88.68
81.83
75.25
68.95
62.95
57.25
51.86
46.78
42.03
37.59
33.45
29.61
26.07
22.81
19.83
17.11
14.67
12.48
10.54
8.83
7.35
6.07
4.97
4.05
3.27
2.62
2.09
1.65
1.30
1.01
0.79
0.61
0.47
0.37
0.29
0.23
0.20
0.17
0.16
0.16
0.18
0.20
0.22
0.26
0.29
0.34
0.38
0.43
0.48
0.53
0.57
0.62
0.67
0.74
0.82
0.90
0.99
1.05
1.09
1.10
1.09
1.10
1.15
1.26
1.42
1.61
1.80
1.98
2.13
2.28
2.47
2.74
3.10
3.54
4.02
4.48
4.88
5.23
5.57
5.97
6.51
7.23
8.08
8.95
9.71
10.26
10.58
10.80
11.13
11.76
12.76
14.06
15.37
16.36
16.74
16.41
15.49
14.24
12.90
11.50
9.82
7.38
3.69
-1.57
-8.27
-15.83
-23.43
-30.37
-36.19
-40.88
-44.73
-48.10
-51.32
-54.60
-58.21
-62.32
-66.68
-70.28
-71.30
-67.71
-58.25
-43.31
-25.13
-7.01
7.94
18.04
23.53
25.99
27.31
28.70
30.31
31.59
32.02
31.52
30.53
29.41
28.04
25.63
21.24
14.30
5.31
-4.14
-12.07
-16.94
-18.45
-17.64
-16.34
-16.21
-17.91
-20.84
-23.37
-23.85
-21.42
-16.27
-9.55
-2.79
2.65
6.03
7.35
7.29
6.69
6.24
6.36
7.23
9.00
11.97
16.60
22.20
28.35
34.45
39.90
44.23
47.31
49.38
50.92
52.42
54.07
55.82
57.17
57.47
56.26
53.55
49.89
46.22
43.42
41.92
41.59
41.66
40.99
38.47
33.40
25.65
15.68
4.40
-6.98
-17.15
-25.02
-29.94
-31.89
-31.42
-29.41
-26.71
-23.85
-20.95
-17.95
-15.04
-12.82
-12.25
-14.20
-19.12
-26.75
-36.40
-47.25
-58.64
-70.16
-81.41
-91.87
-100.84
-107.66
-111.89
-113.35
-111.87
-107.10
-98.55
-85.92
-69.58
-50.82
-31.68
-14.32
-0.26
10.01
17.01
21.80
25.38
28.23
30.29
31.19
30.73
29.22
27.46
26.48
27.04
29.32
32.84
36.80
40.57
44.04
47.61
51.86
57.03
62.68
67.82
71.25
72.17
70.46
66.76
62.09
57.41
53.28
49.77
46.58
43.32
39.78
36.03
32.35
29.07
26.31
23.92
21.52
18.53
14.52
9.35
3.29
-3.07
-8.98
-13.89
-17.60
-20.41
-22.91
-25.76
-29.38
-33.74
-38.42
-42.81
-46.43
-49.15
-51.25
-53.28
-55.84
-59.44
-64.35
-70.56
-77.59
-84.53
-90.04
-92.64
-91.15
-85.07
-74.82
-61.59
-46.97
-32.50
-19.33
-8.13
0.89
7.92
13.47
18.30
23.23
28.94
35.81
43.83
52.72
62.02
71.30
80.07
87.75
93.66
97.03
97.23
93.93
87.19
77.40
65.08
50.83
35.16
18.75
2.51
-12.31
-24.34
-32.49
-36.41
-36.57
-34.12
-30.34
-26.10
-21.64
-16.70
-10.97
-4.48
2.28
8.58
13.75
17.52
19.95
21.30
21.74
21.29
19.86
17.38
14.00
10.09
6.17
2.71
0.01
-1.86
-3.03
-3.62
-3.69
-3.24
-2.36
-1.37
-0.88
-1.55
-3.73
-7.22
-11.26
-14.93
-17.59
-19.25
-20.46
-21.87
-23.83
-26.16
-28.36
-30.00
-31.03
-31.79
-32.69
-33.86
-34.94
-35.28
-34.18
-31.21
-26.29
-19.60
-11.39
-1.90
8.55
19.58
30.68
41.31
51.01
59.43
66.32
71.48
74.71
75.89
75.07
72.53
68.76
64.36
59.83
55.52
51.51
47.75
44.16
40.61
37.00
33.20
29.02
24.32
19.09
13.47
7.86
2.70
-1.70
-5.31
-8.40
-11.36
-14.54
-17.99
-21.51
-24.79
-27.65
-30.17
-32.69
-35.56
-38.92
-42.49
-45.72
-48.02
-49.08
-49.08
-48.66
-48.68
-49.90
-52.72
-56.95
-61.89
-66.42
-69.27
-69.31
-65.94
-59.23
-50.02
-39.75
-29.96
-21.96
-16.44
-13.35
-12.08
-11.66
-11.20
-10.02
-7.81
-4.67
-0.94
2.86
6.30
9.08
11.16
12.69
13.91
14.99
16.04
17.07
18.08
19.10
20.12
21.00
21.48
21.21
19.97
17.86
15.34
13.11
11.73
11.39
11.79
12.37
12.59
12.21
11.32
10.18
8.99
7.82
6.55
5.07
3.35
1.46
-0.49
-2.49
-4.57
-6.75
-8.93
-10.93
-12.57
-13.88
-15.05
-16.41
-18.21
-20.49
-23.05
-25.51
-27.62
-29.35
-30.89
-32.57
-34.77
-37.73
-41.52
-45.98
-50.63
-54.69
-57.17
-57.10
-53.84
-47.39
-38.39
-28.01
-17.56
-8.16
-0.39
5.66
10.28
13.94
17.08
20.01
22.93
25.86
28.74
31.39
33.68
35.53
36.96
38.11
39.10
40.05
40.95
41.74
42.26
42.41
42.11
41.30
39.98
38.14
35.87
33.27
30.62
28.18
26.20
24.74
23.69
22.77
21.67
20.22
18.38
16.35
14.35
12.57
11.04
9.69
8.34
6.83
5.09
3.07
0.85
-1.48
-3.77
-5.89
-7.76
-9.45
-11.15
-13.10
-15.51
-18.32
-21.33
-24.17
-26.58
-28.46
-29.98
-31.47
-33.31
-35.86
-39.37
-43.85
-49.03
-54.20
-58.34
-60.25
-59.10
-54.65
-47.44
-38.57
-29.34
-20.73
-13.22
-6.88
-1.59
2.72
6.11
8.62
10.53
12.23
14.16
16.60
19.50
22.60
25.48
27.90
29.77
31.24
32.51
33.68
34.73
35.51
35.87
35.70
35.02
33.89
32.39
30.63
28.66
26.61
24.60
22.83
21.44
20.44
19.73
19.15
18.57
17.88
17.11
16.37
15.73
15.21
14.70
13.98
12.71
10.67
7.84
4.44
0.85
-2.56
-5.66
-8.60
-11.77
-15.51
-19.91
-24.71
-29.45
-33.68
-37.27
-40.45
-43.78
-47.85
-53.02
-59.16
-65.64
-71.43
-75.43
-76.78
-75.10
-70.55
-63.77
-55.60
-46.92
-38.49
-30.88
-24.37
-19.04
-14.68
-10.97
-7.61
-4.45
-1.59
0.74
2.27
2.92
2.74
1.98
0.88
-0.37
-1.74
-3.31
-5.26
-7.84
-11.20
-15.29
-19.86
-24.40
-28.26
-30.82
-31.58
-30.23
-26.62
-20.78
-12.83
-3.10
7.91
19.56
31.13
41.96
51.51
59.47
65.64
69.97
72.46
73.16
72.20
69.76
66.07
61.41
56.12
50.55
45.04
39.82
34.98
30.45
26.07
21.68
17.20
12.66
8.17
3.80
-0.46
-4.80
-9.47
-14.74
-20.80
-27.60
-34.82
-41.82
-47.70
-51.49
-52.40
-50.07
-44.77
-37.31
-28.86
-20.63
-13.50
-7.90
-3.67
-0.33
2.71
5.84
9.10
12.17
14.61
16.09
16.60
16.41
15.95
15.52
15.19
14.89
14.54
14.19
14.07
14.37
15.07
15.83
16.10
15.41
13.68
11.26
8.83
7.04
6.18
6.07
6.20
6.05
5.37
4.25
3.03
2.04
1.44
1.11
0.80
0.33
-0.29
-0.96
-1.51
-1.95
-2.45
-3.27
-4.60
-6.45
-8.61
-10.78
-12.67
-14.12
-15.13
-15.82
-16.45
-17.28
-18.63
-20.82
-24.07
-28.36
-33.24
-37.86
-41.03
-41.64
-38.96
-33.08
-24.82
-15.60
-6.88
0.33
5.71
9.60
12.71
15.70
18.93
22.45
26.07
29.56
32.76
35.51
37.70
39.15
39.74
39.51
38.68
37.61
36.71
36.20
36.12
36.30
36.44
36.28
35.64
34.45
32.81
30.86
28.80
26.78
24.94
23.37
22.11
21.11
20.26
19.36
18.26
16.88
15.30
13.72
12.30
11.14
10.10
8.98
7.58
5.85
3.91
1.94
0.07
-1.78
-3.77
-6.13
-8.93
-12.07
-15.33
-18.47
-21.31
-23.80
-26.09
-28.42
-31.12
-34.50
-38.74
-43.74
-49.06
-53.90
-57.25
-58.19
-56.13
-51.09
-43.70
-34.99
-26.09
-17.94
-11.01
-5.34
-0.70
3.25
6.74
9.87
12.69
15.25
17.66
20.01
22.34
24.59
26.61
28.28
29.56
30.48
31.16
31.69
32.14
32.49
32.67
32.54
31.96
30.80
29.06
26.84
24.43
22.17
20.33
18.94
17.82
16.67
15.22
13.42
11.46
9.64
8.21
7.28
6.68
6.16
5.45
4.43
3.16
1.79
0.40
-1.06
-2.77
-4.93
-7.63
-10.77
-14.13
-17.45
-20.61
-23.63
-26.63
-29.70
-32.87
-36.15
-39.56
-43.24
-47.23
-51.41
-55.24
-57.82
-58.20
-55.71
-50.27
-42.46
-33.32
-23.96
-15.24
-7.63
-1.16
4.33
9.07
13.24
16.91
20.11
22.84
25.15
27.10
28.82
30.36
31.71
32.80
33.51
33.77
33.63
33.21
32.71
32.30
31.99
31.69
31.22
30.36
29.07
27.45
25.72
24.14
22.88
21.94
21.20
20.52
19.82
19.09
18.38
17.68
16.90
15.91
14.59
12.97
11.16
9.32
7.54
5.75
3.79
1.53
-1.01
-3.69
-6.29
-8.73
-11.09
-13.61
-16.51
-19.78
-23.14
-26.14
-28.42
-29.91
-30.97
-32.26
-34.47
-38.02
-42.81
-48.23
-53.26
-56.72
-57.66
-55.55
-50.47
-43.06
-34.34
-25.43
-17.22
-10.20
-4.49
0.12
3.93
7.18
10.04
12.60
14.91
16.99
18.85
20.47
21.84
22.94
23.85
24.68
25.59
26.64
27.83
29.01
29.94
30.42
30.31
29.58
28.35
26.81
25.14
23.51
21.99
20.58
19.24
17.92
16.63
15.37
14.19
13.12
12.21
11.42
10.64
9.70
8.36
6.49
4.12
1.49
-1.09
-3.36
-5.30
-7.09
-8.98
-11.16
-13.69
-16.43
-19.20
-21.85
-24.37
-26.80
-29.24
-31.83
-34.72
-38.10
-42.11
-46.72
-51.59
-55.97
-58.92
-59.52
-57.18
-51.91
-44.29
-35.31
-26.07
-17.45
-10.00
-3.86
1.12
5.26
8.86
12.15
15.27
18.27
21.13
23.82
26.28
28.44
30.25
31.67
32.69
33.33
33.65
33.78
33.84
33.93
34.08
34.21
34.14
33.63
32.49
30.71
28.50
26.24
24.39
23.24
22.83
22.92
23.14
23.10
22.63
21.79
20.86
20.17
19.98
20.33
21.06
21.84
22.37
22.55
22.54
22.75
23.67
25.63
28.65
32.36
36.15
39.28
40.97
40.47
37.23
30.99
22.01
11.14
-0.39
-11.34
-20.96
-29.26
-36.92
-44.74
-53.07
-61.37
-68.42
-72.82
-73.67
-71.02
-65.73
-59.12
-52.33
-46.07
-40.53
-35.68
-31.36
-27.58
-24.29
-21.34
-18.46
-15.26
-11.49
-7.11
-2.31
2.47
6.71
9.87
11.56
11.60
10.07
7.32
3.94
0.60
-2.12
-3.90
-4.75
-4.91
-4.72
-4.47
-4.32
-4.31
-4.41
-4.59
-4.74
-4.77
-4.53
-3.94
-3.05
-2.00
-1.04
-0.39
-0.12
-0.16
-0.42
-0.81
-1.38
-2.24
-3.44
-4.90
-6.44
-7.88
-9.14
-10.33
-11.60
-13.11
-14.97
-17.12
-19.40
-21.59
-23.52
-25.11
-26.44
-27.69
-29.17
-31.17
-33.85
-37.17
-40.82
-44.20
-46.61
-47.37
-46.04
-42.53
-37.16
-30.59
-23.57
-16.78
-10.62
-5.18
-0.35
4.05
8.12
11.86
15.19
18.08
20.60
23.04
25.74
29.06
33.19
38.13
43.63
49.25
54.51
58.91
62.06
63.70
63.83
62.66
60.60
58.19
55.90
54.06
52.73
51.79
51.04
50.28
49.41
48.38
47.16
45.74
44.13
42.42
40.77
39.34
38.17
37.16
36.00
34.36
32.05
29.12
25.88
22.80
20.28
18.43
17.03
15.49
13.04
8.91
2.63
-5.82
-15.91
-26.70
-37.12
-46.38
-54.14
-60.64
-66.46
-72.23
-78.31
-84.53
-90.20
-94.33
-95.88
-94.22
-89.25
-81.55
-72.11
-62.08
-52.39
-43.57
-35.82
-29.12
-23.44
-18.77
-15.14
-12.46
-10.54
-9.10
-7.88
-6.65
-5.30
-3.78
-2.08
-0.27
1.57
3.35
4.94
6.29
7.41
8.32
9.09
9.74
10.24
10.56
10.63
10.41
9.94
9.37
8.89
8.64
8.62
8.61
8.37
7.70
6.64
5.46
4.46
3.76
3.21
2.44
1.10
-0.98
-3.65
-6.59
-9.45
-12.03
-14.31
-16.43
-18.52
-20.72
-23.05
-25.48
-27.93
-30.27
-32.42
-34.37
-36.21
-38.18
-40.54
-43.52
-47.18
-51.35
-55.49
-58.77
-60.24
-59.07
-54.87
-47.88
-38.96
-29.29
-20.05
-12.09
-5.76
-0.95
2.75
5.82
8.68
11.65
14.86
18.24
21.61
24.74
27.44
29.67
31.48
32.98
34.26
35.38
36.39
37.35
38.32
39.35
40.37
41.20
41.57
41.28
40.26
38.70
36.89
35.18
33.78
32.72
31.87
30.99
29.85
28.38
26.63
24.82
23.12
21.70
20.53
19.45
18.25
16.71
14.71
12.31
9.64
6.89
4.26
1.85
-0.35
-2.42
-4.51
-6.72
-9.11
-11.68
-14.35
-17.06
-19.80
-22.61
-25.59
-28.88
-32.60
-36.78
-41.25
-45.61
-49.23
-51.37
-51.39
-48.90
-43.99
-37.19
-29.32
-21.21
-13.53
-6.62
-0.55
4.74
9.37
13.39
16.84
19.71
22.09
24.06
25.76
27.30
28.74
30.06
31.21
32.14
32.85
33.38
33.80
34.15
34.39
34.43
34.13
33.38
32.16
30.55
28.72
26.86
25.14
23.65
22.41
21.36
20.38
19.33
18.14
16.78
15.29
13.72
12.12
10.49
8.79
6.97
5.00
2.91
0.79
-1.28
-3.25
-5.08
-6.83
-8.58
-10.46
-12.55
-14.94
-17.63
-20.57
-23.65
-26.78
-29.94
-33.20
-36.71
-40.63
-45.05
-49.86
-54.71
-59.02
-62.08
-63.18
-61.82
-57.80
-51.33
-43.04
-33.81
-24.57
-16.11
-8.86
-2.90
2.05
6.37
10.41
14.34
18.13
21.67
24.83
27.55
29.85
31.78
33.33
34.49
35.24
35.65
35.92
36.29
36.92
37.81
38.73
39.30
39.21
38.29
36.66
34.59
32.48
30.58
29.03
27.75
26.54
25.22
23.68
21.97
20.22
18.63
17.25
15.99
14.66
13.04
11.00
8.56
5.89
3.20
0.72
-1.44
-3.28
-4.97
-6.75
-8.90
-11.55
-14.71
-18.14
-21.55
-24.70
-27.48
-29.89
-32.10
-34.26
-36.58
-39.28
-42.54
-46.35
-50.41
-54.02
-56.23
-56.20
-53.42
-47.99
-40.52
-31.97
-23.35
-15.48
-8.85
-3.58
0.58
4.03
7.18
10.27
13.30
16.13
18.66
20.88
22.91
24.87
26.76
28.40
29.57
30.18
30.31
30.22
30.14
30.20
30.32
30.32
30.00
29.31
28.27
26.99
25.57
24.07
22.51
20.95
19.44
18.11
17.08
16.36
15.84
15.27
14.37
12.97
11.07
8.83
6.47
4.19
2.05
0.02
-1.96
-3.89
-5.76
-7.61
-9.54
-11.71
-14.24
-17.11
-20.14
-23.12
-25.92
-28.65
-31.59
-35.06
-39.27
-44.06
-48.92
-53.04
-55.59
-55.88
-53.60
-48.92
-42.37
-34.73
-26.77
-19.12
-12.11
-5.86
-0.39
4.35
8.41
11.85
14.79
17.39
19.79
22.06
24.15
25.94
27.33
28.33
29.06
29.67
30.20
30.59
30.74
30.59
30.20
29.78
29.43
29.12
28.63
27.74
26.38
24.69
22.97
21.45
20.17
19.00
17.71
16.24
14.72
13.33
12.21
11.27
10.32
9.11
7.56
5.73
3.78
1.83
-0.13
-2.13
-4.24
-6.44
-8.68
-10.92
-13.19
-15.56
-18.07
-20.71
-23.40
-26.00
-28.46
-30.79
-33.11
-35.61
-38.40
-41.43
-44.40
-46.66
-47.37
-45.70
-41.18
-33.93
-24.65
-14.40
-4.24
5.11
13.37
20.55
26.73
31.89
35.95
38.85
40.73
41.87
42.61
43.21
43.73
44.06
44.05
43.50
42.24
40.16
37.17
33.31
28.72
23.71
18.67
13.97
9.90
6.64
4.22
2.54
1.32
0.15
-1.39
-3.64
-6.65
-10.15
-13.68
-16.75
-19.11
-20.78
-22.05
-23.30
-24.81
-26.69
-28.94
-31.52
-34.42
-37.68
-41.32
-45.25
-49.26
-53.04
-56.27
-58.72
-60.32
-61.16
-61.49
-61.71
-62.20
-63.29
-65.05
-67.25
-69.23
-70.00
-68.45
-63.72
-55.44
-43.90
-29.99
-14.92
0.02
13.78
25.60
35.07
42.05
46.71
49.48
51.00
51.99
53.05
54.47
56.20
57.93
59.22
59.74
59.28
57.79
55.42
52.48
49.35
46.44
43.93
41.71
39.32
36.21
31.93
26.42
19.93
12.94
6.00
-0.40
-5.87
-10.10
-12.91
-14.30
-14.50
-13.95
-13.08
-12.15
-11.14
-9.78
-7.68
-4.62
-0.67
3.75
7.98
11.31
13.21
13.49
12.36
10.25
7.56
4.48
0.96
-3.14
-7.90
-13.16
-18.67
-24.23
-29.75
-35.16
-40.18
-44.20
-46.37
-46.01
-42.86
-37.35
-30.38
-22.98
-15.97
-9.72
-4.21
0.79
5.54
10.25
14.94
19.56
23.95
27.94
31.37
34.16
36.33
37.99
39.34
40.60
42.02
43.77
45.90
48.26
50.54
52.31
53.21
53.09
52.03
50.31
48.25
46.10
43.98
41.95
39.99
38.01
35.82
33.01
29.02
23.27
15.43
5.63
-5.44
-16.65
-26.80
-34.94
-40.75
-44.51
-46.95
-48.83
-50.68
-52.63
-54.45
-55.84
-56.64
-56.91
-56.93
-57.04
-57.52
-58.57
-60.29
-62.70
-65.71
-69.02
-72.07
-74.04
-74.10
-71.60
-66.41
-58.87
-49.85
-40.35
-31.24
-23.02
-15.76
-9.26
-3.21
2.55
7.96
12.76
16.65
19.47
21.30
22.45
23.33
24.37
25.81
27.73
30.04
32.49
34.79
36.66
37.90
38.43
38.30
37.57
36.34
34.69
32.78
30.77
28.91
27.33
26.02
24.78
23.35
21.56
19.38
16.99
14.61
12.39
10.33
8.40
6.55
4.81
3.24
1.84
0.51
-1.00
-2.92
-5.37
-8.29
-11.36
-14.21
-16.55
-18.26
-19.54
-20.74
-22.27
-24.46
-27.44
-31.13
-35.32
-39.62
-43.54
-46.47
-47.84
-47.20
-44.40
-39.64
-33.42
-26.43
-19.34
-12.71
-6.89
-1.95
2.26
6.05
9.72
13.43
17.07
20.35
22.96
24.77
25.89
26.59
27.16
27.71
28.23
28.63
28.92
29.21
29.65
30.26
30.90
31.22
30.86
29.64
27.60
25.06
22.44
20.14
18.37
17.14
16.31
15.69
15.14
14.58
14.02
13.39
12.56
11.41
9.81
7.75
5.37
2.86
0.41
-1.86
-4.00
-6.11
-8.31
-10.64
-13.04
-15.41
-17.62
-19.62
-21.51
-23.47
-25.71
-28.38
-31.51
-34.99
-38.57
-41.90
-44.51
-45.85
-45.35
-42.52
-37.16
-29.32
-19.34
-7.65
5.31
19.08
33.07
46.42
58.01
66.74
71.92
73.49
72.08
68.71
64.39
59.80
55.22
50.59
45.82
40.84
35.68
30.46
25.36
20.54
16.26
12.81
10.44
9.24
9.02
9.31
9.50
8.96
7.27
4.35
0.45
-3.97
-8.40
-12.47
-16.04
-19.12
-21.78
-24.04
-25.74
-26.78
-27.12
-26.83
-26.16
-25.39
-24.72
-24.20
-23.71
-22.94
-21.70
-19.95
-17.91
-16.03
-14.71
-14.14
-14.21
-14.65
-15.25
-16.10
-17.50
-19.74
-22.77
-26.15
-29.17
-31.29
-32.47
-33.03
-33.14
-32.22
-28.94
-21.85
-10.36
4.68
21.19
36.75
49.64
59.33
66.36
71.48
74.96
76.28
74.81
70.55
64.46
58.13
53.09
50.22
49.47
50.02
50.14
48.30
43.62
35.98
25.87
14.21
2.29
-8.63
-17.74
-25.93
-34.32
-43.57
-53.57
-63.77
-73.56
-82.57
-90.83
-98.85
-108.64
-121.02
-134.85
-147.46
-156.26
-159.89
-158.44
-153.15
-145.80
-139.91
-137.15
-136.72
-136.05
-132.62
-125.05
-113.05
-96.98
-66.95
-21.10
33.60
85.74
127.71
158.13
178.92
192.42
200.11
204.25
203.19
196.16
184.49
171.00
158.28
147.70
139.44
132.83
126.71
118.86
108.25
95.49
82.34
70.44
60.50
52.33
45.24
38.50
30.68
21.46
11.74
3.15
-3.02
-6.42
-7.54
-7.37
-7.05
-8.02
-11.06
-16.07
-22.34
-28.97
-35.17
-40.21
-43.41
-44.26
-42.85
-39.78
-36.10
-33.04
-31.56
-32.05
-34.17
-37.23
-40.58
-44.00
-47.57
-51.39
-55.36
-59.15
-62.52
-65.57
-68.66
-72.13
-75.87
-79.21
-81.12
-80.64
-77.32
-71.32
-63.22
-53.71
-43.40
-32.78
-22.34
-12.56
-3.92
3.32
9.20
14.05
18.32
22.36
26.23
29.72
32.39
33.82
33.79
32.44
30.24
27.89
26.10
25.32
25.58
26.51
27.41
27.51
26.27
23.55
19.69
15.42
11.62
9.03
8.11
8.83
10.75
13.19
15.51
17.23
18.21
18.62
18.81
19.16
19.99
21.47
23.61
26.37
29.55
32.79
35.66
37.57
38.09
