1520264621.00
64.000000
-0.00
-0.00
-0.00
-0.00
-0.00
-0.00
-0.00
-0.00
-0.00
-0.00
0.00
0.01
0.01
-0.00
-0.03
-0.05
-0.05
0.00
0.13
0.36
0.66
1.01
1.37
1.72
2.06
2.40
2.79
3.24
3.80
4.42
5.06
5.66
6.20
6.68
7.15
7.68
8.31
9.14
10.09
11.04
11.88
12.56
13.14
13.76
14.65
15.96
17.91
20.32
22.90
25.38
27.58
29.57
31.68
34.32
37.81
42.54
48.15
54.10
59.83
64.97
69.58
74.14
79.34
85.71
93.76
103.00
112.62
121.73
129.77
136.75
143.30
150.75
157.77
166.64
177.95
191.79
206.97
220.57
228.25
225.36
208.53
176.87
132.76
80.05
23.07
-34.94
-92.44
-149.16
-205.23
-260.37
-313.74
-363.87
-409.83
-450.91
-486.50
-515.74
-537.23
-549.22
-549.96
-538.37
-514.21
-478.67
-433.88
-382.45
-327.02
-269.84
-212.63
-156.66
-102.95
-52.37
-5.90
35.58
71.43
101.35
125.50
144.38
158.69
169.15
176.37
180.75
182.57
182.07
179.51
175.23
169.65
163.18
156.15
148.81
141.30
133.69
126.02
118.33
110.69
103.16
95.80
88.68
81.83
75.25
68.95
62.95
57.25
51.86
46.78
42.03
37.59
33.45
29.61
26.07
22.81
19.83
17.11
14.67
12.48
10.54
8.83
7.35
6.07
4.97
4.05
3.27
2.62
2.09
1.65
1.30
1.01
0.79
0.61
0.48
0.38
0.30
0.25
0.21
0.19
0.19
0.19
0.21
0.23
0.25
0.28
0.32
0.35
0.39
0.43
0.47
0.52
0.57
0.62
0.67
0.73
0.80
0.87
0.95
1.04
1.14
1.26
1.38
1.53
1.68
1.86
2.06
2.27
2.50
2.76
3.04
3.35
3.69
4.06
4.46
4.89
5.36
5.87
6.41
7.00
7.62
8.30
9.01
9.77
10.58
11.44
12.34
13.31
14.33
15.42
16.58
17.79
19.05
20.32
21.55
22.69
23.62
24.27
24.52
24.28
23.49
22.08
20.07
17.50
14.46
11.06
7.49
3.92
0.55
-2.49
-5.09
-7.19
-8.77
-9.85
-10.45
-10.62
-10.44
-10.03
-9.51
-9.06
-8.79
-8.80
-9.10
-9.64
-10.29
-10.98
-11.58
-12.04
-12.31
-12.39
-12.29
-11.92
-11.18
-9.85
-7.96
-5.51
-2.67
0.31
3.15
5.63
7.76
9.78
12.12
14.92
18.25
21.95
25.62
28.75
30.97
32.24
32.96
33.93
35.40
37.52
40.04
42.29
43.42
42.79
40.29
36.47
32.27
28.04
23.94
19.66
14.35
6.77
-4.70
-22.09
-47.78
-78.84
-113.07
-146.73
-174.73
-191.95
-194.97
-183.44
-160.34
-130.78
-100.08
-72.81
-51.13
-35.16
-24.01
-16.55
-11.78
-8.63
-5.72
-1.44
5.09
14.22
25.42
37.36
48.32
56.81
62.10
64.55
65.54
66.37
67.89
69.86
71.02
69.81
65.40
58.27
50.09
42.93
38.08
35.69
34.86
34.24
32.76
29.99
26.06
21.36
16.20
10.72
5.03
-0.62
-5.91
-10.53
-14.32
-17.35
-19.89
-22.40
-25.33
-28.96
-33.26
-37.83
-41.97
-44.87
-45.85
-44.62
-41.25
-36.26
-30.38
-24.37
-18.90
-14.35
-10.83
-8.19
-6.15
-4.39
-2.70
-0.97
0.73
2.31
3.66
4.68
5.32
5.60
5.56
5.33
5.13
5.18
5.60
6.41
7.39
8.29
8.86
8.99
8.77
8.41
8.12
8.01
8.03
7.97
7.57
6.53
4.65
1.77
-2.01
-6.34
-10.60
-13.96
-15.70
-15.39
-13.16
-9.61
-5.54
-1.66
1.73
4.75
7.75
10.89
13.99
16.42
17.37
16.23
12.75
7.16
-0.04
-8.18
-16.59
-24.54
-31.20
-35.74
-37.42
-36.00
-31.83
-25.86
-19.38
-13.59
-9.33
-6.92
-6.21
-6.76
-8.05
-9.61
-11.11
-12.50
-13.88
-15.49
-17.57
-20.20
-23.16
-25.95
-28.06
-29.16
-29.20
-28.23
-26.15
-22.63
-17.26
-9.96
-1.31
7.53
15.22
20.72
23.83
25.16
25.73
26.47
27.79
29.52
31.19
32.38
32.86
32.73
32.13
31.19
29.98
28.41
26.32
23.65
20.46
16.99
13.58
10.49
7.81
5.29
2.53
-0.84
-4.94
-9.48
-13.83
-17.32
-19.48
-20.25
-19.98
-19.25
-18.58
-18.27
-18.35
-18.56
-18.51
-17.72
-15.78
-12.47
-7.86
-2.32
3.54
9.07
13.86
17.79
21.15
24.27
27.46
30.72
33.81
36.42
38.41
39.82
40.87
41.77
42.66
43.46
44.07
44.38
44.39
44.18
43.81
43.35
42.75
42.00
41.06
39.88
38.32
36.14
33.13
29.23
24.65
19.89
15.59
12.36
10.60
10.37
11.28
12.48
12.79
10.87
5.64
-3.34
-15.63
-30.03
-44.91
-58.56
-69.63
-77.22
-80.93
-80.88
-77.68
-72.33
-66.04
-59.82
-54.30
-49.58
-45.41
-41.44
-37.44
-33.39
-29.36
-25.43
-21.68
-18.23
-15.23
-12.63
-10.29
-7.79
-4.74
-1.01
3.22
7.53
11.47
14.64
16.71
17.35
16.45
14.18
11.16
8.30
6.42
5.87
6.32
7.03
7.23
6.53
5.03
2.96
0.48
-2.47
-5.95
-9.62
-12.58
-13.58
-11.52
-6.04
2.17
11.67
20.59
27.34
31.14
32.14
31.19
29.41
27.68
26.33
25.22
24.05
22.68
21.16
19.64
18.16
16.60
14.82
12.81
10.68
8.61
6.66
4.69
2.44
-0.23
-3.17
-5.97
-8.14
-9.47
-10.14
-10.58
-11.28
-12.48
-14.11
-15.89
-17.49
-18.73
-19.63
-20.44
-21.42
-22.79
-24.44
-26.01
-26.99
-26.94
-25.72
-23.57
-21.00
-18.53
-16.51
-15.00
-13.78
-12.55
-11.04
-9.19
-7.12
-5.03
-3.07
-1.29
0.42
2.24
4.40
7.02
10.03
13.15
15.94
18.04
19.24
19.68
19.68
19.59
19.59
19.60
19.36
18.60
17.22
15.32
13.14
10.95
8.85
6.95
5.27
3.90
2.90
2.23
1.73
1.17
0.42
-0.41
-0.94
-0.68
0.75
3.40
6.95
10.82
14.43
17.37
19.56
21.11
22.26
23.23
24.09
24.82
25.29
25.40
25.15
24.65
24.19
24.02
24.29
24.86
25.32
25.09
23.60
20.43
15.43
8.72
0.78
-7.59
-15.41
-21.70
-25.84
-27.83
-28.26
-28.01
-27.85
-28.10
-28.65
-29.21
-29.57
-29.78
-30.00
-30.30
-30.52
-30.38
-29.73
-28.72
-27.73
-27.19
-27.18
-27.40
-27.23
-26.03
-23.45
-19.50
-14.59
-9.36
-4.49
-0.44
2.71
5.30
7.90
11.04
14.92
19.21
23.24
26.23
27.68
27.55
26.15
24.00
21.48
18.83
16.20
13.83
12.09
11.29
11.31
11.52
10.75
7.78
1.81
-7.07
-18.01
-29.74
-41.11
-51.52
-60.90
-69.34
-76.86
-83.18
-87.92
-90.75
-91.59
-90.58
-87.83
-83.36
-77.15
-69.27
-60.12
-50.45
-41.20
-33.26
-27.19
-23.06
-20.49
-18.73
-16.98
-14.56
-11.16
-6.83
-1.92
3.01
7.46
11.06
13.68
15.48
16.87
18.48
21.09
25.45
32.12
41.16
52.08
63.85
75.09
84.44
90.96
94.30
94.78
93.19
90.46
87.25
83.80
79.95
75.32
69.52
62.37
53.83
43.95
32.85
20.81
8.32
-3.85
-14.82
-23.89
-30.83
-35.93
-39.80
-43.06
-46.02
-48.53
-50.33
-51.29
-51.57
-51.43
-50.92
-49.63
-46.93
-42.29
-35.80
-28.27
-20.89
-14.66
-9.94
-6.34
-3.20
-0.09
2.82
4.87
5.38
4.09
1.39
-1.84
-4.65
-6.38
-6.82
-6.20
-5.02
-3.84
-3.08
-2.98
-3.47
-4.20
-4.63
-4.09
-1.99
2.05
8.01
15.32
22.97
29.70
34.47
36.78
36.87
35.51
33.72
32.21
31.30
30.86
30.60
30.30
29.93
29.62
29.47
29.44
29.31
28.77
27.65
25.96
23.98
22.09
20.71
20.09
20.36
21.41
23.03
24.87
26.40
26.96
25.82
22.39
16.49
8.48
-0.93
-10.92
-20.97
-30.98
-40.99
-50.89
-60.24
-68.30
-74.41
-78.31
-80.24
-80.77
-80.31
-78.91
-76.19
-71.74
-65.51
-58.05
-50.38
-43.53
-38.18
-34.36
-31.60
-29.26
-26.82
-24.07
-21.06
-17.89
-14.46
-10.57
-6.04
-0.99
4.07
8.56
12.15
15.04
17.81
20.99
24.61
28.10
30.56
31.42
30.81
29.61
28.97
29.62
31.49
33.71
35.07
34.59
31.87
27.11
20.90
14.05
7.48
2.08
-1.44
-2.73
-1.95
0.34
3.41
6.77
10.26
14.00
18.00
21.99
25.36
27.53
28.28
27.93
27.11
26.42
26.02
25.67
25.07
24.21
23.54
23.74
25.34
28.31
32.08
35.71
38.37
39.55
39.22
37.66
35.19
32.01
28.14
23.58
18.40
12.85
7.28
1.91
-3.24
-8.39
-13.82
-19.75
-26.16
-32.83
-39.36
-45.39
-50.63
-54.92
-58.24
-60.75
-62.70
-64.38
-65.96
-67.37
-68.29
-68.27
-66.88
-63.80
-58.90
-52.16
-43.60
-33.37
-21.79
-9.44
2.84
14.22
24.04
32.02
38.34
43.48
47.97
52.17
56.11
59.48
61.87
62.91
62.54
60.88
58.23
54.77
50.62
45.90
40.88
36.02
31.89
28.83
26.84
25.47
24.07
22.05
19.06
15.05
10.19
4.69
-1.18
-7.15
-12.75
-17.34
-20.20
-20.75
-18.80
-14.78
-9.56
-4.24
0.27
3.54
5.65
7.00
7.99
8.78
9.24
9.14
8.39
7.21
6.04
5.35
5.33
5.85
6.51
6.79
6.30
4.94
2.98
0.96
-0.46
-0.70
0.54
3.21
6.89
10.94
14.70
17.71
19.79
21.02
21.58
21.60
21.03
19.65
17.30
14.01
10.09
6.06
2.54
0.03
-1.15
-0.91
0.76
3.72
7.75
12.58
17.95
23.76
30.08
37.01
44.48
52.01
58.70
63.42
65.22
63.70
59.23
52.85
45.93
39.76
35.14
32.21
30.46
29.10
27.35
24.80
21.53
18.00
14.78
12.18
10.15
8.33
6.24
3.49
-0.18
-4.96
-11.01
-18.40
-27.02
-36.53
-46.44
-56.26
-65.71
-74.72
-83.37
-91.61
-99.12
-105.29
-109.29
-110.29
-107.67
-101.24
-91.30
-78.70
-64.63
-50.44
-37.24
-25.69
-15.97
-7.92
-1.24
4.25
8.59
11.70
13.53
14.18
13.99
13.52
13.36
14.11
16.08
19.21
22.89
25.95
26.95
24.59
18.26
8.37
-3.76
-16.35
-27.95
-37.99
-46.93
-55.85
-65.76
-77.01
-89.07
-100.81
-111.03
-118.85
-123.82
-125.83
-124.88
-121.02
-114.48
-105.81
-95.85
-85.43
-74.98
-64.26
-52.48
-38.85
-23.36
-7.35
6.53
15.13
16.05
8.71
-5.19
-22.09
-37.57
-47.60
-49.26
-41.25
-23.94
0.76
29.64
58.67
83.84
102.02
111.84
113.90
110.30
103.81
96.80
90.62
85.62
81.39
77.26
72.68
67.35
61.27
54.66
47.91
41.50
35.83
31.07
27.20
23.94
20.99
18.14
15.42
13.07
11.39
10.62
10.77
11.69
13.18
15.24
18.11
22.33
28.54
37.27
48.74
62.67
78.34
94.70
110.59
124.91
136.83
145.70
150.95
151.91
147.71
137.46
120.28
95.70
63.91
26.13
-14.94
-54.97
-88.28
-108.91
-112.28
-96.85
-65.14
-23.51
19.51
55.52
78.69
86.99
82.14
68.23
49.85
30.57
12.40
-3.91
-18.09
-29.82
-38.72
-44.81
-48.89
-52.46
-56.94
-62.70
-68.51
-71.83
-69.85
-60.94
-45.57
-26.29
-6.97
8.55
17.77
20.16
16.97
10.30
1.97
-7.33
-18.15
-31.68
-48.65
-68.50
-89.08
-107.11
-119.12
-122.27
-115.11
-97.74
-71.97
-41.16
-10.00
16.09
31.87
33.43
19.30
-9.04
-47.24
-89.02
-127.48
-156.65
-172.45
-173.21
-159.48
-133.60
-99.19
-60.53
-21.96
12.69
40.72
60.93
73.65
80.42
83.33
84.38
84.87
85.29
85.46
84.91
83.24
80.40
76.65
72.48
68.31
64.30
60.30
55.90
50.79
44.93
38.62
32.35
26.55
21.45
17.07
13.36
10.31
8.04
6.64
6.05
5.90
5.54
4.34
1.88
-1.84
-6.40
-11.20
-15.70
-19.59
-22.79
-25.36
-27.47
-29.27
-30.97
-32.77
-34.86
-37.40
-40.43
-43.92
-47.78
-51.81
-55.65
-58.81
-60.73
-60.95
-59.35
-56.18
-52.02
-47.42
-42.81
-38.23
-33.62
-28.98
-24.56
-20.85
-18.31
-17.03
-16.64
-16.29
-15.12
-12.57
-8.64
-3.92
0.79
4.71
7.33
8.53
8.44
7.29
5.30
2.56
-0.86
-4.85
-9.18
-13.58
-17.78
-21.72
-25.65
-30.05
-35.44
-41.98
-49.34
-56.61
-62.66
-66.66
-68.43
-68.49
-67.67
-66.57
-65.21
-63.00
-59.12
-53.03
-44.89
-35.56
-26.34
-18.56
-13.18
-10.59
-10.63
-12.61
-15.54
-18.39
-20.35
-21.04
-20.53
-19.18
-17.31
-14.97
-11.81
-7.29
-0.91
7.50
17.58
28.36
38.30
45.35
47.29
42.29
29.78
11.22
-9.60
-27.21
-35.99
-32.00
-14.46
14.00
48.31
82.65
112.11
133.72
146.44
150.59
147.16
137.49
123.16
106.11
88.60
72.73
59.70
49.15
39.07
26.47
8.67
-15.17
-43.17
-71.11
-93.78
-106.96
-108.82
-100.40
-84.76
-65.71
-46.44
-29.00
-14.27
-2.41
6.75
13.50
18.27
21.70
24.50
27.35
30.61
34.24
37.80
40.68
42.38
42.65
41.66
39.78
37.41
34.82
32.15
29.53
27.16
25.27
23.98
23.04
21.81
19.59
16.07
11.72
7.82
6.19
8.49
15.61
27.17
41.53
56.19
68.57
76.90
80.88
81.76
82.05
84.68
92.09
105.28
123.19
142.52
158.17
164.38
156.41
132.33
94.22
47.97
1.71
-36.60
-61.68
-72.05
-69.83
-59.31
-45.14
-31.20
-20.23
-14.01
-13.62
-19.34
-30.35
-44.57
-59.02
-70.72
-77.63
-79.39
-77.29
-73.59
-70.59
-69.58
-70.44
-71.65
-70.95
-66.22
-56.40
-41.86
-24.34
-6.50
8.86
19.51
24.44
24.14
20.50
16.44
14.82
17.23
23.07
29.23
30.71
22.02
-1.05
-39.47
-89.92
-144.99
-194.89
-230.20
-244.58
-236.53
-209.07
-167.91
-119.10
-67.58
-17.18
28.36
64.64
87.14
92.96
82.68
61.02
35.40
13.20
-1.03
-6.61
-5.99
-2.71
0.75
3.89
7.83
14.02
23.04
33.98
44.87
53.57
58.70
60.21
59.12
56.90
54.69
52.88
51.16
48.93
45.79
41.90
37.87
34.53
32.45
31.80
32.22
33.11
33.83
33.89
33.01
31.19
28.72
26.19
24.39
24.12
25.79
29.15
33.30
37.05
39.45
40.38
40.74
42.39
47.52
57.82
73.51
92.69
111.28
123.82
124.82
110.47
79.93
35.99
-15.47
-66.91
-111.18
-143.22
-161.06
-165.79
-160.49
-148.91
-134.24
-118.59
-102.98
-87.88
-73.66
-60.74
-49.47
-39.85
-31.44
-23.62
-16.02
-8.82
-2.73
1.36
2.85
2.02
0.02
-1.47
-0.89
2.43
7.99
14.22
19.22
21.51
20.67
17.48
13.51
10.58
10.34
13.86
21.34
31.82
43.14
52.35
56.56
54.17
45.58
33.26
20.83
11.68
7.58
8.30
12.04
16.49
19.99
21.94
22.68
22.88
23.03
23.14
22.96
22.19
20.70
18.65
16.43
14.29
12.35
10.46
8.33
5.71
2.53
-1.10
-4.92
-8.64
-12.07
-15.11
-17.80
-20.28
-22.67
-25.12
-27.66
-30.30
-32.94
-35.48
-37.75
-39.58
-40.78
-41.17
-40.54
-38.71
-35.64
-31.41
-26.34
-20.87
-15.47
-10.49
-6.12
-2.36
0.91
3.84
6.52
9.00
11.26
13.25
14.95
16.34
17.46
18.36
19.09
19.66
20.06
20.30
20.40
20.35
20.22
20.00
19.64
18.99
17.90
16.25
14.00
11.33
8.53
5.91
3.69
1.83
0.13
-1.76
-4.14
-7.11
-10.63
-14.51
-18.45
-22.08
-25.01
-26.80
-27.05
-25.53
-22.33
-17.84
-12.69
-7.57
-3.01
0.67
3.50
5.69
7.59
9.51
11.59
13.75
15.73
17.23
18.07
18.34
18.30
18.31
18.59
19.09
19.58
19.77
19.52
18.88
18.04
17.15
16.25
15.21
13.84
11.98
9.69
7.18
4.83
2.95
1.70
0.95
0.36
-0.50
-1.91
-3.93
-6.38
-9.04
-11.77
-14.59
-17.55
-20.56
-23.13
-24.59
-24.29
-22.01
-18.14
-13.52
-9.07
-5.44
-2.78
-0.81
0.89
2.60
4.40
6.19
7.83
9.29
10.67
12.03
13.36
14.52
15.34
15.69
15.64
15.41
15.25
15.36
15.68
15.98
15.92
15.25
13.94
12.20
10.41
8.92
7.92
7.37
7.11
6.94
6.65
6.12
5.33
4.37
3.38
2.47
1.69
0.89
-0.21
-1.86
-4.09
-6.55
-8.54
-9.32
-8.38
-5.66
-1.52
3.40
8.49
13.35
17.73
21.51
24.60
26.89
28.36
29.13
29.45
29.61
29.80
30.01
30.06
29.68
28.69
27.09
25.14
23.16
21.47
20.20
19.34
18.68
18.02
17.16
15.91
14.03
11.28
7.43
2.42
-3.52
-9.88
-16.03
-21.47
-26.01
-29.79
-33.25
-36.79
-40.59
-44.52
-48.19
-51.15
-53.04
-53.70
-53.16
-51.46
-48.67
-44.87
-40.28
-35.26
-30.29
-25.80
-22.05
-19.05
-16.64
-14.65
-12.96
-11.56
-10.52
-9.86
-9.58
-9.58
-9.73
-9.88
-9.83
-9.42
-8.56
-7.24
-5.57
-3.74
-1.99
-0.58
0.33
0.65
0.41
-0.26
-1.11
-1.89
-2.42
-2.71
-2.95
-3.48
-4.54
-6.14
-7.96
-9.41
-9.82
-8.81
-6.39
-3.08
0.30
2.95
4.36
4.51
3.79
2.81
2.13
2.12
2.88
4.36
6.38
8.80
11.46
14.19
16.74
18.88
20.36
21.09
21.17
20.88
20.55
20.37
20.34
20.22
19.72
18.60
16.80
14.43
11.73
8.96
6.37
4.16
2.46
1.30
0.57
-0.02
-0.87
-2.39
-4.76
-7.88
-11.29
-14.30
-16.20
-16.48
-15.03
-12.20
-8.67
-5.21
-2.39
-0.37
1.10
2.45
4.04
5.92
7.81
9.27
10.03
10.13
9.93
9.87
10.20
10.79
11.26
11.18
10.41
9.22
8.12
7.57
7.67
8.11
8.26
7.57
5.70
2.76
-0.87
-4.65
-8.13
-11.02
-13.22
-14.83
-16.08
-17.29
-18.75
-20.63
-22.93
-25.43
-27.75
-29.42
-29.97
-29.10
-26.72
-23.04
-18.53
-13.82
-9.55
-6.16
-3.74
-2.04
-0.64
0.84
2.56
4.37
5.99
7.15
7.82
8.17
8.50
9.00
9.66
10.26
10.51
10.19
9.29
7.98
6.48
4.99
3.60
2.28
0.95
-0.52
-2.20
-4.13
-6.27
-8.50
-10.70
-12.75
-14.58
-16.24
-17.83
-19.49
-21.38
-23.53
-25.88
-28.10
-29.70
-30.08
-28.79
-25.70
-21.18
-15.97
-10.99
-6.94
-4.14
-2.43
-1.31
-0.27
1.02
2.57
4.16
5.55
6.59
7.33
7.90
8.43
8.92
9.28
9.40
9.30
9.12
9.07
9.26
9.61
9.87
9.66
8.66
6.75
4.00
0.73
-2.63
-5.59
-7.77
-8.97
-9.32
-9.29
-9.50
-10.57
-12.82
-16.18
-20.25
-24.39
-27.96
-30.39
-31.25
-30.35
-27.76
-23.83
-19.15
-14.36
-10.02
-6.40
-3.50
-1.08
1.13
3.29
5.43
7.49
9.41
11.11
12.55
13.63
14.19
14.14
13.47
12.38
11.20
10.31
9.93
10.06
10.41
10.60
10.28
9.30
7.72
5.69
3.39
0.92
-1.66
-4.27
-6.83
-9.30
-11.77
-14.47
-17.66
-21.47
-25.66
-29.55
-32.19
-32.64
-30.39
-25.63
-19.17
-12.16
-5.71
-0.45
3.49
6.41
8.70
10.65
12.33
13.73
14.85
15.81
16.75
17.73
18.64
19.23
19.32
18.85
17.98
17.01
16.20
15.62
15.11
14.35
13.07
11.11
8.55
5.66
2.75
0.10
-2.16
-4.04
-5.67
-7.27
-9.10
-11.38
-14.22
-17.47
-20.73
-23.35
-24.58
-23.90
-21.19
-16.80
-11.49
-6.14
-1.49
2.09
4.58
6.26
7.46
8.46
9.38
10.16
10.72
11.01
11.07
11.03
11.10
11.41
12.01
12.84
13.74
14.55
15.09
15.21
14.82
13.89
12.40
10.42
8.08
5.57
3.09
0.85
-1.07
-2.75
-4.42
-6.41
-9.00
-12.24
-15.90
-19.46
-22.17
-23.30
-22.35
-19.25
-14.38
-8.47
-2.34
3.28
7.97
11.60
14.27
16.11
17.25
17.78
17.78
17.42
16.87
16.33
15.83
15.34
14.72
13.93
13.01
12.17
11.64
11.57
11.91
12.39
12.64
12.30
11.19
9.39
7.19
4.92
2.85
1.03
-0.71
-2.67
-5.21
-8.54
-12.61
-17.07
-21.25
-24.34
-25.65
-24.73
-21.64
-16.85
-11.14
-5.37
-0.24
3.84
6.79
8.78
10.10
11.03
11.75
12.33
12.79
13.15
13.51
13.96
14.55
15.20
15.69
15.83
15.59
15.12
14.74
14.71
15.02
15.37
15.25
14.20
12.05
9.02
5.59
2.31
-0.44
-2.58
-4.32
-6.04
-8.16
-11.02
-14.68
-18.94
-23.22
-26.70
-28.47
-27.90
-24.85
-19.87
-13.92
-8.13
-3.27
0.43
3.26
5.67
8.03
10.32
12.29
13.62
14.20
14.21
14.03
14.00
14.27
14.77
15.32
15.80
16.14
16.38
16.53
16.51
16.20
15.47
14.22
12.47
10.33
7.89
5.28
2.65
0.10
-2.16
-4.07
-5.73
-7.42
-9.63
-12.79
-17.02
-22.01
-27.03
-31.10
-33.38
-33.42
-31.26
-27.42
-22.65
-17.70
-13.10
-9.08
-5.57
-2.36
0.81
4.09
7.45
10.71
13.64
16.02
17.74
18.80
19.26
19.24
18.87
18.31
17.73
17.28
17.01
16.84
16.62
16.22
15.54
14.60
13.41
12.01
10.32
8.32
6.02
3.53
1.02
-1.37
-3.58
-5.66
-7.70
-9.77
-11.91
-14.21
-16.85
-20.00
-23.77
-28.01
-32.21
-35.60
-37.34
-36.87
-34.14
-29.64
-24.23
-18.83
-14.05
-10.07
-6.63
-3.37
-0.01
3.45
6.75
9.53
11.56
12.88
13.68
14.26
14.89
15.66
16.59
17.59
18.58
19.45
20.12
20.53
20.69
20.65
20.45
20.08
19.44
18.48
17.18
15.67
14.11
12.58
11.01
9.16
6.78
3.78
0.36
-3.06
-6.07
-8.47
-10.36
-12.12
-14.21
-16.94
-20.45
-24.51
-28.70
-32.35
-34.74
-35.25
-33.51
-29.54
-23.84
-17.17
-10.48
-4.54
0.19
3.64
6.09
7.98
9.73
11.60
13.68
15.88
18.01
19.89
21.33
22.24
22.58
22.42
21.95
21.41
21.02
20.89
20.97
21.05
20.86
20.17
18.83
16.92
14.62
12.21
9.94
8.01
6.42
5.01
3.51
1.67
-0.55
-3.02
-5.40
-7.44
-9.04
-10.38
-11.82
-13.71
-16.28
-19.51
-23.20
-27.04
-30.60
-33.40
-34.87
-34.55
-32.16
-27.82
-22.11
-15.88
-10.07
-5.35
-1.94
0.41
2.23
4.03
6.09
8.36
10.57
12.46
13.91
15.01
15.96
16.90
17.81
18.50
18.79
18.63
18.17
17.74
17.62
17.92
18.45
18.84
18.65
17.66
15.93
13.76
11.58
9.73
8.30
7.18
6.07
4.66
2.82
0.56
-1.89
-4.20
-6.08
-7.43
-8.38
-9.26
-10.51
-12.52
-15.48
-19.40
-23.99
-28.78
-33.07
-36.11
-37.16
-35.75
-31.89
-26.13
-19.45
-12.95
-7.49
-3.46
-0.73
1.14
2.67
4.29
6.12
8.08
9.99
11.65
12.97
13.96
14.68
15.21
15.58
15.74
15.66
15.37
14.94
14.48
14.04
13.55
12.76
11.43
9.33
6.53
3.31
0.04
-2.96
-5.66
-8.28
-11.18
-14.64
-18.68
-23.07
-27.47
-31.56
-35.19
-38.53
-42.01
-46.37
-52.59
-61.69
-74.32
-90.25
-107.88
-124.39
-136.30
-140.47
-135.14
-120.46
-98.45
-72.33
-45.59
-21.12
-0.73
14.84
25.73
32.57
36.21
37.64
37.89
38.01
38.88
41.00
44.39
48.62
52.96
56.87
60.12
62.91
65.62
68.60
71.92
75.43
78.82
81.76
83.92
85.03
84.87
83.42
80.84
77.51
73.86
70.14
66.42
62.64
58.75
54.78
50.88
47.11
43.28
38.95
33.59
26.77
18.39
8.69
-1.83
-12.64
-23.35
-33.70
-43.53
-52.59
-60.42
-66.30
-69.33
-68.57
-63.25
-53.06
-38.26
-19.81
0.71
21.28
39.77
54.37
63.93
68.24
68.03
64.81
60.33
56.15
53.17
51.51
50.50
49.05
45.94
40.14
31.01
18.52
3.52
-12.13
-25.77
-34.48
-36.04
-29.78
-17.06
-0.82
15.33
28.36
36.58
39.69
38.35
33.47
25.87
16.23
5.32
-5.90
-16.43
-25.62
-33.37
-40.02
-45.97
-51.21
-55.23
-57.12
-56.13
-51.98
-45.14
-36.59
-27.44
-18.70
-11.15
-5.48
-2.26
-1.94
-4.58
-9.67
-16.09
-22.41
-27.32
-30.09
-30.72
-29.82
-28.14
-26.27
-24.30
-22.00
-19.08
-15.53
-11.71
-8.23
-5.64
-4.10
-3.33
-2.88
-2.41
-1.95
-1.85
-2.48
-3.93
-5.86
-7.67
-8.88
-9.41
-9.72
-10.51
-12.35
-15.34
-19.05
-22.64
-25.32
-26.62
-26.57
-25.67
-24.62
-24.07
-24.38
-25.56
-27.34
-29.35
-31.25
-32.83
-33.99
-34.81
-35.44
-36.03
-36.60
-36.95
-36.61
-34.99
-31.57
-26.25
-19.39
-11.81
-4.46
1.80
6.49
9.51
11.06
11.45
10.92
9.58
7.37
4.13
-0.25
-5.76
-12.13
-18.97
-25.87
-32.57
-39.17
-45.95
-53.33
-61.45
-70.04
-78.29
-84.97
-88.68
-88.12
-82.46
-71.57
-56.18
-37.82
-18.57
-0.51
14.70
26.30
34.47
40.15
44.60
48.88
53.51
58.43
63.15
67.02
69.62
70.84
70.83
69.86
68.10
65.55
62.14
57.89
53.01
47.85
42.73
37.76
32.75
27.34
21.25
14.45
7.11
-0.47
-8.02
-15.41
-22.51
-29.10
-34.72
-38.75
-40.58
-39.84
-36.54
-31.21
-24.76
-18.28
-12.70
-8.50
-5.45
-2.71
0.86
6.27
13.98
23.71
34.52
45.13
54.31
61.14
65.18
66.55
65.81
63.76
61.20
58.68
56.44
54.36
52.16
49.58
46.56
43.32
40.20
37.57
35.67
34.57
34.12
34.12
34.24
34.02
32.95
30.51
26.30
20.28
12.85
4.77
-3.06
-9.90
-15.43
-19.78
-23.38
-26.76
-30.30
-34.18
-38.41
-42.86
-47.37
-51.76
-55.75
-58.93
-60.86
-61.17
-59.68
-56.51
-52.10
-46.93
-41.49
-36.05
-30.75
-25.60
-20.65
-16.00
-11.82
-8.24
-5.31
-2.96
-1.03
0.70
2.39
4.18
6.15
8.27
10.44
12.46
14.15
15.36
16.04
16.25
16.15
15.89
15.54
15.13
14.54
13.64
12.28
10.41
8.08
5.48
2.85
0.39
-1.84
-3.97
-6.31
-9.21
-12.86
-17.21
-21.82
-26.00
-28.99
-30.09
-28.97
-25.66
-20.64
-14.63
-8.48
-2.91
1.63
4.99
7.30
8.82
9.78
10.35
10.62
10.70
10.70
10.82
11.16
11.77
12.57
13.37
13.96
14.18
14.01
13.61
13.19
12.93
12.80
12.59
11.97
10.67
8.67
6.17
3.53
1.08
-1.08
-3.09
-5.23
-7.78
-10.89
-14.52
-18.48
-22.40
-25.83
-28.22
-29.02
-27.82
-24.56
-19.55
-13.51
-7.28
-1.58
3.15
6.91
9.97
12.66
15.19
17.56
19.66
21.36
22.66
23.68
24.63
25.61
26.57
27.34
27.73
27.66
27.14
26.29
25.19
23.82
22.05
19.74
16.85
13.46
9.77
6.01
2.34
-1.24
-4.78
-8.31
-11.85
-15.35
-18.78
-22.08
-25.08
-27.44
-28.62
-28.06
-25.43
-20.81
-14.77
-8.16
-1.83
3.67
8.16
11.74
14.59
16.78
18.24
18.85
18.53
17.42
15.77
13.88
11.99
10.24
8.64
7.17
5.83
4.62
3.46
2.23
0.65
-1.55
-4.50
-8.08
-11.88
-15.33
-17.95
-19.45
-19.84
-19.41
-18.55
-17.67
-17.10
-17.00
-17.34
-17.80
-17.84
-16.76
-13.98
-9.24
-2.76
4.76
12.40
19.27
24.76
28.63
30.93
31.87
31.66
30.48
28.55
26.17
23.69
21.53
19.91
18.93
18.39
18.01
17.52
16.79
15.87
14.94
14.11
13.36
12.49
11.16
9.14
6.40
3.16
-0.14
-3.05
-5.29
-6.89
-8.16
-9.56
-11.55
-14.44
-18.29
-22.92
-27.90
-32.62
-36.33
-38.28
-37.88
-34.93
-29.70
-22.98
-15.83
-9.29
-4.10
-0.46
1.93
3.68
5.40
7.47
9.94
12.61
15.18
17.42
19.21
20.53
21.39
21.83
21.91
21.80
21.74
21.92
22.39
22.97
23.35
23.22
22.42
21.03
19.28
17.37
15.39
13.26
10.81
7.93
4.61
1.05
-2.50
-5.82
-8.76
-11.41
-13.97
-16.78
-20.12
-24.17
-28.88
-33.93
-38.73
-42.47
-44.30
-43.60
-40.17
-34.39
-27.15
-19.58
-12.74
-7.24
-3.16
-0.18
2.25
4.59
7.05
9.62
12.14
14.40
16.25
17.61
18.56
19.24
19.86
20.56
21.42
22.33
23.18
23.82
24.23
24.38
24.25
23.71
22.60
20.82
18.49
15.93
13.62
11.92
10.91
10.32
9.59
8.17
5.73
2.35
-1.45
-5.03
-7.86
-9.83
-11.26
-12.80
-15.08
-18.49
-23.01
-28.18
-33.27
-37.39
-39.68
-39.53
-36.75
-31.70
-25.19
-18.30
-12.01
-6.91
-3.02
0.03
2.76
5.56
8.54
11.56
14.33
16.67
18.44
19.67
20.46
20.96
21.30
21.57
21.80
21.98
22.10
22.11
22.05
21.89
21.64
21.23
20.55
19.49
17.97
16.00
13.71
11.32
9.07
7.12
5.48
3.99
2.40
0.44
-1.98
-4.74
-7.57
-10.12
-12.19
-13.78
-15.11
-16.56
-18.56
-21.37
-25.02
-29.11
-32.94
-35.59
-36.27
-34.57
-30.67
-25.21
-19.15
-13.41
-8.56
-4.83
-2.07
0.03
1.78
3.37
4.86
6.26
7.55
8.72
9.76
10.66
11.44
12.08
12.59
13.02
13.38
13.67
13.85
13.91
13.86
13.72
13.58
13.49
13.45
13.40
13.29
13.07
12.75
12.35
11.83
11.10
10.05
8.60
6.73
4.53
2.11
-0.45
-3.09
-5.80
-8.50
-11.12
-13.56
-15.79
-17.86
-19.96
-22.28
-24.92
-27.78
-30.46
-32.41
-33.05
-31.98
-29.11
-24.72
-19.40
-13.89
-8.87
-4.76
-1.68
0.51
2.08
3.30
4.34
5.26
6.08
6.79
7.44
8.13
8.88
9.69
10.48
11.22
11.89
12.48
12.95
13.23
13.21
12.83
12.11
11.14
10.05
8.90
7.66
6.31
4.85
3.37
2.03
0.90
-0.01
-0.84
-1.78
-2.96
-4.41
-6.03
-7.73
-9.37
-10.94
-12.39
-13.74
-15.02
-16.30
-17.67
-19.24
-21.12
-23.30
-25.64
-27.80
-29.37
-29.90
-29.06
-26.73
-23.08
-18.49
-13.53
-8.81
-4.81
-1.79
0.29
1.67
2.68
3.59
4.55
5.52
6.42
7.15
7.69
8.10
8.48
8.95
9.58
10.34
11.17
11.88
12.30
12.32
11.91
11.15
10.20
9.18
8.10
6.97
5.76
4.52
3.31
2.17
1.04
-0.21
-1.72
-3.52
-5.49
-7.45
-9.23
-10.82
-12.34
-14.03
-16.04
-18.38
-20.83
-22.96
-24.24
-24.22
-22.63
-19.58
-15.48
-10.97
-6.70
-3.11
-0.38
1.57
2.98
4.05
4.90
5.53
5.93
6.07
6.01
5.89
5.89
6.22
6.95
8.03
9.22
10.19
10.63
10.40
9.54
8.25
6.74
5.11
3.33
1.35
-0.86
-3.16
-5.33
-7.18
-8.58
-9.57
-10.36
-11.16
-12.14
-13.37
-14.80
-16.44
-18.27
-20.28
-22.38
-24.23
-25.35
-25.17
-23.36
-19.94
-15.31
-10.17
-5.19
-0.89
2.48
4.91
6.46
7.23
7.38
7.18
6.95
7.02
7.57
8.58
9.86
11.17
12.27
13.06
13.48
13.51
13.21
12.60
11.84
11.07
10.39
9.80
9.12
8.13
6.63
4.57
2.02
-0.85
-3.79
-6.60
-9.11
-11.26
-13.03
-14.63
-16.36
-18.55
-21.42
-24.85
-28.33
-31.05
-32.18
-31.19
-28.04
-23.25
-17.68
-12.26
-7.70
-4.30
-1.94
-0.25
1.21
2.71
4.30
5.84
7.13
8.03
8.58
8.95
9.38
10.05
10.93
11.79
12.40
12.57
12.30
11.76
11.13
10.51
9.87
9.08
8.02
6.65
4.94
2.95
0.73
-1.65
-4.08
-6.38
-8.45
-10.36
-12.36
-14.91
-18.41
-23.03
-28.49
-34.06
-38.69
-41.37
-41.41
-38.66
-33.56
-26.99
-19.95
-13.33
-7.68
-3.17
0.37
3.25
5.83
8.41
11.12
13.99
16.82
19.36
21.36
22.73
23.56
24.12
24.75
25.67
26.87
28.07
28.94
29.16
28.63
27.49
25.94
24.22
22.40
20.43
18.15
15.48
12.42
9.13
5.84
2.70
-0.20
-2.94
-5.73
-8.77
-12.24
-16.26
-20.89
-26.04
-31.45
-36.61
-40.75
-42.99
-42.59
-39.25
-33.27
-25.58
-17.43
-9.99
-4.04
0.27
3.29
5.65
7.91
10.43
13.21
16.11
18.93
21.50
23.75
25.63
27.07
28.03
28.50
28.59
28.56
28.63
28.94
29.38
29.65
29.40
28.35
26.53
24.17
21.67
19.40
17.56
16.11
14.79
13.20
11.01
8.08
4.51
0.63
-3.16
-6.49
-9.21
-11.46
-13.59
-16.13
-19.55
-24.12
-29.67
-35.62
-40.96
-44.55
-45.46
-43.23
-38.08
-30.85
-22.74
-14.92
-8.30
-3.26
0.34
2.98
5.28
7.75
10.62
13.80
17.02
19.90
22.20
23.85
24.99
25.87
26.71
27.60
28.53
29.42
30.19
30.85
31.41
31.83
31.98
31.59
30.42
28.40
25.72
22.74
19.88
17.46
15.49
13.75
11.86
9.45
6.38
2.73
-1.18
-4.99
-8.40
-11.32
-13.87
-16.32
-18.99
-22.12
-25.84
-30.09
-34.65
-39.05
-42.59
-44.45
-43.89
-40.57
-34.76
-27.33
-19.50
-12.44
-6.86
-2.82
0.17
2.77
5.49
8.48
11.55
14.38
16.78
18.75
20.51
22.25
24.03
25.68
26.96
27.65
27.74
27.39
26.89
26.53
26.43
26.53
26.61
26.38
25.71
24.61
23.23
21.78
20.39
19.07
17.75
16.35
14.83
13.16
11.33
9.29
7.03
4.55
1.93
-0.73
-3.33
-5.93
-8.66
-11.72
-15.28
-19.39
-24.00
-28.94
-33.94
-38.52
-42.05
-43.85
-43.38
-40.48
-35.46
-29.12
-22.41
-16.13
-10.75
-6.28
-2.50
0.88
4.00
6.86
9.41
11.62
13.57
15.37
17.12
18.85
20.52
22.03
23.30
24.21
24.76
24.95
24.89
24.70
24.45
24.14
23.66
22.90
21.80
20.50
19.16
17.93
16.82
15.71
14.44
12.94
11.26
9.47
7.64
5.68
3.46
0.92
-1.90
-4.80
-7.55
-10.00
-12.15
-14.12
-16.16
-18.54
-21.54
-25.26
-29.63
-34.28
-38.52
-41.54
-42.54
-41.06
-37.10
-31.17
-24.14
-17.01
-10.59
-5.37
-1.44
1.42
3.57
5.38
7.11
8.89
10.76
12.69
14.58
16.33
17.80
18.93
19.73
20.24
20.54
20.69
20.78
20.88
21.08
21.38
21.74
21.93
21.74
21.04
19.79
18.12
16.18
14.08
11.84
9.48
7.03
4.63
2.40
0.35
-1.62
-3.70
-6.04
-8.65
-11.39
-14.06
-16.48
-18.57
-20.46
-22.33
-24.45
-27.01
-30.05
-33.32
-36.30
-38.29
-38.54
-36.62
-32.48
-26.64
-19.96
-13.44
-7.89
-3.78
-1.13
0.43
1.43
2.39
3.58
5.03
6.58
8.02
9.21
10.13
10.85
11.45
12.04
12.67
13.42
14.31
15.28
16.14
16.65
16.56
15.77
14.34
12.46
10.40
8.34
6.44
4.73
3.25
1.96
0.76
-0.48
-1.94
-3.73
-5.86
-8.25
-10.77
-13.39
-16.14
-19.10
-22.25
-25.40
-28.13
-29.88
-30.11
-28.52
-25.12
-20.29
-14.64
-8.86
-3.51
1.00
4.47
6.87
8.32
9.06
9.39
9.59
9.83
10.10
10.30
10.24
9.88
9.37
8.99
9.02
9.58
10.55
11.63
12.46
12.81
12.57
11.77
10.43
8.59
6.27
3.58
0.78
-1.82
-3.96
-5.58
-6.85
-8.11
-9.71
-11.87
-14.66
-18.03
-21.81
-25.70
-29.23
-31.74
-32.60
-31.34
-27.93
-22.83
-16.80
-10.65
-4.97
-0.07
3.97
7.06
9.08
9.95
9.70
8.65
7.32
6.24
5.82
6.17
7.17
8.55
9.97
11.11
11.74
11.76
11.26
10.48
9.67
8.99
8.32
7.41
5.97
3.87
1.27
-1.57
-4.29
-6.66
-8.62
-10.29
-11.85
-13.60
-15.82
-18.71
-22.24
-26.05
-29.45
-31.62
-31.88
-29.93
-25.95
-20.58
-14.72
-9.27
-4.89
-1.84
0.04
1.22
2.20
3.34
4.74
6.26
7.74
9.10
10.37
11.63
12.92
14.10
14.99
15.44
15.47
15.21
14.92
14.74
14.66
14.49
13.93
12.72
10.75
8.09
5.01
1.87
-1.00
-3.37
-5.26
-6.92
-8.73
-11.10
-14.35
-18.51
-23.27
-27.98
-31.78
-33.84
-33.57
-30.85
-26.05
-19.93
-13.36
-7.11
-1.67
2.79
6.34
9.13
11.32
13.01
14.30
15.28
16.10
16.89
17.77
18.73
19.65
20.34
20.62
20.43
19.88
19.17
18.53
18.05
17.72
17.33
16.64
15.44
13.65
11.34
8.67
5.86
3.16
0.72
-1.34
-3.01
-4.45
-5.89
-7.64
-10.01
-13.23
-17.29
-21.94
-26.56
-30.27
-32.14
-31.54
-28.31
-22.93
-16.30
-9.45
-3.18
2.08
6.25
9.51
12.07
14.14
15.94
17.65
19.42
21.30
23.23
24.98
26.33
27.09
27.26
26.97
26.47
26.00
25.65
25.36
24.94
24.19
22.99
21.38
19.53
17.71
16.09
14.69
13.35
11.74
9.56
6.69
3.22
-0.50
-4.03
-7.02
-9.36
-11.24
-13.01
-15.09
-17.78
-21.22
-25.34
-29.85
-34.28
-37.96
-40.16
-40.25
-37.94
-33.40
-27.29
-20.54
-14.04
-8.41
-3.87
-0.30
2.61
5.18
7.63
10.01
12.25
14.24
15.87
17.13
18.03
18.65
19.12
19.53
19.95
20.44
21.01
21.65
22.35
23.02
23.50
23.57
23.03
21.83
20.09
18.09
16.16
14.50
13.12
11.83
10.40
8.65
6.51
4.02
1.25
-1.74
-4.81
-7.80
-10.54
-13.00
-15.32
-17.88
-21.12
-25.25
-30.09
-34.95
-38.86
-40.85
-40.32
-37.21
-32.04
-25.72
-19.24
-13.42
-8.72
-5.15
-2.42
-0.09
2.27
4.91
7.89
11.10
14.26
17.08
19.28
20.69
21.37
21.55
21.54
21.63
21.93
22.38
22.83
23.10
23.11
22.86
22.33
21.49
20.29
18.71
16.86
14.91
13.03
11.29
9.65
7.98
6.13
4.07
1.81
-0.56
-2.95
-5.23
-7.30
-9.06
-10.49
-11.75
-13.13
-15.02
-17.71
-21.26
-25.37
-29.48
-32.85
-34.82
-35.01
-33.33
-30.04
-25.58
-20.50
-15.34
-10.52
-6.36
-2.98
-0.39
1.58
3.20
4.76
6.52
8.56
10.83
13.11
15.19
16.90
18.22
19.24
20.10
20.89
21.62
22.20
22.54
22.59
22.37
22.00
21.53
21.02
20.37
19.46
18.19
16.59
14.82
13.13
11.71
10.57
9.51
8.21
6.36
3.86
0.88
-2.23
-5.07
-7.42
-9.24
-10.76
-12.25
-13.97
-16.12
-18.71
-21.70
-24.94
-28.16
-31.02
-33.08
-33.91
-33.13
-30.60
-26.48
-21.25
-15.62
-10.36
-6.00
-2.78
-0.48
1.34
3.20
5.35
7.76
10.14
12.21
13.82
15.05
16.09
17.08
17.96
18.58
18.75
18.51
18.08
17.78
17.86
18.33
18.91
19.22
18.91
17.86
16.16
14.08
11.84
9.61
7.47
5.46
3.62
1.99
0.56
-0.79
-2.19
-3.75
-5.42
-7.07
-8.56
-9.89
-11.22
-12.92
-15.30
-18.56
-22.57
-26.94
-31.04
-34.16
-35.69
-35.22
-32.77
-28.70
-23.69
-18.54
-13.89
-10.14
-7.32
-5.26
-3.67
-2.31
-1.07
0.10
1.18
2.21
3.23
4.31
5.47
6.66
7.79
8.69
9.29
9.56
9.59
9.49
9.39
9.27
9.04
8.54
7.60
6.19
4.41
2.46
0.58
-1.03
-2.31
-3.35
-4.33
-5.43
-6.71
-8.11
-9.44
-10.55
-11.39
-12.14
-13.09
-14.53
-16.57
-19.00
-21.28
-22.76
-22.87
-21.39
-18.47
-14.60
-10.41
-6.48
-3.16
-0.58
1.29
2.58
3.49
4.14
4.62
4.97
5.16
5.19
5.09
5.03
5.12
5.47
6.06
6.74
7.28
7.51
7.41
7.09
6.69
6.33
5.98
5.56
4.97
4.16
3.17
2.05
0.84
-0.47
-1.89
-3.45
-5.10
-6.73
-8.26
-9.66
-11.00
-12.45
-14.04
-15.68
-17.06
-17.73
-17.30
-15.59
-12.77
-9.24
-5.55
-2.14
0.73
3.04
4.88
6.35
7.50
8.30
8.71
8.76
8.51
8.08
7.62
7.23
6.98
6.92
6.99
7.12
7.19
7.06
6.68
6.04
5.23
4.34
3.38
2.31
1.10
-0.29
-1.75
-3.12
-4.28
-5.20
-5.97
-6.85
-8.12
-9.96
-12.43
-15.36
-18.39
-21.07
-22.94
-23.63
-22.92
-20.87
-17.79
-14.15
-10.46
-7.11
-4.32
-2.09
-0.29
1.23
2.57
3.77
4.80
5.67
6.39
6.99
7.53
8.05
8.55
9.04
9.52
10.00
10.50
11.02
11.49
11.74
11.56
10.75
9.19
6.94
4.19
1.31
-1.36
-3.57
-5.26
-6.56
-7.72
-9.02
-10.70
-12.94
-15.80
-19.19
-22.78
-26.01
-28.14
-28.43
-26.50
-22.49
-17.13
-11.44
-6.39
-2.52
0.20
2.18
3.98
5.95
8.16
10.37
12.33
13.80
14.76
15.34
15.72
16.06
16.42
16.74
16.93
16.93
16.71
16.33
15.90
15.48
15.01
14.38
13.43
12.02
10.15
7.94
5.56
3.21
1.02
-0.97
-2.84
-4.75
-6.85
-9.31
-12.22
-15.58
-19.26
-22.92
-26.07
-28.16
-28.70
-27.44
-24.52
-20.42
-15.84
-11.48
-7.82
-5.03
-2.94
-1.18
0.63
2.76
5.22
7.81
10.17
11.98
13.10
13.56
13.58
13.46
13.40
13.51
13.77
14.08
14.34
14.46
14.39
14.15
13.73
13.17
12.43
11.45
10.14
8.45
6.43
4.18
1.83
-0.49
-2.73
-4.81
-6.66
-8.23
-9.51
-10.69
-12.05
-13.98
-16.71
-20.16
-23.83
-26.93
-28.62
-28.32
-25.94
-21.85
-16.82
-11.68
-7.09
-3.38
-0.47
1.94
4.19
6.54
9.03
11.55
13.87
15.79
17.19
18.10
18.64
19.02
19.41
19.90
20.49
21.09
21.60
21.91
21.92
21.56
20.75
19.43
17.60
15.36
12.91
10.46
8.19
6.20
4.42
2.68
0.80
-1.30
-3.58
-5.82
-7.79
-9.35
-10.56
-11.74
-13.32
-15.72
-19.04
-23.08
-27.20
-30.65
-32.62
-32.56
-30.31
-26.15
-20.69
-14.72
-9.04
-4.20
-0.41
2.42
4.64
6.65
8.79
11.21
13.86
16.52
18.93
20.84
22.16
22.93
23.30
23.41
23.34
23.12
22.76
22.29
21.80
21.38
21.01
20.56
19.83
18.63
16.93
14.86
12.66
10.60
8.78
7.18
5.65
4.04
2.26
0.27
-1.92
-4.25
-6.68
-9.13
-11.55
-13.89
-16.22
-18.67
-21.43
-24.58
-28.00
-31.33
-33.92
-35.14
-34.49
-31.85
-27.51
-22.11
-16.40
-11.05
-6.48
-2.79
0.21
2.80
5.25
7.69
10.11
12.36
14.32
15.89
17.10
18.00
18.62
19.02
19.27
19.44
19.59
19.73
19.82
19.71
19.28
18.47
17.36
16.11
14.90
13.85
13.01
12.39
11.99
11.76
11.60
11.32
10.66
9.43
7.54
5.11
2.35
-0.48
-3.19
-5.69
-7.96
-10.07
-12.05
-13.97
-15.94
-18.12
-20.66
-23.59
-26.71
-29.58
-31.55
-31.99
-30.53
-27.16
-22.32
-16.66
-10.94
-5.78
-1.56
1.58
3.71
5.07
5.97
6.75
7.63
8.74
10.04
11.42
12.75
13.92
14.88
15.55
15.89
15.92
15.70
15.38
15.12
14.98
14.88
14.66
14.11
13.13
11.82
10.40
9.08
7.96
6.97
5.94
4.74
3.33
1.76
0.11
-1.61
-3.42
-5.33
-7.29
-9.14
-10.72
-11.98
-13.06
-14.26
-15.95
-18.37
-21.45
-24.85
-27.98
-30.16
-30.85
-29.76
-26.97
-22.89
-18.12
-13.27
-8.84
-5.08
-2.02
0.48
2.57
4.36
5.90
7.16
8.10
8.71
9.04
9.20
9.32
9.56
10.01
10.71
11.60
12.55
13.34
13.77
13.73
13.20
12.29
11.19
10.05
8.96
7.88
6.75
5.53
4.21
2.86
1.53
0.27
-0.95
-2.12
-3.25
-4.31
-5.30
-6.29
-7.46
-9.04
-11.19
-13.95
-17.13
-20.35
-23.12
-24.97
-25.54
-24.67
-22.42
-19.02
-14.85
-10.39
-6.16
-2.61
-0.02
1.62
2.57
3.19
3.80
4.48
5.12
5.56
5.75
5.87
6.25
7.14
8.51
10.01
11.11
11.39
10.73
9.42
7.91
6.61
5.66
4.91
4.08
2.88
1.22
-0.88
-3.27
-5.82
-8.47
-11.21
-14.05
-16.99
-20.06
-23.31
-26.85
-30.76
-35.02
-39.41
-43.50
-46.76
-48.68
-48.98
-47.68
-45.12
-41.85
-38.37
-35.06
-32.05
-29.33
-26.80
-24.38
-22.03
-19.74
-17.46
-15.11
-12.56
-9.69
-6.48
-3.03
0.47
3.82
6.89
9.64
12.06
14.14
15.85
17.10
17.79
17.84
17.26
16.10
14.45
12.41
10.14
7.81
5.58
3.55
1.69
-0.18
-2.28
-4.78
-7.76
-11.04
-14.31
-17.09
-18.94
-19.52
-18.78
-16.93
-14.40
-11.69
-9.22
-7.22
-5.74
-4.74
-4.18
-4.05
-4.34
-4.97
-5.73
-6.28
-6.34
-5.78
-4.68
-3.29
-1.95
-0.93
-0.33
-0.09
-0.08
-0.17
-0.36
-0.77
-1.64
-3.15
-5.34
-8.09
-11.19
-14.41
-17.58
-20.59
-23.35
-25.72
-27.50
-28.49
-28.58
-27.82
-26.42
-24.63
-22.56
-20.12
-17.06
-13.07
-7.99
-1.95
4.58
10.87
16.21
20.08
22.37
23.33
23.47
23.30
23.15
23.11
23.12
23.10
23.08
23.22
23.66
24.37
25.15
25.66
25.67
25.17
24.43
23.83
23.63
23.76
23.88
23.55
22.43
20.52
18.16
15.87
14.16
13.30
13.20
13.42
13.32
12.25
9.77
5.84
0.85
-4.46
-9.18
-12.49
-13.85
-13.14
-10.58
-6.74
-2.31
1.98
5.59
8.21
9.85
10.79
11.46
12.32
13.62
15.43
17.56
19.74
21.70
23.33
24.72
25.99
27.18
28.08
28.25
27.13
24.31
19.74
13.86
7.56
1.92
-2.08
-3.86
-3.32
-0.82
3.02
7.56
12.28
16.73
20.52
23.17
24.17
23.15
20.02
15.09
9.02
2.65
-3.22
-7.99
-11.27
-12.87
-12.84
-11.34
-8.75
-5.56
-2.24
0.78
3.30
5.31
6.91
8.25
9.45
10.59
11.72
12.92
14.16
15.40
16.50
17.33
17.85
18.12
18.30
18.56
18.92
19.29
19.49
19.32
18.72
17.79
16.73
15.81
15.22
15.08
15.31
15.75
16.01
15.60
14.02
10.83
5.87
-0.65
-8.14
-15.75
-22.59
-27.95
-31.43
-33.04
-33.04
-31.84
-29.74
-26.92
-23.40
-19.18
-14.38
-9.30
-4.30
0.19
3.92
6.84
9.11
10.96
12.62
14.28
16.06
17.97
20.01
22.11
24.18
26.10
27.75
29.07
29.99
30.53
30.77
30.92
31.25
32.06
33.50
35.45
37.52
39.09
39.57
38.58
36.12
32.54
28.37
24.08
19.94
16.06
12.39
8.94
5.76
2.97
0.56
-1.63
-3.90
-6.61
-9.91
-13.69
-17.61
-21.17
-23.99
-25.93
-27.03
-27.45
-27.30
-26.51
-24.94
-22.49
-19.22
-15.50
-11.86
-8.97
-7.47
-7.98
-11.05
-17.02
