1520257821.00
64.000000
-0.00
-0.00
-0.00
-0.00
-0.00
-0.00
-0.00
-0.00
-0.00
-0.00
0.00
0.01
0.01
-0.00
-0.03
-0.05
-0.05
0.00
0.13
0.36
0.66
1.01
1.37
1.72
2.06
2.40
2.79
3.24
3.80
4.42
5.06
5.66
6.20
6.68
7.15
7.68
8.31
9.14
10.09
11.04
11.88
12.56
13.14
13.76
14.65
15.96
17.91
20.32
22.90
25.38
27.58
29.57
31.68
34.32
37.81
42.54
48.15
54.10
59.83
64.97
69.58
74.14
79.34
85.71
93.76
103.00
112.62
121.73
129.77
136.75
143.30
150.75
157.77
166.64
177.95
191.79
206.97
220.57
228.25
225.36
208.53
176.87
132.76
80.05
23.07
-34.94
-92.44
-149.16
-205.23
-260.37
-313.74
-363.87
-409.83
-450.91
-486.50
-515.74
-537.23
-549.22
-549.96
-538.37
-514.21
-478.67
-433.88
-382.44
-327.00
-269.81
-212.58
-156.58
-102.84
-52.23
-5.72
35.81
71.71
101.69
125.90
144.84
159.22
169.74
177.02
181.47
183.37
182.94
180.45
176.27
170.78
164.40
157.49
150.27
142.90
135.44
127.94
120.45
113.02
105.73
98.64
91.82
85.29
79.07
73.17
67.60
62.38
57.51
53.01
48.88
45.10
41.69
38.62
35.91
33.53
31.50
29.80
28.42
27.37
26.62
26.17
26.01
26.14
26.54
27.19
28.07
29.14
30.34
31.57
32.73
33.66
34.20
34.18
33.45
31.89
29.42
26.04
21.81
16.83
11.28
5.42
-0.48
-6.15
-11.35
-15.85
-19.50
-22.20
-23.95
-24.77
-24.77
-24.08
-22.85
-21.23
-19.35
-17.34
-15.25
-13.13
-10.98
-8.82
-6.65
-4.43
-2.17
0.17
2.61
5.15
7.82
10.63
13.54
16.50
19.52
22.59
25.73
28.98
32.36
35.94
39.80
43.86
48.04
52.34
56.76
61.28
65.94
70.79
75.90
81.39
87.07
92.89
98.75
104.64
110.53
116.40
122.26
128.14
134.08
139.79
145.01
149.53
153.12
155.49
156.26
154.90
150.62
144.98
138.57
131.72
124.67
117.61
110.63
103.84
97.32
91.17
85.52
80.13
74.87
69.68
64.51
59.39
54.38
49.54
44.97
40.78
36.82
33.00
29.30
25.73
22.36
19.26
16.47
14.06
12.04
10.22
8.47
6.72
4.92
3.12
1.38
-0.24
-1.74
-3.13
-4.57
-6.19
-8.03
-10.04
-12.08
-14.00
-15.69
-17.18
-18.69
-20.55
-23.08
-26.40
-30.39
-34.69
-38.87
-42.62
-45.92
-49.14
-52.87
-57.64
-63.71
-70.88
-78.48
-85.76
-92.18
-97.79
-103.24
-109.60
-117.84
-128.42
-141.02
-154.72
-168.37
-181.12
-192.79
-203.88
-215.40
-228.64
-244.98
-265.58
-290.85
-319.65
-348.71
-372.94
-386.62
-385.50
-368.53
-338.61
-301.53
-263.79
-230.37
-203.40
-182.34
-165.26
-150.26
-136.21
-122.77
-109.86
-97.30
-84.86
-72.54
-60.78
-50.37
-42.20
-36.82
-34.24
-33.96
-35.31
-37.77
-41.24
-46.16
-53.27
-63.17
-75.70
-89.43
-101.58
-108.57
-107.04
-95.05
-72.91
-43.08
-9.44
23.96
54.01
79.02
98.62
113.19
123.36
129.71
132.77
133.10
131.40
128.44
124.87
121.14
117.42
113.71
109.92
105.98
101.94
97.79
93.45
88.66
82.95
75.77
66.78
56.01
43.98
31.49
19.29
7.79
-3.13
-14.23
-26.47
-40.66
-56.96
-74.54
-91.42
-104.75
-111.49
-109.24
-97.07
-75.94
-48.41
-17.93
12.19
39.52
62.70
81.32
95.36
104.94
110.18
111.45
109.53
105.63
101.08
97.02
93.97
91.80
89.95
87.76
84.78
81.01
76.78
72.55
68.56
64.67
60.32
54.70
47.13
37.33
25.71
13.26
1.17
-9.60
-18.78
-26.88
-34.98
-44.29
-55.70
-69.37
-84.50
-99.33
-111.37
-117.87
-116.48
-105.98
-86.75
-60.85
-31.46
-2.04
24.61
46.84
64.22
77.07
85.93
91.22
93.24
92.37
89.31
85.10
80.87
77.48
75.31
74.13
73.35
72.33
70.66
68.23
65.22
61.85
58.20
54.10
49.16
42.95
35.18
25.94
15.73
5.32
-4.50
-13.24
-20.88
-27.89
-34.96
-42.77
-51.76
-62.09
-73.56
-85.55
-96.92
-105.90
-110.34
-108.17
-98.13
-80.35
-56.48
-29.37
-2.23
22.16
42.05
56.77
66.49
71.78
73.27
71.66
67.74
62.48
56.94
52.09
48.54
46.28
44.83
43.42
41.40
38.53
35.03
31.43
28.18
25.31
22.37
18.57
13.09
5.59
-3.65
-13.70
-23.43
-31.92
-38.85
-44.64
-50.21
-56.62
-64.67
-74.50
-85.43
-95.88
-103.64
-106.29
-101.84
-89.45
-69.73
-44.82
-17.74
8.32
30.83
48.33
60.43
67.45
70.06
69.03
65.24
59.68
53.45
47.57
42.74
39.17
36.62
34.55
32.45
30.07
27.45
24.68
21.85
18.68
14.74
9.62
3.11
-4.49
-12.53
-20.28
-27.20
-33.21
-38.67
-44.34
-51.07
-59.58
-70.04
-81.83
-93.40
-102.35
-105.95
-101.95
-89.35
-68.99
-43.39
-16.08
9.43
30.57
46.06
55.91
60.86
61.96
60.19
56.34
51.17
45.45
39.92
35.19
31.63
29.22
27.67
26.49
25.15
23.24
20.49
16.74
11.91
6.00
-0.95
-8.76
-17.11
-25.58
-33.82
-41.63
-49.15
-56.85
-65.35
-75.19
-86.42
-98.13
-108.44
-114.62
-113.92
-104.45
-86.08
-60.72
-31.82
-3.44
21.04
39.60
51.84
58.46
60.68
59.73
56.61
52.16
47.14
42.25
37.99
34.56
31.91
29.85
28.24
27.01
26.10
25.33
24.33
22.57
19.49
14.79
8.51
1.04
-7.09
-15.34
-23.45
-31.46
-39.77
-49.01
-59.80
-72.42
-86.39
-100.17
-111.30
-116.81
-114.09
-101.80
-80.45
-52.45
-21.41
8.82
35.17
55.86
70.40
79.21
83.20
83.39
80.83
76.54
71.49
66.43
61.78
57.59
53.68
49.88
46.21
42.88
40.18
38.22
36.73
35.12
32.62
28.56
22.62
14.91
5.93
-3.62
-13.01
-21.76
-29.84
-37.71
-46.38
-56.94
-70.06
-85.31
-100.86
-113.57
-119.79
-116.59
-102.78
-79.54
-50.02
-18.43
11.35
36.52
55.90
69.48
77.93
82.09
82.73
80.63
76.63
71.64
66.55
62.00
58.26
55.20
52.49
49.73
46.69
43.25
39.44
35.32
30.82
25.83
20.12
13.57
6.19
-1.77
-9.93
-17.86
-25.34
-32.43
-39.71
-47.98
-58.09
-70.36
-84.02
-97.00
-106.19
-108.33
-101.08
-84.16
-59.51
-30.78
-2.16
22.88
42.42
56.08
64.47
68.49
68.95
66.46
61.67
55.44
48.78
42.66
37.75
34.32
32.29
31.37
31.16
31.24
31.13
30.36
28.49
25.28
20.69
14.90
8.23
1.08
-6.21
-13.47
-20.80
-28.63
-37.72
-48.80
-62.14
-77.05
-91.51
-102.44
-106.48
-101.06
-85.43
-61.12
-31.59
-1.18
26.11
47.68
62.64
71.46
75.31
75.34
72.36
66.92
59.62
51.33
43.16
36.27
31.45
28.88
28.00
27.83
27.30
25.65
22.68
18.66
14.11
9.46
4.89
0.21
-4.92
-10.91
-18.10
-26.76
-37.18
-49.49
-63.48
-78.10
-91.32
-100.31
-102.16
-94.88
-78.22
-54.01
-25.73
2.57
27.46
46.89
60.44
68.80
73.07
74.17
72.58
68.57
62.49
55.06
47.34
40.47
35.28
32.02
30.30
29.23
27.81
25.28
21.32
16.08
10.04
3.73
-2.46
-8.40
-14.25
-20.35
-27.22
-35.41
-45.46
-57.62
-71.52
-85.87
-98.28
-105.75
-105.40
-95.51
-76.30
-50.04
-20.46
8.39
33.18
52.06
64.63
71.53
73.84
72.56
68.54
62.53
55.30
47.74
40.75
35.00
30.85
28.18
26.52
25.17
23.47
20.98
17.51
13.13
8.03
2.42
-3.56
-9.88
-16.51
-23.51
-30.98
-39.15
-48.36
-59.02
-71.27
-84.56
-97.33
-107.05
-110.82
-106.18
-92.18
-69.87
-42.11
-12.77
14.33
36.49
52.45
62.26
66.79
67.24
64.75
60.24
54.58
48.58
42.98
38.38
35.17
33.40
32.82
32.89
32.91
32.20
30.22
26.71
21.72
15.56
8.66
1.52
-5.52
-12.30
-18.95
-25.88
-33.75
-43.30
-55.08
-69.07
-84.29
-98.67
-109.31
-113.24
-108.29
-93.94
-71.64
-44.47
-16.20
9.72
31.01
46.75
57.14
62.98
65.19
64.63
62.05
58.17
53.72
49.40
45.67
42.80
40.72
39.22
38.00
36.74
35.16
32.98
29.90
25.68
20.17
13.42
5.72
-2.47
-10.65
-18.51
-26.13
-34.01
-42.94
-53.77
-66.94
-82.09
-97.78
-111.53
-120.31
-121.26
-112.75
-94.92
-69.84
-40.93
-12.02
13.71
34.36
49.40
59.33
65.11
67.71
67.94
66.48
63.98
61.07
58.31
55.97
54.03
52.22
50.26
47.96
45.37
42.53
39.41
35.73
31.03
24.91
17.22
8.26
-1.37
-10.99
-20.13
-28.73
-37.11
-45.99
-56.16
-68.30
-82.54
-98.14
-113.24
-125.00
-130.26
-126.49
-112.71
-90.02
-61.39
-30.72
-1.73
22.97
42.18
55.86
64.58
69.03
69.94
68.08
64.52
60.44
56.95
54.71
53.71
53.43
53.15
52.29
50.69
48.54
46.17
43.71
40.93
37.30
32.14
24.98
15.79
5.06
-6.38
-17.58
-27.88
-37.10
-45.72
-54.67
-65.09
-77.86
-93.02
-109.48
-124.88
-136.04
-139.75
-133.83
-117.91
-93.66
-64.25
-33.37
-4.24
21.10
41.73
57.53
68.65
75.36
78.07
77.51
74.89
71.61
68.95
67.65
67.69
68.46
69.10
68.84
67.31
64.65
61.25
57.57
53.77
49.58
44.38
37.50
28.55
17.73
5.79
-6.20
-17.28
-26.98
-35.50
-43.60
-52.35
-62.77
-75.45
-90.24
-106.04
-120.67
-131.25
-134.80
-129.17
-113.82
-90.16
-61.08
-30.18
-0.68
25.29
46.76
63.62
76.09
84.37
88.64
89.31
87.26
83.77
80.22
77.71
76.64
76.69
77.06
76.88
75.62
73.26
70.22
67.04
64.05
61.13
57.67
52.85
46.04
37.06
26.39
14.97
3.86
-6.16
-14.84
-22.55
-30.11
-38.57
-48.82
-61.39
-76.13
-91.93
-106.71
-117.68
-121.94
-117.37
-103.35
-81.12
-53.47
-23.89
4.38
29.06
49.09
64.30
75.00
81.55
84.27
83.66
80.62
76.46
72.62
70.18
69.48
69.98
70.64
70.38
68.61
65.37
61.21
56.80
52.46
47.97
42.65
35.70
26.64
15.61
3.46
-8.65
-19.57
-28.72
-36.22
-42.93
-50.10
-58.97
-70.37
-84.30
-99.75
-114.59
-125.89
-130.52
-126.09
-111.78
-88.80
-60.10
-29.51
-0.60
24.17
43.77
58.29
68.29
74.35
76.98
76.73
74.47
71.33
68.53
66.87
66.47
66.78
66.87
65.95
63.70
60.40
56.67
53.03
49.57
45.75
40.69
33.56
24.09
12.73
0.50
-11.45
-22.34
-32.05
-41.13
-50.52
-61.23
-74.00
-88.97
-105.34
-121.26
-133.87
-139.95
-136.89
-123.61
-101.17
-72.52
-41.51
-11.75
14.30
35.59
52.15
64.46
73.04
78.30
80.66
80.66
78.97
76.31
73.20
69.93
66.58
63.15
59.71
56.42
53.48
50.91
48.47
45.60
41.55
35.65
27.59
17.62
6.45
-4.96
-15.84
-25.89
-35.43
-45.39
-56.88
-70.76
-87.03
-104.48
-120.57
-132.00
-135.51
-128.99
-112.28
-87.30
-57.55
-26.95
1.17
24.77
43.22
56.87
66.41
72.56
75.87
76.88
76.16
74.39
72.17
69.93
67.79
65.63
63.24
60.50
57.47
54.34
51.24
48.10
44.51
39.87
33.61
25.49
15.76
5.02
-5.91
-16.42
-26.29
-35.86
-45.92
-57.40
-71.01
-86.66
-103.12
-117.93
-127.88
-129.88
-122.06
-104.49
-79.27
-49.87
-20.09
7.01
29.65
47.32
60.29
69.13
74.37
76.45
75.94
73.57
70.17
66.50
63.00
59.74
56.54
53.16
49.58
45.99
42.69
39.76
36.96
33.67
29.10
22.67
14.29
4.44
-6.01
-16.16
-25.46
-33.96
-42.24
-51.27
-62.02
-75.03
-90.02
-105.64
-119.47
-128.43
-129.60
-121.16
-103.10
-77.37
-47.34
-16.86
10.82
33.75
51.31
63.85
72.08
76.65
78.05
76.88
73.89
70.07
66.40
63.57
61.72
60.46
59.08
56.99
53.99
50.32
46.57
43.16
40.10
36.84
32.42
26.03
17.32
6.73
-4.70
-15.70
-25.37
-33.52
-40.68
-47.95
-56.53
-67.30
-80.45
-95.18
-109.58
-120.88
-126.09
-122.85
-110.24
-89.25
-62.51
-33.48
-5.45
19.28
39.61
55.44
67.11
74.92
79.08
79.84
77.78
73.89
69.45
65.65
63.20
62.13
61.85
61.46
60.16
57.61
53.97
49.78
45.59
41.56
37.39
32.41
25.92
17.63
7.78
-2.84
-13.30
-22.85
-31.30
-38.98
-46.58
-54.86
-64.47
-75.72
-88.49
-101.97
-114.53
-123.74
-126.82
-121.48
-106.86
-84.02
-55.76
-25.88
2.05
25.60
43.81
56.94
65.77
71.06
73.30
72.84
70.23
66.31
62.23
59.00
57.18
56.69
56.87
56.79
55.72
53.41
50.11
46.41
42.86
39.56
36.15
31.90
26.07
18.25
8.62
-2.08
-12.83
-22.69
-31.12
-38.18
-44.43
-50.75
-58.04
-67.10
-78.24
-91.18
-104.77
-116.87
-124.61
-125.10
-116.29
-97.91
-71.67
-40.99
-9.89
18.13
40.91
57.83
69.32
76.26
79.42
79.33
76.49
71.66
65.89
60.42
56.25
53.79
52.80
52.45
51.75
49.99
47.02
43.27
39.44
36.07
33.18
30.22
26.33
20.76
13.21
4.01
-6.08
-16.21
-25.72
-34.36
-42.18
-49.47
-56.67
-64.39
-73.32
-84.06
-96.63
-110.08
-122.24
-130.01
-130.26
-120.97
-101.99
-75.35
-44.64
-13.85
13.73
36.19
53.04
64.68
71.84
75.07
74.84
71.69
66.44
60.26
54.41
49.88
47.04
45.62
44.85
43.85
42.01
39.23
35.84
32.42
29.39
26.78
24.18
20.84
16.04
9.33
0.87
-8.70
-18.43
-27.38
-35.07
-41.61
-47.71
-54.47
-62.98
-73.99
-87.55
-102.78
-117.81
-129.99
-136.38
-134.54
-123.25
-103.10
-76.29
-46.19
-16.34
10.39
32.26
48.68
59.80
66.14
68.26
66.82
62.65
56.89
50.89
45.91
42.79
41.61
41.77
42.27
42.15
40.92
38.74
36.25
34.08
32.43
30.83
28.29
23.73
16.51
6.80
-4.48
-15.98
-26.47
-35.28
-42.55
-49.12
-56.25
-65.19
-76.77
-91.01
-106.88
-122.21
-134.07
-139.42
-135.97
-122.98
-101.49
-74.10
-44.20
-15.01
11.02
32.54
49.05
60.59
67.43
69.96
68.81
65.00
59.90
55.00
51.46
49.80
49.75
50.38
50.63
49.77
47.70
44.93
42.16
39.81
37.76
35.26
31.33
25.15
16.48
5.78
-5.94
-17.53
-28.09
-37.23
-45.31
-53.17
-61.99
-72.83
-86.24
-101.77
-117.82
-131.66
-140.00
-139.91
-129.79
-110.02
-82.98
-52.31
-21.82
5.51
28.10
45.59
58.31
66.74
71.33
72.48
70.91
67.69
64.11
61.30
59.79
59.40
59.39
58.85
57.15
54.23
50.58
46.92
43.76
41.12
38.36
34.50
28.65
20.42
10.11
-1.36
-12.83
-23.42
-32.77
-41.20
-49.53
-58.85
-70.12
-83.83
-99.59
-115.97
-130.43
-139.83
-141.21
-132.76
-114.60
-88.76
-58.68
-28.09
-0.02
23.83
42.99
57.73
68.48
75.49
78.94
79.21
77.14
73.99
71.11
69.49
69.37
70.26
71.19
71.28
70.01
67.51
64.28
60.91
57.65
54.29
50.21
44.64
37.05
27.34
15.99
3.87
-8.08
-19.10
-28.88
-37.68
-46.16
-55.22
-65.78
-78.41
-93.10
-108.90
-123.92
-135.45
-140.57
-136.96
-123.64
-101.39
-72.71
-41.00
-9.73
18.42
41.97
60.51
74.30
83.79
89.37
91.42
90.55
87.72
84.16
81.08
79.24
78.72
78.93
78.96
78.10
76.03
73.00
69.54
66.16
63.01
59.84
56.07
51.02
44.21
35.50
25.21
13.94
2.49
-8.48
-18.62
-27.95
-36.87
-46.04
-56.20
-67.94
-81.53
-96.45
-111.21
-123.38
-130.02
-128.49
-117.42
-97.28
-70.37
-40.14
-10.19
16.75
39.16
56.74
69.85
79.03
84.68
87.14
86.85
84.55
81.30
78.22
76.17
75.44
75.75
76.35
76.46
75.51
73.32
70.11
66.22
61.95
57.29
51.96
45.50
37.49
27.84
16.88
5.38
-5.74
-15.72
-24.28
-31.80
-39.14
-47.37
-57.43
-69.88
-84.63
-100.85
-116.81
-130.03
-137.63
-137.03
-126.79
-107.18
-80.27
-49.39
-18.18
10.40
34.58
53.78
68.16
78.08
83.85
85.75
84.32
80.57
75.87
71.61
68.74
67.42
67.03
66.53
65.01
62.11
58.08
53.66
49.46
45.62
41.63
36.62
29.76
20.70
9.86
-1.83
-13.26
-23.60
-32.63
-40.76
-48.90
-58.14
-69.46
-83.39
-99.59
-116.62
-131.90
-142.15
-144.28
-136.34
-118.35
-92.36
-61.87
-30.75
-2.19
21.95
41.10
55.58
65.99
72.89
76.73
78.01
77.38
75.67
73.66
71.89
70.46
69.10
67.35
64.89
61.78
58.35
55.02
51.91
48.62
44.24
37.84
28.89
17.60
4.97
-7.70
-19.28
-29.39
-38.39
-47.34
-57.49
-69.92
-85.04
-102.14
-119.28
-133.42
-141.09
-139.41
-127.17
-105.26
-76.66
-45.35
-15.17
11.22
32.67
49.27
61.68
70.55
76.27
79.11
79.43
77.83
75.05
71.74
68.26
64.69
60.97
57.15
53.42
50.02
47.02
44.09
40.52
35.50
28.43
19.24
8.46
-3.02
-14.24
-24.52
-33.76
-42.42
-51.44
-61.92
-74.74
-90.03
-106.76
-122.65
-134.47
-138.90
-133.56
-117.94
-93.68
-64.14
-33.30
-4.60
19.89
39.56
54.80
66.28
74.39
79.19
80.71
79.30
75.74
71.10
66.32
61.90
57.87
53.96
49.97
45.93
42.08
38.64
35.50
32.11
27.68
21.44
13.07
2.85
-8.38
-19.56
-29.80
-38.75
-46.69
-54.54
-63.47
-74.58
-88.36
-104.19
-120.18
-133.28
-140.07
-137.80
-125.34
-103.69
-75.65
-44.93
-14.99
11.79
34.36
52.61
66.84
77.22
83.74
86.51
85.95
82.98
78.86
74.83
71.67
69.49
67.79
65.74
62.72
58.61
53.86
49.20
45.25
42.03
38.92
34.90
28.92
20.59
10.18
-1.27
-12.53
-22.59
-31.09
-38.39
-45.48
-53.60
-63.80
-76.59
-91.48
-106.89
-120.16
-128.11
-127.93
-118.07
-98.85
-72.48
-42.41
-12.35
14.75
37.26
54.81
67.87
77.10
82.98
85.67
85.30
82.28
77.46
72.02
67.19
63.73
61.78
60.77
59.86
58.30
55.82
52.61
49.13
45.79
42.61
39.22
34.96
29.18
21.52
12.12
1.56
-9.31
-19.68
-29.05
-37.35
-45.01
-52.78
-61.48
-71.90
-84.46
-99.00
-114.42
-128.62
-138.66
-141.47
-134.78
-118.01
-92.71
-62.11
-30.22
-0.63
24.33
43.88
58.33
68.48
75.03
78.41
78.95
77.15
73.79
69.92
66.56
64.36
63.47
63.51
63.77
63.57
62.47
60.39
57.49
54.08
50.30
46.10
41.17
35.13
27.68
18.81
8.82
-1.72
-12.15
-21.92
-30.77
-38.80
-46.40
-54.14
-62.61
-72.42
-83.97
-97.28
-111.60
-125.18
-135.30
-138.88
-133.40
-117.89
-93.49
-63.23
-31.07
-0.80
24.99
45.24
60.00
69.98
75.94
78.43
77.99
75.27
71.20
66.86
63.24
60.94
60.06
60.18
60.62
60.64
59.70
57.60
54.48
50.60
46.31
41.75
36.86
31.29
24.66
16.71
7.49
-2.61
-12.94
-22.88
-32.03
-40.29
-47.95
-55.54
-63.72
-73.21
-84.54
-97.81
-112.26
-126.02
-136.18
-139.46
-133.21
-116.45
-90.42
-58.32
-24.43
7.20
33.70
53.82
67.65
76.05
80.05
80.54
78.32
74.17
69.06
63.96
59.74
56.87
55.36
54.82
54.62
54.14
52.93
50.85
48.05
44.86
41.58
38.23
34.48
29.70
23.21
14.65
4.20
-7.42
-19.14
-30.00
-39.48
-47.64
-55.11
-62.84
-71.83
-82.83
-96.01
-110.66
-125.08
-136.58
-142.05
-138.75
-125.32
-102.34
-72.34
-39.11
-6.58
22.15
45.33
62.47
73.86
80.07
81.77
79.71
74.88
68.59
62.19
56.83
53.10
50.90
49.63
48.46
46.74
44.20
41.12
38.04
35.46
33.47
31.60
28.88
24.19
16.77
6.56
-5.59
-18.35
-30.26
-40.41
-48.76
-56.06
-63.63
-72.76
-84.35
-98.43
-114.03
-129.11
-140.77
-145.93
-141.98
-127.69
-103.73
-72.72
-38.52
-5.21
23.95
47.11
63.83
74.64
80.37
81.85
79.78
75.00
68.63
62.00
56.32
52.32
50.03
48.81
47.76
46.20
43.92
41.26
38.74
36.73
34.98
32.67
28.69
22.11
12.77
1.31
-10.94
-22.56
-32.57
-40.75
-47.77
-54.88
-63.55
-74.93
-89.47
-106.45
-123.93
-138.78
-147.40
-146.76
-135.31
-113.66
-84.49
-51.71
-19.33
9.57
33.30
51.42
64.27
72.41
76.42
76.87
74.55
70.53
66.09
62.34
59.94
58.90
58.64
58.30
57.24
55.25
52.58
49.70
46.89
43.98
40.33
35.15
27.85
18.36
7.25
-4.45
-15.64
-25.49
-33.82
-41.16
-48.68
-57.84
-69.89
-85.25
-103.14
-121.28
-136.26
-144.36
-142.57
-129.68
-106.68
-76.52
-43.22
-10.72
18.10
41.71
59.79
72.71
81.01
85.18
85.74
83.41
79.25
74.52
70.43
67.67
66.29
65.74
65.14
63.74
61.29
58.05
54.57
51.29
48.14
44.49
39.43
32.15
22.45
10.85
-1.51
-13.31
-23.53
-31.87
-38.94
-46.02
-54.71
-66.37
-81.51
-99.32
-117.62
-133.11
-142.13
-141.71
-130.47
-109.14
-80.37
-47.95
-15.70
13.39
37.68
56.72
70.75
80.19
85.42
86.77
84.86
80.76
75.89
71.73
69.26
68.68
69.32
70.13
70.14
68.93
66.71
64.05
61.44
58.85
55.72
51.14
44.38
35.20
24.05
11.90
-0.09
-11.00
-20.47
-28.79
-36.80
-45.69
-56.55
-70.11
-86.22
-103.61
-119.85
-131.68
-135.73
-129.59
-112.61
-86.35
-54.17
-20.30
11.36
38.16
59.02
74.05
83.96
89.45
91.12
89.53
85.50
80.23
75.01
70.85
68.07
66.29
64.71
62.55
59.46
55.67
51.75
48.18
45.01
41.74
37.50
31.41
23.05
12.66
1.13
-10.36
-20.80
-29.79
-37.75
-45.74
-55.09
-66.98
-81.89
-99.26
-117.27
-133.02
-142.99
-144.04
-134.43
-114.45
-86.48
-54.30
-21.98
7.27
31.61
50.58
64.49
73.90
79.27
81.09
80.01
77.00
73.25
69.82
67.25
65.48
63.92
61.85
58.83
54.87
50.40
45.91
41.61
37.21
31.99
25.19
16.34
5.58
-6.30
-18.24
-29.24
-38.82
-47.18
-55.13
-63.85
-74.49
-87.80
-103.65
-120.85
-136.99
-148.87
-153.19
-147.63
-131.61
-106.68
-76.07
-43.69
-12.99
13.88
36.14
54.01
67.92
78.17
84.82
88.05
88.43
86.95
84.76
82.67
80.84
78.86
76.03
71.97
66.82
61.33
56.37
52.47
49.43
46.38
42.06
35.43
26.11
14.55
1.85
-10.66
-21.94
-31.55
-39.77
-47.51
-55.98
-66.39
-79.51
-95.18
-112.01
-127.39
-137.90
-140.30
-132.57
-114.68
-88.73
-58.25
-27.05
1.85
26.87
47.79
65.06
79.14
90.06
97.44
100.99
100.90
98.06
93.79
89.48
85.98
83.49
81.60
79.62
76.98
73.55
69.55
65.40
61.42
57.58
53.39
48.15
41.10
31.85
20.60
8.08
-4.61
-16.48
-26.96
-36.13
-44.58
-53.17
-62.68
-73.66
-86.39
-100.79
-116.17
-131.04
-143.02
-149.16
-146.81
-134.55
-112.94
-84.46
-52.81
-21.69
6.27
29.92
49.38
65.33
78.30
88.40
95.45
99.31
100.19
98.74
95.87
92.50
89.30
86.54
84.09
81.61
78.69
75.11
70.80
65.91
60.62
55.02
49.04
42.51
35.24
27.15
18.29
8.79
-1.18
-11.37
-21.51
-31.29
-40.36
-48.60
-56.15
-63.51
-71.51
-81.09
-92.91
-106.95
-122.11
-136.14
-145.89
-148.20
-140.85
-123.48
-97.82
-67.23
-35.65
-6.43
18.46
38.54
54.35
66.72
76.25
83.12
87.32
88.97
88.52
86.69
84.22
81.70
79.35
77.17
75.02
72.72
70.21
67.41
64.26
60.60
56.25
51.04
44.90
37.81
29.88
21.21
11.99
2.40
-7.33
-17.02
-26.46
-35.49
-44.01
-52.05
-59.79
-67.72
-76.53
-86.95
-99.35
-113.24
-126.86
-137.43
-141.76
-137.31
-123.16
-100.44
-72.03
-41.62
-12.56
12.94
34.03
50.91
64.13
74.16
81.16
85.11
86.06
84.43
80.99
76.71
72.50
68.91
66.07
63.71
61.42
58.85
55.88
52.55
48.96
45.14
40.99
36.28
30.84
24.48
17.17
8.95
-0.01
-9.46
-19.03
-28.35
-37.17
-45.43
-53.28
-61.06
-69.30
-78.57
-89.43
-102.04
-115.83
-129.18
-139.41
-143.45
-138.71
-124.14
-100.77
-71.46
-40.09
-10.33
15.24
35.53
50.65
61.36
68.45
72.47
73.79
72.76
70.00
66.32
62.69
59.92
58.42
58.13
58.60
59.11
59.02
57.95
55.82
52.76
49.00
44.61
39.58
33.71
26.82
18.81
9.77
-0.04
-10.20
-20.20
-29.61
-38.13
-45.75
-52.75
-59.70
-67.30
-76.29
-87.24
-100.27
-114.69
-128.76
-139.72
-144.38
-139.97
-125.23
-101.06
-70.38
-37.32
-5.92
20.94
42.03
57.53
68.35
75.45
79.48
80.75
79.56
76.45
72.30
68.14
64.82
62.80
61.93
61.64
61.20
60.00
57.76
54.51
50.61
46.45
42.28
38.02
33.26
27.39
19.87
10.55
-0.20
-11.54
-22.45
-32.14
-40.32
-47.30
-53.79
-60.68
-68.84
-78.97
-91.41
-105.79
-120.67
-133.42
-140.62
-138.98
-126.58
-103.75
-73.19
-39.21
-6.25
22.34
44.98
61.62
72.99
79.83
82.61
81.63
77.55
71.57
65.25
60.06
56.78
55.24
54.55
53.61
51.70
48.83
45.66
43.00
41.28
40.23
38.93
36.14
30.91
22.95
12.80
1.59
-9.42
-19.27
-27.64
-34.93
-42.03
-50.08
-60.14
-72.88
-88.23
-105.07
-121.09
-133.06
-137.47
-131.70
-114.88
-88.51
-56.07
-22.04
9.42
35.47
54.95
68.04
75.58
78.50
77.62
73.73
67.83
61.13
54.91
50.07
46.92
45.07
43.70
41.99
39.51
36.39
33.15
30.31
27.91
25.38
21.64
15.67
6.95
-4.11
-16.35
-28.34
-38.98
-48.00
-56.03
-64.41
-74.62
-87.72
-103.78
-121.55
-138.38
-150.60
-154.46
-147.19
-128.09
-98.99
-63.78
-27.34
5.94
33.15
53.24
66.64
74.51
78.10
78.44
76.34
72.56
67.88
63.01
58.47
54.49
51.11
48.19
45.68
43.47
41.38
39.08
36.03
31.59
25.30
17.00
6.90
-4.46
-16.29
-27.96
-39.05
-49.67
-60.44
-72.43
-86.75
-103.94
-123.29
-142.47
-157.72
-164.81
-160.36
-143.14
-114.67
-78.80
-40.58
-4.64
25.94
50.02
68.03
81.05
90.08
95.68
98.04
97.34
94.01
88.88
82.86
76.89
71.55
67.02
63.19
59.66
55.98
51.65
46.22
39.36
30.92
20.98
9.91
-1.74
-13.36
-24.43
-34.87
-45.08
-55.99
-68.81
-84.42
-102.72
-122.03
-139.11
-149.79
-150.31
-138.58
-115.13
-83.01
-46.84
-11.30
20.09
45.65
65.36
80.10
90.84
98.14
102.15
102.90
100.63
96.00
89.96
83.60
77.76
72.91
69.06
65.85
62.79
59.30
54.86
49.05
41.55
32.28
21.36
9.26
-3.31
-15.64
-27.22
-38.09
-48.88
-60.74
-74.94
-92.11
-111.63
-131.29
-147.46
-155.97
-153.39
-138.19
-111.41
-76.50
-38.18
-1.19
31.03
56.85
76.26
90.18
99.60
105.17
107.22
106.04
102.22
96.71
90.52
84.41
78.65
73.08
67.50
61.90
56.52
51.59
47.02
42.20
36.14
27.99
17.40
4.83
-8.70
-21.98
-34.19
-45.25
-55.85
-67.26
-80.79
-97.27
-116.34
-136.19
-153.58
-164.45
-165.11
-153.42
-129.72
-96.82
-59.15
-21.45
12.60
41.03
63.49
80.48
92.67
100.35
103.64
102.91
99.14
93.87
88.68
84.62
81.82
79.57
76.95
73.30
68.68
63.72
59.14
55.24
51.60
47.19
40.86
31.88
20.35
7.18
-6.29
-18.80
-29.68
-39.12
-48.01
-57.60
-69.12
-83.33
-100.06
-118.02
-134.66
-146.53
-150.16
-143.05
-124.72
-96.98
-63.52
-28.65
3.98
32.23
55.54
74.30
89.06
99.97
106.81
109.41
108.15
104.11
98.84
93.88
90.24
88.12
87.06
86.17
84.66
82.05
78.28
73.69
68.69
63.52
58.11
52.01
44.57
35.32
24.16
11.60
-1.44
-13.89
-25.01
-34.58
-42.99
-51.04
-59.66
-69.66
-81.53
-95.34
-110.41
-125.19
-137.17
-143.32
-140.83
-128.13
-105.57
-75.49
-41.64
-8.03
22.18
47.31
66.99
81.69
92.04
98.38
100.95
100.02
96.36
91.13
85.69
81.15
78.10
76.48
75.78
75.30
74.40
72.64
69.74
65.61
60.30
54.03
47.05
39.63
31.86
23.66
14.81
5.16
-5.20
-15.85
-26.15
-35.51
-43.68
-50.87
-57.67
-64.87
-73.29
-83.52
-95.74
-109.51
-123.50
-135.44
-142.34
-141.23
-130.16
-109.06
-80.02
-46.81
-13.64
16.04
40.33
58.92
72.51
81.98
87.92
90.59
90.28
87.61
83.62
79.52
76.23
74.12
73.00
72.40
71.87
71.10
69.98
68.43
66.28
63.27
59.17
53.84
47.36
39.98
32.06
23.88
15.58
7.16
-1.50
-10.47
-19.71
-28.96
-37.85
-46.00
-53.28
-59.94
-66.62
-74.27
-83.75
-95.48
-108.90
-122.20
-132.55
-136.65
-131.78
-116.82
-92.76
-62.51
-30.04
0.73
27.03
47.52
62.22
71.93
77.61
80.02
79.80
77.53
73.93
69.85
66.02
62.94
60.73
59.15
57.83
56.46
54.86
53.01
50.92
48.45
45.33
41.28
36.10
29.88
22.97
15.80
8.76
1.94
-4.94
-12.29
-20.43
-29.36
-38.66
-47.66
-55.72
-62.58
-68.45
-74.05
-80.38
-88.45
-98.81
-111.08
-123.59
-133.51
-137.48
-132.60
-117.59
-93.40
-63.01
-30.59
-0.15
25.52
45.18
59.05
67.99
72.98
74.76
73.90
70.91
66.51
61.57
56.97
53.39
51.10
49.95
49.55
49.43
49.18
48.57
47.40
45.51
42.73
38.94
34.12
28.47
22.29
15.85
9.26
2.37
-5.08
-13.25
-22.10
-31.30
-40.34
-48.72
-56.18
-62.74
-68.81
-75.17
-82.79
-92.56
-104.73
-118.36
-131.12
-139.54
-139.98
-129.99
-109.29
-80.08
-46.41
-12.85
16.80
40.38
57.40
68.48
74.64
76.80
75.70
72.05
66.64
60.50
54.61
49.78
46.43
44.59
43.93
43.90
43.91
43.48
42.31
40.28
37.47
33.97
29.86
25.16
19.81
13.79
7.08
-0.28
-8.23
-16.73
-25.66
-34.82
-43.93
-52.70
-60.94
-68.71
-76.40
-84.74
-94.62
-106.61
-120.52
-134.89
-146.92
-153.06
-150.00
-135.98
-111.50
-79.46
-44.24
-10.36
18.75
41.41
57.56
68.07
74.12
76.61
76.20
73.43
69.03
63.86
58.92
55.01
52.57
51.54
51.46
51.62
51.35
50.15
47.78
44.31
39.98
35.09
29.89
24.40
18.46
11.73
3.92
-5.03
-14.86
-25.05
-35.02
-44.32
-52.83
-60.75
-68.51
-76.72
-86.06
-97.20
-110.41
-125.19
-139.81
-151.32
-156.21
-151.42
-135.58
-109.68
-76.89
-41.56
-7.90
21.09
44.06
61.04
72.76
80.09
83.68
84.03
81.76
77.63
72.61
67.75
63.88
61.42
60.30
59.96
59.65
58.62
56.42
53.02
48.81
44.27
39.72
35.13
30.06
23.90
16.23
6.99
-3.37
-14.13
-24.58
-34.26
-43.10
-51.37
-59.53
-68.16
-77.95
-89.57
-103.45
-119.28
-135.50
-149.28
-156.92
-154.99
-141.55
-117.06
-84.36
-47.81
-11.96
19.71
45.37
64.75
78.49
87.48
92.45
93.98
92.66
89.27
84.81
80.31
76.63
74.20
72.98
72.54
72.24
71.47
69.81
67.22
63.90
60.12
56.05
51.57
46.25
39.57
31.14
20.98
9.52
-2.49
-14.26
-25.27
-35.31
-44.53
-53.32
-62.23
-71.92
-83.13
-96.42
-111.76
-128.06
-142.95
-153.04
-154.83
-145.85
-125.67
-96.20
-61.18
-25.00
8.53
36.98
59.52
76.35
88.13
95.45
98.75
98.47
95.42
90.77
85.93
82.11
80.00
79.54
80.06
80.60
80.32
78.77
75.94
72.18
67.86
63.18
58.06
52.12
44.84
35.85
25.10
13.00
0.31
-12.06
-23.39
-33.34
-42.10
-50.28
-58.79
-68.71
-80.93
-95.78
-112.53
-129.14
-142.37
-148.56
-144.68
-129.52
-104.19
-71.86
-36.85
-3.27
25.94
49.41
67.11
79.68
87.88
92.25
93.21
91.29
87.33
82.51
78.05
74.84
73.10
72.39
71.87
70.71
68.51
65.43
61.95
58.60
55.55
52.51
48.76
43.41
35.82
25.79
13.82
0.89
-11.83
-23.41
-33.55
-42.62
-51.55
-61.45
-73.27
-87.51
-103.95
-121.41
-137.67
-149.65
-154.00
-148.09
-131.00
-104.06
-70.70
-35.35
-2.15
26.16
48.62
65.56
77.83
86.11
90.68
91.72
89.75
85.83
81.39
77.74
75.52
74.54
73.94
72.76
70.46
67.11
63.33
59.83
56.91
54.18
50.65
45.15
36.76
25.34
11.59
-3.17
-17.46
-30.23
-41.16
-50.78
-60.23
-70.92
-84.04
-100.02
-118.16
-136.44
-151.60
-159.91
-158.08
-144.45
-119.67
-86.71
-50.00
-14.13
17.36
42.71
61.78
75.51
85.01
91.09
94.15
94.45
92.41
88.87
84.85
81.22
78.40
76.16
73.92
71.15
67.74
64.07
60.80
58.32
56.34
53.89
49.59
42.33
31.79
18.57
4.08
-10.10
-22.72
-33.34
-42.36
-50.92
-60.44
-72.27
-87.15
-104.73
-123.33
-139.98
-150.98
-152.81
-143.38
-122.72
-93.21
-58.83
-24.02
7.62
34.01
54.67
70.18
81.46
89.21
93.81
95.49
94.67
92.09
88.69
85.36
82.58
80.29
78.01
75.13
71.34
66.76
61.89
57.29
53.21
49.32
44.71
38.32
29.37
17.76
4.26
-9.87
-23.24
-34.93
-44.79
-53.43
-62.01
-71.93
-84.30
-99.58
-117.15
-135.04
-150.07
-158.46
-156.89
-143.71
-119.65
-87.76
-52.48
-18.21
11.94
36.61
55.98
70.88
82.12
89.98
94.43
95.48
93.58
89.70
85.10
80.86
77.54
75.03
72.71
69.86
66.04
61.33
56.31
51.63
47.64
44.04
39.96
34.23
26.00
15.11
2.26
-11.19
-23.75
-34.40
-42.96
-50.18
-57.39
-66.06
-77.36
-91.74
-108.67
-126.48
-142.35
-152.74
-154.17
-144.37
-123.13
-92.66
-57.01
-20.92
11.62
38.25
58.40
72.75
82.41
88.27
90.84
90.42
87.46
82.72
77.23
72.02
67.84
64.91
62.90
61.14
58.89
55.71
51.63
47.08
42.64
38.62
34.86
30.61
24.89
16.92
6.54
-5.65
-18.45
-30.55
-41.06
-49.78
-57.20
-64.24
-71.95
-81.24
-92.73
-106.59
-122.21
-137.90
-150.84
-157.45
-154.45
-139.96
-114.49
-80.95
-43.94
-8.28
22.28
45.89
62.54
73.36
79.84
83.15
84.04
82.96
80.36
76.81
72.98
69.51
66.79
64.93
63.74
62.89
62.04
60.90
59.26
56.89
53.58
49.16
43.56
36.87
29.34
21.22
12.66
3.66
-5.83
-15.71
-25.73
-35.40
-44.26
-52.13
-59.17
-65.94
-73.17
-81.76
-92.46
-105.69
-121.05
-136.87
-150.13
-156.91
-153.62
-138.31
-111.69
-77.12
-39.51
-3.75
26.73
50.54
67.87
79.67
86.84
89.93
89.49
86.34
81.71
76.99
73.20
70.77
69.46
68.67
67.89
66.95
65.95
65.09
64.36
63.39
61.58
58.29
53.16
46.28
38.17
29.64
21.35
13.65
6.35
-1.08
-9.26
-18.54
-28.78
-39.41
-49.64
-58.83
-66.74
-73.66
-80.40
-88.11
-97.97
-110.75
-126.10
-142.27
-155.93
-162.89
-159.38
-143.38
-115.54
-79.19
-39.36
-1.15
31.57
56.86
74.61
85.72
91.50
93.09
91.49
87.66
82.63
77.41
72.81
69.26
66.81
65.20
64.11
63.35
62.81
62.49
62.29
61.90
60.82
58.44
54.28
48.17
40.39
31.60
22.54
13.75
5.31
-3.20
-12.42
-22.81
-34.31
-46.26
-57.64
-67.56
-75.69
-82.50
-89.22
-97.45
-108.55
-122.98
-139.71
-156.02
-167.91
-171.06
-162.24
-140.47
-107.62
-67.97
-26.90
10.60
41.19
63.61
78.35
86.79
90.49
90.72
88.47
84.57
79.85
75.14
71.08
68.03
65.95
64.60
63.60
62.70
61.77
60.73
59.45
57.68
55.08
51.35
46.35
40.13
32.93
25.03
16.59
7.58
-2.16
-12.74
-24.10
-35.85
-47.43
-58.28
-68.11
-77.06
-85.75
-95.18
-106.41
-120.12
-135.99
-152.25
-165.66
-172.15
-167.97
-151.13
-122.30
-84.86
-43.86
-4.47
29.37
55.76
74.58
86.84
93.75
96.31
95.20
91.08
84.93
78.03
71.78
67.29
65.07
64.86
65.74
66.61
66.53
65.10
62.49
59.22
55.76
52.28
48.43
43.52
36.78
27.75
16.48
3.62
-9.77
-22.64
-34.29
-44.62
-54.11
-63.62
-74.11
-86.39
-100.96
-117.68
-135.59
-152.58
-165.51
-170.75
-165.24
-147.61
-118.92
-82.57
-43.39
-6.12
25.70
50.44
68.04
79.37
85.48
87.20
85.24
80.47
74.11
67.67
62.55
59.62
58.87
59.54
60.37
60.28
58.75
56.00
52.75
49.77
47.29
44.82
41.30
35.56
26.90
15.54
2.44
-10.96
-23.47
-34.48
-44.20
-53.40
-63.20
-74.68
-88.58
-105.01
-123.00
-140.39
-153.88
-159.74
-154.96
-138.35
-111.17
-76.82
-39.80
-4.37
26.44
51.21
69.79
82.67
90.47
93.75
93.22
89.90
85.17
80.49
77.01
75.17
74.61
74.42
73.61
71.55
68.28
64.38
60.58
57.22
54.05
50.17
44.50
36.26
25.44
12.71
-0.72
-13.67
-25.37
-35.80
-45.56
-55.63
-67.09
-80.76
-96.78
-114.30
-131.26
-144.52
-150.57
-146.45
-130.89
-104.84
-71.33
-34.63
0.95
32.11
57.12
75.59
88.02
95.22
97.93
96.86
92.83
86.97
80.61
75.02
71.04
68.81
67.75
66.92
65.49
63.15
60.22
57.33
54.89
52.74
49.99
45.46
38.24
28.10
15.72
2.40
-10.52
-22.11
-32.20
-41.33
-50.48
-60.83
-73.42
-88.78
-106.52
-124.97
-141.12
-151.20
-151.70
-140.59
-118.19
-87.20
-51.91
-16.80
14.62
40.51
60.51
75.18
85.27
91.31
93.69
92.90
89.80
85.57
81.47
78.45
76.83
76.29
76.03
75.18
73.23
70.22
66.61
62.96
59.56
56.12
51.92
46.00
37.73
27.07
14.68
1.73
-10.56
-21.34
-30.47
-38.51
-46.54
-55.81
-67.36
-81.68
-98.37
-115.91
-131.70
-142.45
-144.94
-137.09
-118.69
-91.68
-59.61
-26.52
4.14
30.39
51.63
68.22
80.71
89.39
94.30
95.54
93.66
89.82
85.48
81.93
79.88
79.21
79.14
78.69
77.14
74.32
70.64
66.78
63.25
60.06
56.67
52.19
45.79
37.07
26.31
14.38
2.37
-8.74
-18.50
-27.03
-35.01
-43.42
-53.35
-65.68
-80.70
-97.74
-114.90
-129.15
-136.93
-135.19
-122.42
-99.37
-68.92
-35.25
-2.53
26.19
49.43
67.09
79.81
88.23
92.71
93.47
90.93
86.09
80.41
75.43
72.22
70.97
70.97
70.97
69.84
67.07
62.95
58.33
54.05
50.48
47.25
43.37
37.74
29.63
19.09
6.85
-5.94
-18.09
-28.84
-38.04
-46.10
-53.83
-62.26
-72.36
-84.83
-99.70
-115.92
-131.18
-142.15
-145.32
-138.13
-120.04
-92.89
-60.40
-26.99
3.59
29.12
49.05
63.87
74.35
80.95
83.94
83.65
80.84
76.74
72.68
69.58
67.61
66.23
64.60
62.05
58.53
54.55
50.80
47.73
45.16
42.25
37.83
30.91
21.12
8.92
-4.50
-17.70
-29.51
-39.47
-47.96
-56.01
-64.95
-75.96
-89.61
-105.55
-122.20
-136.78
-145.83
-146.01
-135.26
-113.69
-83.74
-49.55
-15.76
13.95
37.60
54.96
66.89
74.56
78.76
80.00
78.60
75.19
70.73
66.21
62.37
59.38
56.82
54.10
50.88
47.22
43.65
40.62
38.19
35.69
31.98
25.88
16.78
4.99
-8.36
-21.69
-33.64
-43.53
-51.66
-59.14
-67.58
-78.55
-92.85
-109.99
-127.84
-142.87
-151.00
-148.80
-134.74
-109.82
-77.36
-41.87
-7.84
21.51
44.66
61.54
72.98
80.02
83.55
84.21
82.59
79.32
75.06
70.39
65.69
61.10
56.56
52.08
47.81
44.05
41.06
38.78
36.68
33.79
28.99
21.48
11.12
-1.45
-15.02
-28.21
-40.02
-50.20
-59.31
-68.65
-79.74
-93.70
-110.45
-128.28
-143.84
-152.98
-151.95
-138.87
-114.46
-81.98
-46.11
-11.52
18.40
42.10
59.58
71.62
79.14
82.81
83.13
80.75
76.50
71.37
66.20
61.44
57.09
52.93
48.71
44.47
40.44
36.86
33.72
30.51
26.33
20.22
11.63
0.67
-11.74
-24.30
-35.84
-45.69
-54.07
-61.95
-70.76
-81.95
-96.32
-113.46
-131.34
-146.48
-154.63
-152.08
-137.06
-110.50
-75.94
-38.45
-2.92
27.21
50.52
67.25
78.44
85.08
87.80
87.07
83.52
78.16
72.19
66.65
62.06
58.32
54.87
51.19
47.06
42.72
38.70
35.38
32.71
29.98
26.11
20.04
11.23
-0.08
-12.87
-25.72
-37.34
-47.11
-55.31
-62.99
-71.69
-82.82
-97.13
-114.16
-131.91
-147.00
-155.39
-153.50
-139.49
-114.05
-80.31
-42.94
-6.75
24.69
49.65
68.09
80.86
88.89
92.75
92.77
89.51
83.99
77.77
72.33
68.64
66.68
65.60
64.22
61.67
57.80
53.20
48.76
45.09
42.11
39.00
34.51
27.56
17.74
5.50
-7.94
-21.13
-32.88
-42.71
-50.92
-58.51
-66.79
-77.08
-90.24
-106.26
-123.79
-140.11
-151.41
-153.71
-144.21
-122.38
-90.33
-52.31
-13.39
22.10
51.43
73.73
89.43
99.37
104.28
104.71
101.25
94.97
87.44
80.40
75.19
72.33
71.29
70.86
69.72
67.02
62.71
57.44
52.16
47.50
43.46
39.29
33.82
26.03
15.51
2.77
-10.91
-24.03
-35.43
-44.72
-52.43
-59.80
-68.28
-79.16
-93.15
-109.95
-127.97
-144.30
-155.05
-156.30
-145.41
-121.99
-88.39
-49.02
-9.09
26.94
56.35
78.38
93.57
102.94
107.39
107.47
103.78
97.26
89.33
81.63
75.59
71.89
70.31
69.85
69.22
67.37
63.91
59.18
53.95
49.05
44.81
40.90
36.41
30.20
21.44
10.04
-3.27
-17.17
-30.29
-41.64
-51.10
-59.33
-67.66
-77.55
-90.18
-106.00
-124.22
-142.74
-158.19
-166.57
-164.33
-149.50
-122.57
-86.47
-45.83
-5.63
30.12
59.05
80.47
94.74
102.66
105.07
102.83
97.04
89.21
81.07
74.11
69.20
66.27
64.56
62.97
60.71
57.58
54.06
50.89
48.60
47.07
45.45
42.44
36.77
27.79
15.77
1.81
-12.49
-25.70
-37.03
-46.59
-55.30
-64.59
-75.95
-90.51
-108.51
-128.93
-149.16
-165.28
-172.86
-168.33
-150.26
-120.08
-81.77
-40.64
-1.68
31.66
57.91
77.06
89.83
96.98
99.11
96.94
91.54
84.38
77.06
70.85
66.34
63.35
61.16
58.90
55.96
52.25
48.20
44.39
41.21
38.52
35.50
30.97
23.87
13.82
1.36
-12.17
-25.22
-36.62
-46.07
-54.25
-62.49
-72.37
-85.15
-101.30
-120.00
-139.01
-154.82
-163.32
-160.96
-146.00
-119.21
-83.89
-44.81
-6.85
26.30
52.75
72.23
85.31
92.76
95.20
93.23
87.79
80.36
72.68
66.38
62.35
60.45
59.69
58.77
56.73
53.38
49.26
45.24
41.90
39.06
35.80
30.84
23.19
12.64
-0.10
-13.64
-26.51
-37.70
-47.11
-55.47
-64.16
-74.76
-88.46
-105.53
-124.86
-143.79
-158.49
-164.85
-159.72
-142.03
-113.28
-77.20
-38.59
-1.90
29.75
54.97
73.67
86.45
93.98
96.88
95.86
91.97
86.61
81.24
77.02
74.34
72.86
71.71
69.96
67.13
63.36
59.30
55.67
52.74
50.13
46.84
41.64
33.68
22.89
10.01
-3.63
-16.70
-28.37
-38.58
-47.98
-57.75
-69.18
-83.24
-100.14
-118.95
-137.36
-151.95
-158.86
-154.97
-138.98
-111.99
-77.26
-39.32
-2.61
29.61
55.73
75.51
89.48
98.26
102.30
102.00
98.05
91.66
84.44
77.98
73.26
70.40
68.68
67.05
64.69
61.39
57.57
53.87
50.66
47.75
44.26
39.05
31.24
20.60
7.77
-5.96
-19.10
-30.58
-40.09
-48.21
-56.20
-65.63
-77.86
-93.50
-111.96
-131.13
-147.63
-157.47
-157.12
-144.71
-120.77
-88.19
-51.30
-14.60
18.44
46.03
67.80
84.23
95.84
102.93
105.62
104.29
99.88
93.91
88.10
83.78
81.40
80.47
79.93
78.66
76.06
72.28
67.96
63.81
60.09
56.42
51.87
45.38
36.33
24.78
11.64
-1.79
-14.21
-24.86
-33.75
-41.65
-49.78
-59.43
-71.63
-86.80
-104.43
-122.77
-138.87
-149.04
-149.83
-139.14
-117.14
-86.32
-50.78
-14.94
17.65
44.99
66.50
82.42
93.13
98.91
100.07
97.29
91.88
85.53
79.95
76.22
74.50
74.11
73.95
73.02
70.89
67.73
64.08
60.39
56.66
52.34
46.53
38.43
27.77
15.02
1.29
-12.05
-23.89
-33.78
-42.05
-49.74
-58.27
-69.04
-82.86
-99.55
-117.51
-133.85
-144.81
-146.80
-137.53
-116.95
-87.29
-52.53
-17.18
14.99
41.63
61.93
76.18
85.09
89.43
89.94
87.49
83.23
78.47
74.39
71.67
70.28
69.52
68.48
66.52
63.51
59.93
56.43
53.35
50.39
46.61
40.84
32.28
20.93
7.67
-6.12
-19.07
-30.37
-40.06
-48.94
-58.33
-69.66
-83.96
-101.37
-120.67
-139.11
-152.87
-157.96
-151.56
-133.03
-104.36
-69.56
-33.37
0.17
28.61
51.23
68.47
81.06
89.55
94.21
95.34
93.60
90.04
85.89
82.05
78.85
76.00
72.89
69.04
64.45
59.57
54.95
50.85
46.92
42.23
35.71
26.67
15.18
2.14
-11.13
-23.43
-34.15
-43.50
-52.46
-62.38
-74.57
-89.73
-107.47
-125.95
-142.02
-151.80
-151.77
-140.00
-116.91
-85.27
-49.41
-13.87
17.79
43.68
63.49
77.86
87.72
93.78
96.54
96.42
94.04
90.19
85.70
81.15
76.75
72.36
67.71
62.66
57.34
52.12
47.34
42.94
38.37
32.66
24.88
14.62
2.26
-11.18
-24.30
-35.95
-45.71
-54.00
-62.07
-71.57
-83.93
-99.68
-117.88
-135.82
-149.49
-154.61
-147.96
-128.73
-98.86
-62.51
-24.70
10.17
39.34
61.88
78.13
88.92
95.02
97.04
95.65
91.80
86.70
81.51
76.96
73.17
69.65
65.72
60.95
55.40
49.55
44.06
39.24
34.85
30.16
24.17
16.14
5.89
-6.06
-18.63
-30.64
-41.18
-50.02
-57.71
-65.49
-74.92
-87.34
-103.19
-121.51
-139.72
-154.00
-160.23
-155.30
-138.20
-110.50
-76.00
-39.46
-5.19
23.97
47.02
64.28
76.63
84.78
89.10
89.85
87.54
83.19
78.14
73.61
70.26
67.96
65.93
63.30
59.56
54.89
49.97
45.62
42.11
38.97
35.01
28.83
19.52
7.11
-7.40
-22.34
-36.03
-47.37
-56.21
-63.35
-70.27
-78.69
-90.06
-105.02
-122.92
-141.58
-157.39
-166.16
-164.21
-149.75
-123.55
-88.92
-50.65
-13.60
18.67
44.49
63.87
77.74
87.04
92.37
93.98
92.16
87.62
81.54
75.31
70.11
66.53
64.39
63.01
61.47
59.06
55.57
51.22
46.55
41.98
37.53
32.68
26.58
18.41
7.85
-4.66
-18.04
-30.97
-42.37
-51.84
-59.72
-66.89
-74.42
-83.38
-94.53
-108.21
-123.94
-140.15
-154.00
-161.79
-159.94
-146.20
-120.71
-86.16
-47.13
-8.61
25.39
52.72
73.00
87.05
96.07
100.96
102.32
100.58
96.38
90.63
84.46
78.90
74.62
71.84
70.30
69.52
68.96
68.12
66.63
64.27
60.89
56.48
51.13
44.95
37.99
30.14
21.16
10.87
-0.74
-13.28
-26.08
-38.31
-49.43
-59.26
-68.03
-76.33
-84.94
-94.70
-106.44
-120.56
-136.60
-152.71
-165.55
-170.96
-165.23
-146.56
-115.96
-77.23
-35.72
3.37
36.34
61.67
79.66
91.55
98.61
101.69
101.29
97.95
92.50
86.08
79.94
75.03
71.73
69.89
68.99
68.42
67.69
66.44
64.47
61.63
57.83
53.02
47.31
40.85
33.79
26.12
17.69
8.31
-2.07
-13.25
-24.79
-36.13
-46.75
-56.41
-65.15
-73.38
-81.88
-91.70
-103.90
-119.07
-136.63
-154.39
-168.57
-174.68
-168.86
-149.41
-117.57
-77.31
-34.15
6.51
40.81
67.02
85.27
96.67
102.57
104.04
101.92
97.07
90.55
83.63
77.50
72.96
70.26
69.11
68.88
68.90
68.64
67.76
66.07
63.42
59.75
55.07
49.50
43.24
36.40
28.89
20.43
10.64
-0.61
-13.14
-26.35
-39.40
-51.56
-62.38
-71.84
-80.44
-89.14
-99.14
-111.63
-127.12
-144.82
-162.15
-174.94
-178.49
-169.17
-145.86
-110.57
-67.94
-23.79
16.66
49.98
74.86
91.72
101.76
106.30
106.46
103.17
97.39
90.24
82.91
76.50
71.73
68.80
67.41
66.95
66.64
65.88
64.34
61.90
58.63
54.65
49.99
44.58
38.28
30.91
22.36
12.58
1.67
-10.06
-22.22
-34.31
-45.90
-56.74
-66.86
-76.68
-87.01
-98.92
-113.43
-130.80
-149.95
-168.08
-180.98
-184.04
-173.87
-149.63
-113.58
-70.52
-26.31
13.86
46.70
71.14
87.78
97.92
102.84
103.43
100.48
94.90
87.92
80.94
75.15
71.19
68.98
67.90
67.05
65.69
63.44
60.33
56.72
52.99
49.33
45.50
40.92
34.80
26.52
15.93
3.51
-9.75
-22.74
-34.64
-45.20
-54.73
-63.95
-73.74
-84.93
-98.25
-114.06
-132.05
-150.74
-167.33
-177.91
-178.53
-166.52
-141.60
-106.29
-65.24
-23.77
13.65
44.36
67.63
84.02
94.53
99.92
100.75
97.62
91.59
84.26
77.33
72.23
69.47
68.65
68.72
68.52
67.29
64.88
61.74
58.46
55.43
52.52
49.07
44.08
36.66
26.43
13.77
-0.26
-14.23
-26.90
-37.67
-46.76
-55.07
-63.89
-74.53
-87.92
-104.33
-122.91
-141.52
-156.80
-164.74
-161.80
-146.19
-118.60
-82.30
-42.11
-2.98
31.31
58.84
79.35
93.53
102.24
106.17
105.83
102.02
95.97
89.31
83.63
79.99
78.51
78.42
78.48
77.55
75.07
71.28
66.97
63.02
59.78
56.86
53.19
47.46
38.75
27.00
13.06
-1.59
-15.46
-27.53
-37.67
-46.53
-55.28
-65.23
-77.48
-92.60
-110.27
-128.92
-145.74
-156.99
-158.95
-149.05
-126.93
-94.75
-56.66
-17.59
18.09
47.56
69.73
84.81
93.62
97.10
96.14
91.73
85.20
78.11
71.95
67.71
65.54
64.75
64.23
62.99
60.58
57.26
53.70
50.48
47.64
44.49
39.85
32.61
22.28
9.31
-5.02
-19.09
-31.55
-41.87
-50.53
-58.81
-68.40
-80.83
-96.85
-115.90
-135.88
-153.26
-163.84
-163.87
-151.34
-126.73
-93.02
-54.82
-16.96
16.70
44.05
64.58
78.87
87.84
92.37
93.18
91.04
86.96
82.09
77.52
73.95
71.50
69.79
68.17
66.13
63.52
60.54
57.36
53.88
49.53
43.44
34.88
23.67
10.42
-3.66
-17.25
-29.36
-39.91
-49.63
-59.92
-72.36
-88.07
-107.08
-127.92
-147.54
-161.85
-166.73
-159.35
-139.19
-108.40
-71.16
-32.45
3.40
33.64
57.39
75.04
87.59
95.91
100.64
102.28
101.43
98.83
95.29
91.40
87.44
83.41
79.21
74.92
70.77
67.07
63.91
61.03
57.70
52.98
46.01
36.40
24.40
10.85
-3.12
-16.47
-28.72
-40.07
-51.43
-64.09
-79.28
-97.46
-117.76
-137.69
-153.46
-160.89
-156.73
-139.87
-111.80
-76.28
-38.05
-1.54
30.22
55.93
75.55
89.67
98.99
104.08
105.55
104.20
101.00
96.97
92.84
88.94
85.19
81.25
76.89
72.10
67.17
62.51
58.26
54.21
49.61
43.51
35.14
24.30
11.49
-2.22
-15.61
-27.81
-38.60
-48.54
-58.75
-70.61
-85.16
-102.69
-122.15
-141.01
-155.56
-161.75
-156.52
-138.86
-110.48
-75.21
-37.89
-2.84
27.20
51.27
69.68
83.20
92.46
97.72
99.20
97.46
93.49
88.62
84.02
80.35
77.57
75.09
72.20
68.50
64.15
59.72
55.83
52.61
49.49
45.33
38.94
29.70
17.88
4.55
-8.86
-21.15
-31.82
-41.13
-50.00
-59.64
-71.20
-85.44
-102.34
-120.76
-138.28
-151.53
-156.92
-151.74
-135.17
-108.69
-75.73
-40.63
-7.32
21.54
44.97
63.18
76.96
86.93
93.44
96.59
96.66
94.34
90.69
86.91
83.89
81.94
80.68
79.36
77.18
73.72
69.11
63.87
58.64
53.77
49.08
43.84
37.20
28.47
17.59
5.17
-7.72
-19.95
-30.76
-39.97
-48.00
-55.67
-63.94
-73.66
-85.42
-99.38
-114.97
-130.70
-144.11
-152.05
-151.46
-140.41
-118.85
-88.90
-54.27
-19.22
12.67
39.28
60.04
75.41
86.20
93.04
96.26
96.13
93.21
88.44
83.05
78.17
74.51
72.17
70.73
69.55
67.99
65.76
62.78
59.14
54.96
50.26
44.98
39.05
32.35
24.81
16.37
6.99
-3.17
-13.83
-24.53
-34.82
-44.36
-53.06
-61.20
-69.33
-78.25
-88.77
-101.41
-115.89
-130.77
-143.36
-150.18
-147.97
-134.88
-111.28
-79.82
-44.63
-10.06
20.47
45.12
63.58
76.46
84.77
89.37
90.87
89.80
86.74
82.41
77.66
73.29
69.80
67.28
65.50
64.01
62.39
60.32
57.63
54.23
50.07
45.12
39.41
33.03
26.06
18.50
10.25
1.18
-8.72
-19.23
-29.91
-40.22
-49.74
-58.29
-65.97
-73.12
-80.28
-88.14
-97.51
-108.83
-121.80
-134.89
-145.32
-149.55
-144.43
-128.36
-102.11
-68.74
-32.72
1.48
30.55
52.97
68.81
79.12
85.05
87.55
87.20
84.56
80.30
75.29
70.44
66.49
63.77
62.18
61.36
60.81
60.11
58.92
57.03
54.30
50.70
46.29
41.16
35.44
29.15
22.20
14.41
5.58
-4.30
-15.00
-26.02
-36.74
-46.59
-55.35
-63.15
-70.57
-78.44
-87.76
-99.33
-113.41
-129.13
-144.27
-155.46
-158.88
-151.53
-132.41
-103.06
-67.25
-29.80
4.79
33.55
55.28
70.28
79.53
84.06
84.72
82.26
77.50
71.53
65.56
60.63
57.36
55.71
55.05
54.52
53.37
51.31
48.52
45.53
42.78
40.29
37.47
33.34
26.92
17.72
5.96
-7.33
-20.77
-33.04
-43.35
-51.65
-58.63
-65.47
-73.46
-83.75
-96.84
-112.29
-128.41
-142.28
-150.32
-149.23
-137.08
-114.13
-82.95
-47.68
-12.82
18.02
42.81
61.14
73.58
81.04
84.30
84.01
80.87
75.85
70.15
64.92
60.88
58.04
55.83
53.45
50.34
46.50
42.49
38.99
36.35
34.22
31.58
27.13
19.93
9.83
-2.39
-15.32
-27.54
-38.18
-47.29
-55.72
-64.88
-76.19
-90.59
-108.05
-127.16
-145.12
-158.07
-162.09
-154.35
-134.19
-103.47
-66.18
-27.20
8.99
39.41
62.78
79.13
89.17
93.70
93.49
89.45
82.86
75.28
68.28
62.90
59.41
57.24
55.42
53.09
49.90
46.10
42.34
39.15
36.61
34.11
30.60
24.97
16.59
5.59
-7.12
-20.15
-32.24
-42.67
-51.64
-60.16
-69.72
-81.86
-97.45
-116.12
-135.89
-153.32
-164.07
-164.17
-151.28
-125.66
-90.23
-49.79
-9.57
26.19
55.06
76.45
90.92
99.41
102.78
101.68
96.91
89.69
81.63
74.36
69.02
65.90
64.44
63.59
62.36
60.25
57.43
54.47
51.89
49.71
47.26
43.44
37.18
27.89
15.88
2.25
-11.52
-24.11
-34.86
-44.04
-52.69
-62.31
-74.39
-89.83
-108.39
-128.34
-146.48
-158.63
-160.83
-150.54
-127.64
-94.64
-55.96
-16.59
19.28
49.09
71.92
87.98
97.87
102.22
101.70
97.26
90.32
82.58
75.67
70.57
67.33
65.25
63.23
60.37
56.43
51.85
47.43
43.79
40.89
37.84
33.26
25.93
15.43
2.45
-11.48
-24.63
-35.89
-45.20
-53.47
-62.27
-73.22
-87.46
-105.15
-125.09
-144.60
-159.75
-166.23
-160.52
-141.24
-109.79
-70.13
-27.58
12.67
46.92
73.35
91.79
103.01
108.10
108.17
104.34
97.91
90.27
82.67
75.96
70.43
65.86
61.78
57.87
54.10
50.76
48.06
45.90
43.62
40.13
34.35
25.63
14.19
0.99
-12.60
-25.41
-36.95
-47.63
-58.63
-71.50
-87.60
-107.36
-129.73
-151.87
-169.48
-177.75
-172.87
-153.42
-121.08
-80.25
-36.71
4.09
38.38
64.58
82.98
94.82
101.49
104.10
103.45
100.31
95.50
89.93
84.39
79.35
74.97
71.09
67.52
64.15
60.95
57.81
54.37
49.96
43.79
35.24
24.18
11.13
-2.99
-17.13
-30.63
-43.40
-56.00
-69.50
-85.11
-103.67
-124.92
-147.03
-166.40
-178.38
-178.48
-164.08
-135.52
-96.33
-52.10
-8.75
29.12
59.16
81.19
96.28
105.77
110.70
111.70
109.41
104.74
98.84
92.92
87.78
83.63
80.10
76.64
72.88
68.84
64.75
60.76
56.61
51.57
44.69
35.23
23.10
8.96
-5.92
-20.17
-32.87
-43.95
-54.31
-65.62
-79.66
-97.58
-119.05
-141.77
-161.68
-173.87
-174.07
-160.15
-132.91
-95.97
-54.51
-13.75
22.43
52.11
74.99
91.64
102.76
108.82
110.26
107.90
103.05
97.33
92.15
88.19
85.26
82.55
79.23
74.97
70.04
65.19
61.03
57.58
54.03
49.07
41.47
30.63
16.95
1.64
-13.68
-27.67
-39.64
-49.85
-59.40
-69.87
-82.88
-99.44
-119.42
-140.99
-160.70
-173.98
-176.48
-165.44
-140.84
-105.56
-64.60
-23.43
13.52
43.81
67.03
83.98
95.80
103.22
106.55
106.07
102.48
97.09
91.52
87.21
84.78
83.90
83.48
82.34
79.73
75.64
70.75
65.86
61.46
57.39
52.83
46.73
38.25
27.18
14.04
-0.13
-14.11
-26.98
-38.38
-48.57
-58.32
-68.65
-80.62
-95.05
-112.12
-130.99
-149.48
-164.22
-171.26
-167.24
-150.52
-122.01
-85.04
-44.39
-4.91
29.82
58.01
79.47
94.93
105.17
110.75
112.07
109.70
104.70
98.53
92.73
88.40
85.96
84.99
84.63
83.97
82.41
79.76
76.17
71.91
67.09
61.73
55.69
48.80
40.89
31.85
21.62
10.21
-2.12
-14.93
-27.56
-39.37
-49.91
-59.11
-67.46
-75.80
-85.30
-96.99
-111.36
-127.80
-144.33
-157.65
-163.91
-159.85
-143.88
-116.85
-81.87
-43.40
-5.95
27.02
53.66
73.61
87.45
96.08
100.36
101.03
98.83
94.67
89.57
84.61
80.64
78.06
76.85
76.58
76.62
76.40
75.52
73.73
70.90
66.93
61.83
55.70
48.71
41.09
32.94
24.20
14.70
4.27
-7.04
-18.93
-30.87
-42.30
-52.80
-62.25
-70.88
-79.32
-88.55
-99.76
-113.76
-130.34
-147.69
-162.30
-169.83
-166.37
-150.00
-121.64
-84.81
-44.56
-5.88
27.56
54.02
73.38
86.53
94.53
98.28
98.46
95.81
91.22
85.75
80.51
76.27
73.35
71.57
70.51
69.72
68.97
68.11
67.01
65.40
62.89
59.09
53.87
47.35
39.88
31.74
22.99
13.50
3.02
-8.51
-20.79
-33.25
-45.16
-56.01
-65.58
-74.09
-82.19
-90.79
-100.99
-113.61
-128.68
-144.88
-159.32
-167.99
-166.86
-153.38
-127.58
-92.32
-52.45
-13.31
20.88
47.87
67.40
80.49
88.48
92.48
93.13
90.89
86.34
80.36
74.01
68.32
63.96
61.14
59.67
59.11
58.92
58.68
58.00
56.60
54.22
50.72
46.01
40.16
33.27
25.42
16.69
7.07
-3.38
-14.46
-25.83
-37.05
-47.70
-57.52
-66.50
-74.94
-83.46
-92.92
-104.18
-117.72
-133.02
-148.21
-160.05
-164.63
-158.59
-140.37
-111.01
-74.06
-34.48
2.77
34.11
57.93
74.40
84.73
90.30
92.16
90.97
87.27
81.77
75.40
69.24
64.18
60.72
58.86
58.15
57.96
57.68
56.86
55.26
52.75
49.29
44.83
39.38
32.96
25.65
17.47
8.43
-1.47
-12.16
-23.38
-34.73
-45.69
-55.82
-64.97
-73.35
-81.61
-90.72
-101.74
-115.42
-131.63
-148.85
-164.05
-173.19
-172.28
-158.77
-132.73
-96.98
-56.43
-16.47
18.49
46.11
66.05
79.34
87.37
91.25
91.63
89.02
84.10
77.94
71.83
66.87
63.68
62.21
61.82
61.67
61.02
59.48
57.02
53.89
50.37
46.60
42.49
37.66
31.64
24.00
14.56
3.49
-8.65
-21.08
-33.03
-44.03
-54.02
-63.38
-72.75
-82.90
-94.60
-108.37
-124.26
-141.31
-157.29
-168.79
-171.94
-163.66
-142.92
-111.36
-72.92
-32.70
4.71
36.29
61.00
79.11
91.53
98.99
101.94
100.86
96.55
90.33
83.91
78.80
75.87
74.97
75.16
75.14
73.87
70.97
66.81
62.24
57.99
54.24
50.51
45.76
38.94
29.49
17.59
4.14
-9.63
-22.53
-33.92
-43.78
-52.68
-61.61
-71.70
-83.98
-99.03
-116.61
-135.20
-151.96
-163.11
-164.88
-154.69
-132.25
-99.79
-61.50
-22.30
13.58
43.44
66.33
82.49
92.65
97.53
97.70
93.86
87.15
79.21
71.82
66.43
63.60
62.88
63.04
62.68
60.89
57.64
53.68
49.98
47.09
44.60
41.26
35.46
26.13
13.27
-1.92
-17.55
-31.87
-43.96
-53.97
-62.97
-72.47
-83.89
-98.22
-115.64
-135.22
-154.59
-170.15
-177.67
-173.57
-156.15
-126.46
-88.14
-46.27
-5.94
29.13
57.10
77.75
91.77
100.01
103.25
102.29
98.15
92.24
86.09
80.90
77.24
74.87
73.02
70.90
68.11
64.80
61.48
58.54
55.89
52.76
48.01
40.60
30.08
16.86
2.05
-12.90
-26.86
-39.36
-50.69
-61.87
-74.23
-89.05
-107.01
-127.65
-148.92
-167.33
-178.49
-178.39
-164.75
-137.98
-101.22
-59.44
-17.92
19.21
49.69
72.98
89.70
100.78
107.08
109.34
108.35
105.07
100.61
95.96
91.75
88.11
84.80
81.48
77.94
74.27
70.72
67.43
64.11
60.00
54.05
45.40
33.74
19.61
4.18
-11.21
-25.45
-38.18
-49.88
-61.81
-75.55
-92.39
-112.63
-134.96
-156.37
-172.56
-179.12
-172.85
-153.01
-121.58
-82.77
-41.64
-2.68
31.10
58.45
79.51
94.99
105.66
112.14
114.96
114.81
112.61
109.33
105.82
102.42
98.99
95.10
90.42
84.99
79.24
73.85
69.16
64.91
60.13
53.51
44.00
31.35
16.26
0.16
-15.27
-28.85
-40.28
-50.22
-60.14
-71.80
-86.69
-105.31
-126.62
-147.80
-164.69
-172.77
-168.55
-150.84
-121.29
-83.87
-43.64
-5.18
28.48
56.06
77.61
93.67
104.75
111.12
113.18
111.68
107.85
103.15
98.79
95.37
92.75
90.25
87.14
83.04
78.15
73.08
68.45
64.41
60.41
55.33
47.90
37.33
23.66
7.84
-8.59
-24.05
-37.54
-48.93
-59.04
-69.28
-81.23
-96.11
-114.19
-134.41
-154.26
-170.11
-177.93
-174.51
-158.50
-130.98
-95.27
-55.99
-17.66
16.42
44.69
67.09
84.29
96.96
105.41
109.68
109.97
107.00
102.07
96.73
92.29
89.38
87.79
86.76
85.37
82.99
79.45
75.04
70.21
65.32
60.39
55.08
48.77
40.81
30.86
19.03
5.97
-7.39
-20.10
-31.52
-41.51
-50.44
-59.06
-68.30
-79.13
-92.33
-108.17
-125.97
-143.79
-158.44
-166.17
-163.70
-149.42
-124.00
-90.32
-52.63
-15.28
18.29
46.15
67.81
83.67
94.54
101.19
104.33
104.65
102.93
100.03
96.80
93.92
91.75
90.28
89.18
88.04
86.43
84.12
80.92
76.75
71.51
65.11
57.52
48.89
39.51
29.78
20.01
10.27
0.42
-9.79
-20.53
-31.65
-42.67
-53.04
-62.33
-70.59
-78.37
-86.72
-96.86
-109.77
-125.50
-142.76
-158.74
-169.55
-171.29
-161.30
-139.25
-107.36
-69.81
-31.40
3.84
33.51
56.86
74.34
86.80
94.94
99.29
100.32
98.72
95.44
91.49
87.68
84.43
81.84
79.73
77.89
76.16
74.40
72.41
69.87
66.45
61.83
55.90
48.76
40.74
32.20
23.44
14.59
5.59
-3.74
-13.50
-23.69
-34.04
-44.16
-53.73
-62.61
-70.96
-79.35
-88.59
-99.56
-112.88
-128.24
-144.05
-157.30
-164.22
-161.31
-146.69
-120.96
-87.14
-49.74
-13.42
18.35
43.81
62.76
75.95
84.38
88.95
90.39
89.40
86.74
83.26
79.74
76.77
74.59
73.15
72.17
71.29
70.24
68.85
66.99
64.48
61.08
56.42
50.36
43.01
34.80
26.26
17.88
9.72
1.59
-6.96
-16.19
-26.09
-36.26
-46.13
-55.21
-63.34
-70.75
-78.08
-86.29
-96.42
-109.23
-124.52
-140.66
-154.52
-162.02
-159.37
-144.51
-118.00
-83.00
-44.31
-6.87
25.56
51.11
69.60
81.83
88.90
91.79
91.31
88.31
83.76
78.65
73.87
69.92
66.85
64.39
62.19
60.03
57.92
55.99
54.26
52.53
50.40
47.41
43.29
38.06
32.00
25.42
18.46
11.00
2.73
-6.65
-17.22
-28.71
-40.56
-52.00
-62.37
-71.31
-78.89
-85.76
-93.01
-101.95
-113.58
-127.96
-143.56
-157.26
-164.87
-162.42
-147.56
-120.59
-84.53
-44.25
-4.99
29.13
55.83
74.78
86.86
93.43
95.70
94.54
90.72
84.99
78.17
71.23
65.02
60.15
56.88
55.11
54.44
54.34
54.27
53.81
52.60
50.39
46.95
42.13
35.93
28.56
20.35
11.69
2.82
-6.30
-15.87
-26.11
-37.00
-48.19
-59.08
-69.12
-78.05
-86.09
-93.98
-102.86
-113.86
-127.60
-143.47
-159.22
-171.07
-174.63
-166.34
-144.87
-111.84
-71.48
-29.30
9.62
41.84
66.01
82.43
92.30
96.92
97.46
94.89
90.15
84.22
78.09
72.56
68.17
65.13
63.31
62.36
61.87
61.39
60.54
59.01
56.55
53.03
48.36
42.60
35.93
28.52
20.49
11.79
2.32
-8.02
-19.08
-30.51
-41.78
-52.37
-62.09
-71.10
-80.07
-89.99
-101.95
-116.70
-134.03
-152.29
-168.26
-177.67
-176.38
-161.87
-134.24
-96.46
-53.56
-11.10
26.44
56.45
78.38
92.93
101.28
104.44
103.14
98.15
90.56
81.90
73.83
67.69
64.03
62.45
61.88
61.04
59.06
55.84
52.02
48.49
45.87
43.98
41.87
38.11
31.42
21.31
8.36
-6.03
-20.15
-32.71
-43.29
-52.39
-61.15
-70.95
-82.96
-97.91
-115.74
-135.31
-154.08
-168.34
-173.94
-167.55
-147.89
-116.45
-77.19
-35.32
4.17
37.80
63.98
82.63
94.46
100.36
101.21
97.99
92.01
84.79
77.81
72.09
67.98
65.14
62.94
60.83
58.56
56.26
54.07
51.89
49.14
44.86
38.00
27.94
14.79
-0.54
-16.49
-31.52
-44.59
-55.52
-65.15
-75.03
-86.99
-102.49
-121.92
-144.01
-165.65
-182.28
-189.10
-182.45
-161.23
-127.41
-85.56
-41.49
-0.52
33.73
59.86
78.18
89.93
96.56
99.21
98.74
95.86
91.26
85.63
79.61
73.73
68.32
63.60
59.61
56.29
53.37
50.40
46.73
41.72
34.81
25.76
14.72
2.20
-11.10
-24.50
-37.47
-49.94
-62.43
-75.98
-91.84
-110.73
-131.99
-153.03
-169.59
-176.81
-170.89
-150.62
-117.99
-77.55
-34.98
4.69
38.29
64.69
84.33
98.32
107.68
113.11
115.00
113.80
110.10
104.74
98.63
92.62
87.27
82.79
79.04
75.58
71.82
67.18
61.13
53.30
43.58
32.11
19.28
5.69
-8.03
-21.43
-34.39
-47.30
-61.06
-76.75
-95.18
-116.19
-138.03
-157.31
-169.67
-170.92
-158.59
-132.86
-96.68
-54.86
-12.62
25.88
58.27
83.93
103.30
117.16
126.12
130.59
131.03
128.17
123.02
116.71
110.13
103.76
97.68
91.81
86.08
80.60
75.56
70.87
66.05
60.20
52.36
41.92
28.95
14.27
-0.86
-15.26
-28.30
-40.21
-52.01
-65.22
-81.19
-100.50
-122.24
-143.90
-161.57
-170.94
-168.58
-153.05
-125.51
-89.41
-49.45
-10.20
25.04
54.62
78.34
96.64
110.01
118.69
122.78
122.68
119.28
113.98
108.25
103.18
99.09
95.62
92.04
87.74
82.62
77.09
71.65
66.51
61.34
55.24
47.20
36.61
23.55
8.83
-6.29
-20.66
-33.65
-45.40
-56.76
-69.02
-83.49
-101.01
-121.41
-143.08
-162.93
-176.91
-180.99
-172.46
-151.01
-118.88
-80.26
-39.93
-1.91
31.36
59.10
81.51
99.00
111.73
119.63
122.74
121.67
117.68
112.42
107.44
103.69
101.28
99.58
97.64
94.58
90.05
84.28
77.86
71.44
65.25
59.01
52.02
43.41
32.60
19.63
5.19
-9.61
-23.61
-36.05
-46.86
-56.59
-66.23
-76.87
-89.43
-104.42
-121.68
-140.05
-157.22
-169.94
-174.63
-168.42
-150.27
-121.45
-85.37
-46.49
-9.06
24.04
51.63
73.82
91.19
104.13
112.66
116.61
116.27
112.58
107.10
101.52
97.07
94.13
92.33
90.83
88.76
85.57
81.13
75.62
69.37
62.71
55.77
48.48
40.57
31.69
21.59
10.33
-1.73
-13.99
-25.89
-37.05
-47.40
-57.13
-66.57
-76.07
-86.10
-97.29
-110.16
-124.79
-140.18
-154.02
-162.97
-163.58
-153.48
-132.41
-102.41
-67.19
-31.01
2.59
31.47
54.96
73.30
87.08
96.73
102.48
104.59
103.53
100.18
95.69
91.19
87.50
84.90
83.14
81.66
79.89
77.41
74.05
69.79
64.69
58.81
52.20
44.87
36.78
27.86
18.01
7.25
-4.26
-16.11
-27.76
-38.71
-48.65
-57.60
-65.82
-73.85
-82.38
-92.19
-103.98
-117.88
-133.07
-147.47
-157.92
-160.93
-153.85
-135.83
-108.34
-74.72
-39.19
-5.59
23.43
46.80
64.66
77.74
86.83
92.51
95.14
95.11
92.94
89.35
85.15
81.07
77.62
74.98
73.05
71.50
69.90
67.86
65.07
61.40
56.78
51.29
45.01
38.08
30.62
22.72
14.40
5.61
-3.70
-13.55
-23.87
-34.38
-44.76
-54.69
-64.02
-72.90
-81.80
-91.46
-102.72
-116.06
-131.11
-146.22
-158.50
-164.39
-160.72
-145.93
-120.70
-87.98
-52.00
-17.08
13.56
38.36
57.23
70.96
80.53
86.65
89.74
90.12
88.32
85.04
81.16
77.48
74.48
72.32
70.87
69.82
68.86
67.66
65.94
63.39
59.75
54.79
48.51
41.05
32.70
23.80
14.60
5.18
-4.53
-14.64
-25.21
-36.06
-46.82
-56.97
-66.16
-74.38
-82.17
-90.52
-100.56
-113.05
-127.74
-142.97
-155.76
-162.43
-159.67
-145.72
-121.04
-88.42
-52.09
-16.59
14.56
39.43
57.78
70.47
78.78
83.80
86.23
86.48
84.90
82.01
78.48
75.00
72.02
69.69
67.84
66.08
64.05
61.51
58.35
54.64
50.43
45.83
40.77
35.10
28.51
20.65
11.35
0.66
-10.99
-22.91
-34.35
-44.70
-53.72
-61.55
-68.69
-75.86
-83.91
-93.67
-105.76
-120.16
-135.80
-150.36
-160.48
-162.60
-154.05
-134.11
-104.43
-68.65
-31.38
3.13
32.01
54.13
69.80
80.13
86.26
89.10
89.21
87.02
83.10
78.20
73.26
69.01
65.85
63.73
62.15
60.53
58.36
55.48
51.94
48.02
43.92
39.63
34.94
29.43
22.73
14.57
4.98
-5.77
-17.17
-28.60
-39.56
-49.71
-59.07
-67.91
-76.76
-86.33
-97.38
-110.55
-125.87
-142.31
-157.50
-167.94
-169.83
-160.29
-138.60
-106.64
-68.46
-29.09
6.98
36.90
59.76
76.09
87.04
93.66
96.61
96.29
93.19
88.17
82.40
77.04
72.96
70.38
68.92
67.86
66.48
64.28
61.15
57.28
52.96
48.44
43.74
38.57
32.45
24.89
15.55
4.48
-7.88
-20.80
-33.50
-45.35
-56.08
-65.78
-74.91
-84.16
-94.45
-106.69
-121.34
-137.92
-154.58
-168.13
-174.64
-170.64
-154.44
-126.78
-90.80
-51.07
-12.23
22.18
50.30
71.79
87.23
97.41
103.00
104.58
102.77
98.54
93.12
87.87
83.78
81.25
79.99
79.25
78.18
76.21
73.23
69.49
65.40
61.22
56.92
52.16
46.36
38.94
29.49
18.03
4.97
-8.88
-22.59
-35.43
-47.10
-57.83
-68.32
-79.52
-92.45
-107.80
-125.57
-144.58
-162.21
-174.75
-178.21
-169.63
-148.18
-115.71
-76.20
-34.61
4.58
38.30
65.24
85.30
99.06
107.16
110.20
108.96
104.50
98.26
91.82
86.50
83.00
81.21
80.36
79.37
77.37
73.99
69.47
64.45
59.58
55.09
50.66
45.41
38.30
28.61
16.33
2.25
-12.23
-25.68
-37.21
-46.83
-55.44
-64.56
-75.78
-90.27
-108.32
-128.94
-149.79
-167.24
-177.08
-175.54
-160.53
-132.48
-94.51
-51.58
-9.10
28.55
58.86
81.22
96.26
105.05
108.59
107.75
103.53
97.31
90.67
85.06
81.27
79.18
77.91
76.35
73.72
69.92
65.47
61.05
57.01
53.05
48.22
41.36
31.65
19.05
4.39
-10.85
-25.20
-37.71
-48.42
-58.27
-68.83
-81.72
-98.07
-117.89
-139.68
-160.36
-175.66
-181.15
-173.53
-151.81
-117.87
-76.06
-31.96
9.22
43.82
70.32
88.91
100.74
107.13
109.14
107.64
103.50
97.72
91.35
85.22
79.75
74.85
70.26
65.75
61.38
57.39
53.87
50.52
46.50
40.72
32.37
21.26
7.96
-6.40
-20.62
-33.89
-45.99
-57.39
-69.09
-82.38
-98.45
-117.75
-139.28
-160.20
-176.13
-182.23
-174.77
-152.59
-117.70
-74.85
-29.98
11.49
46.06
72.44
91.10
103.38
110.64
113.91
113.90
111.28
106.80
101.30
95.54
89.96
84.59
79.25
73.77
68.21
62.87
58.00
53.52
48.80
42.80
34.41
22.98
8.67
-7.46
-23.87
-39.12
-52.44
-64.10
-75.43
-88.30
-104.44
-124.50
-147.31
-169.68
-186.93
-194.15
-187.73
-166.73
-133.25
-91.83
-48.02
-6.85
28.37
56.26
76.93
91.24
100.15
104.48
105.09
102.93
99.10
94.62
90.20
86.07
82.08
77.91
73.36
68.52
63.69
59.10
54.76
50.18
44.55
36.91
26.61
13.59
-1.44
-17.26
-32.50
-46.21
-58.25
-69.47
-81.40
-95.70
-113.35
-133.90
-155.11
-173.20
-183.70
-182.73
-168.30
-141.03
-104.02
-62.01
-19.93
18.25
50.29
75.54
94.37
107.53
115.66
119.21
118.79
115.30
110.06
104.48
99.68
96.06
93.35
90.78
87.57
83.36
78.35
73.11
68.11
63.35
58.13
51.35
42.01
29.71
15.01
-0.79
-16.13
-29.85
-41.60
-51.96
-62.16
-73.70
-87.85
-105.19
-125.12
-145.64
-163.36
-174.15
-174.21
-161.33
-135.77
-100.32
-59.50
-18.15
19.81
52.10
78.03
97.85
112.05
121.01
125.03
124.72
121.20
116.08
111.00
107.13
104.75
103.27
101.63
98.87
94.59
89.04
82.86
76.68
70.65
64.38
57.10
47.98
36.56
23.01
8.11
-7.01
-21.18
-33.70
-44.45
-54.07
-63.71
-74.75
-88.43
-105.25
-124.62
-144.49
-161.55
-171.79
-171.59
-158.87
-133.87
-99.23
-59.22
-18.57
18.79
50.48
75.73
94.88
108.68
117.77
122.55
123.36
120.76
115.77
109.75
104.06
99.64
96.72
94.76
92.82
89.98
85.80
80.37
74.25
68.00
61.89
55.66
48.70
40.34
30.13
18.14
4.92
-8.60
-21.52
-33.14
-43.26
-52.17
-60.56
-69.37
-79.64
-92.27
-107.71
-125.52
-144.07
-160.46
-170.88
-171.64
-160.29
-136.67
-103.16
-64.06
-24.35
11.79
41.87
65.26
82.58
94.86
102.90
107.05
107.60
105.11
100.60
95.41
90.77
87.40
85.34
84.07
82.85
81.01
78.19
74.33
69.61
64.27
58.57
52.56
46.18
39.12
31.03
21.59
10.77
-1.17
-13.68
-26.12
-37.94
-48.85
-58.88
-68.37
-77.95
-88.47
-100.69
-115.01
-130.88
-146.48
-158.78
-164.12
-159.32
-142.87
-115.56
-80.49
-42.09
-4.95
27.42
53.15
71.96
84.57
92.05
95.41
95.46
92.92
88.56
83.34
78.21
73.92
70.86
68.93
67.70
66.54
64.91
62.47
59.17
55.20
50.81
46.19
41.27
35.76
29.21
21.23
11.66
0.69
-11.13
-23.13
-34.62
-45.23
-54.85
-63.70
-72.20
-80.93
-90.62
-101.96
-115.25
-129.86
-143.85
-154.01
-156.58
-148.54
-128.79
-98.89
-62.68
-25.13
9.26
37.58
58.88
73.79
83.56
89.35
91.85
91.42
88.47
83.71
78.24
73.21
69.50
67.38
66.48
66.02
65.10
63.09
59.82
55.50
50.58
45.46
40.26
34.78
28.59
21.19
12.28
1.91
-9.49
-21.19
-32.42
-42.62
-51.57
-59.43
-66.69
-74.06
-82.33
-92.28
-104.33
-118.21
-132.45
-144.38
-150.47
-147.37
-133.04
-107.69
-73.98
-36.31
0.50
32.53
57.55
75.15
86.06
91.43
92.30
89.49
83.84
76.43
68.63
61.83
56.99
54.29
53.12
52.36
50.96
48.34
44.66
40.55
36.79
33.75
31.21
28.29
23.86
16.98
7.36
-4.52
-17.54
-30.32
-41.77
-51.40
-59.48
-66.84
-74.70
-84.26
-96.34
-110.94
-126.87
-141.60
-151.54
-152.91
-143.01
-121.27
-89.72
-52.43
-14.38
19.99
47.76
67.77
80.21
85.99
86.20
81.95
74.45
65.11
55.56
47.31
41.37
37.99
36.59
36.01
35.12
33.26
30.50
27.48
24.90
22.97
21.10
18.09
12.57
3.75
-8.17
-22.03
-36.19
-49.17
-60.21
-69.50
-77.99
-87.08
-98.14
-111.99
-128.49
-146.08
-161.76
-171.62
-171.77
-159.70
-135.27
-101.01
-61.42
-21.67
13.89
42.64
63.78
77.83
85.82
88.78
87.64
83.33
77.03
70.07
63.65
58.44
54.48
51.22
47.99
44.40
40.51
36.68
33.20
29.93
26.19
20.97
13.35
2.96
-9.74
-23.69
-37.53
-50.13
-61.02
-70.57
-79.92
-90.64
-104.21
-121.23
-140.85
-160.41
-175.79
-182.49
-176.93
-157.84
-126.77
-87.79
-46.14
-6.80
26.82
53.26
72.64
85.94
94.23
98.36
99.04
97.03
93.30
88.85
84.53
80.63
76.99
73.14
68.77
63.91
58.93
54.21
49.73
44.87
38.61
30.06
18.90
5.69
-8.42
-22.11
-34.49
-45.49
-55.83
-66.84
-80.01
-96.47
-116.32
-138.10
-158.62
-173.45
-178.05
-169.22
-146.33
-111.80
-70.31
-27.35
12.33
45.79
72.07
91.58
105.25
113.97
118.39
119.20
117.24
113.56
109.14
104.58
100.06
95.40
90.41
85.17
80.04
75.45
71.46
67.56
62.67
55.59
45.56
32.60
17.56
1.80
-13.42
-27.34
-39.93
-51.93
-64.56
-79.19
-96.84
-117.67
-140.43
-162.21
-178.75
-185.53
-179.14
-158.59
-125.82
-85.22
-42.14
-1.42
33.77
62.19
83.93
99.69
110.10
115.64
116.81
114.48
109.94
104.66
99.83
95.96
92.77
89.55
85.59
80.69
75.26
69.98
65.39
61.30
56.79
50.55
41.46
29.23
14.54
-1.15
-16.27
-29.78
-41.54
-52.39
-63.83
-77.50
-94.51
-114.83
-136.86
-157.41
-172.29
-177.25
-169.40
-148.08
-115.25
-74.95
-32.07
8.92
44.95
74.63
97.85
115.10
126.93
133.68
135.68
133.58
128.51
122.00
115.62
110.51
106.98
104.52
102.19
99.04
94.57
88.95
82.77
76.69
70.95
65.21
58.58
50.04
38.95
25.43
10.38
-4.89
-19.14
-31.68
-42.52
-52.26
-61.83
-72.24
-84.39
-99.00
-116.18
-135.11
-153.63
-168.30
-175.09
-170.59
-153.15
-123.70
-85.57
-43.47
-2.13
34.89
65.72
89.95
108.03
120.58
128.05
130.83
129.49
125.09
119.07
113.00
108.06
104.77
102.87
101.55
99.96
97.46
93.84
89.16
83.65
77.39
70.33
62.33
53.24
43.02
31.79
19.76
7.23
-5.50
-18.17
-30.50
-42.28
-53.39
-63.87
-74.00
-84.38
-95.90
-109.44
-125.28
-142.61
-159.14
-171.37
-175.42
-168.31
-148.98
-118.82
-81.35
-41.12
-2.43
31.57
59.30
80.54
95.79
105.87
111.54
113.53
112.63
109.73
105.84
101.88
98.54
96.09
94.39
93.00
91.36
89.03
85.82
81.72
76.88
71.37
65.13
58.01
49.84
40.55
30.20
19.01
7.19
-5.02
-17.35
-29.57
-41.34
-52.36
-62.46
-71.71
-80.50
-89.62
-100.03
-112.53
-127.19
-142.91
-157.19
-166.43
-166.94
-156.10
-133.45
-101.07
-62.97
-23.95
11.83
41.75
64.95
81.80
93.26
100.21
103.36
103.32
100.84
96.89
92.45
88.34
84.95
82.29
80.11
78.16
76.34
74.59
72.85
70.83
68.04
63.94
58.17
50.77
42.22
33.20
24.36
15.97
7.87
-0.41
-9.39
-19.35
-30.13
-41.22
-51.91
-61.65
-70.22
-77.85
-85.23
-93.42
-103.53
-116.28
-131.37
-147.04
-160.06
-166.47
-162.71
-147.02
-120.09
-85.11
-46.69
-9.57
22.66
48.13
66.58
78.79
85.94
89.11
89.22
87.05
83.39
79.07
74.90
71.49
69.04
67.43
66.25
65.09
63.74
62.18
60.49
58.63
56.27
52.92
48.11
41.68
33.89
25.33
16.62
8.09
-0.30
-8.94
-18.26
-28.48
-39.39
-50.36
-60.63
-69.63
-77.23
-83.94
-90.82
-99.21
-110.19
-124.03
-139.57
-154.19
-164.19
-165.76
-156.20
-134.87
-103.61
-66.25
-27.51
8.19
37.86
60.17
75.30
84.25
88.28
88.56
86.06
81.67
76.25
70.66
65.64
61.63
58.76
56.84
55.55
54.55
53.60
52.50
51.07
49.01
45.95
41.59
35.82
28.85
21.10
12.99
4.72
-3.78
-12.83
-22.67
-33.20
-44.01
-54.47
-64.05
-72.59
-80.36
-88.04
-96.52
-106.75
-119.26
-133.83
-148.93
-161.71
-168.37
-165.26
-150.12
-123.18
-87.27
-47.05
-7.64
26.79
53.93
73.30
85.70
92.43
94.72
93.56
89.80
84.30
77.99
71.85
66.67
62.90
60.62
59.52
59.02
58.53
57.49
55.58
52.67
48.77
43.94
38.27
31.84
24.67
16.80
8.18
-1.31
-11.79
-23.26
-35.46
-47.82
-59.58
-70.13
-79.30
-87.44
-95.51
-104.71
-116.20
-130.47
-146.81
-163.12
-175.94
-181.27
-175.60
-157.27
-127.14
-88.56
-46.45
-5.87
29.34
57.15
77.33
90.73
98.48
101.57
100.69
96.57
90.17
82.75
75.67
70.05
66.41
64.61
64.05
63.95
63.62
62.65
60.86
58.28
54.96
50.89
45.96
39.94
32.55
23.56
12.88
0.79
-12.19
-25.27
-37.77
-49.27
-59.75
-69.48
-78.99
-88.91
-100.03
-113.09
-128.50
-145.68
-162.57
-175.60
-180.46
-173.53
-153.26
-121.00
-80.67
-37.51
3.52
38.97
67.24
88.31
102.85
111.68
115.49
114.98
111.11
105.14
98.57
92.77
88.62
86.26
85.13
84.21
82.51
79.50
75.21
70.21
65.12
60.36
55.70
50.41
43.46
34.02
21.90
7.77
-7.06
-21.15
-33.47
-43.84
-53.01
-62.24
-72.98
-86.31
-102.70
-121.70
-141.78
-160.21
-173.33
-177.29
-169.14
-147.94
-115.31
-75.14
-32.44
7.98
42.72
70.10
89.93
102.84
109.65
111.22
108.47
102.66
95.31
88.03
82.09
78.04
75.68
74.17
72.53
70.09
66.73
62.85
58.97
55.25
51.23
45.93
38.24
27.52
13.95
-1.44
-17.09
-31.62
-44.25
-55.16
-65.36
-76.35
-89.66
-106.31
-126.28
-148.05
-168.53
-183.42
-188.26
-179.73
-156.89
-121.75
-78.73
-33.45
8.88
44.70
72.55
92.58
105.76
113.18
115.67
114.03
109.27
102.67
95.58
89.05
83.52
78.79
74.41
70.04
65.65
61.51
57.82
54.39
50.52
45.15
37.36
26.74
13.62
-0.98
-15.76
-29.59
-41.97
-53.22
-64.43
-77.17
-92.96
-112.49
-134.86
-157.30
-175.39
-184.13
-179.56
-160.17
-127.69
-86.60
-42.70
-1.37
33.85
61.62
82.38
97.30
107.49
113.62
116.01
115.04
111.37
105.96
99.83
93.76
88.13
83.01
78.35
74.12
70.32
66.83
63.21
58.66
52.23
43.16
31.34
17.34
2.31
-12.56
-26.54
-39.59
-52.43
-66.28
-82.36
-101.41
-123.09
-145.51
-165.32
-178.25
-180.28
-168.95
-144.31
-109.11
-67.95
-25.93
12.72
45.48
71.53
91.25
105.38
114.59
119.34
120.06
117.39
112.22
105.58
98.39
91.31
84.58
78.29
72.43
67.06
62.15
57.53
52.65
46.74
38.95
28.73
16.14
1.86
-13.02
-27.40
-40.62
-52.69
-64.43
-77.17
-92.29
-110.52
-131.23
-152.07
-169.15
-177.95
-174.76
-157.96
-128.74
-90.81
-49.23
-8.85
26.89
56.51
79.99
98.06
111.32
120.00
124.15
124.06
120.55
114.95
108.71
102.87
97.68
92.78
87.50
81.46
74.85
68.28
62.38
57.23
52.16
45.91
37.29
25.74
11.66
-3.65
-18.63
-32.08
-43.64
-53.83
-63.83
-75.08
-88.71
-105.20
-123.93
-142.97
-159.14
-168.52
-167.52
-154.11
-128.60
-93.80
-54.16
-14.35
21.98
52.98
78.37
98.68
114.47
125.83
132.52
134.43
132.07
126.71
120.06
113.77
108.80
105.22
102.38
99.31
95.25
89.99
83.88
77.46
71.17
64.98
58.38
50.61
40.99
29.19
15.51
0.75
-14.05
-27.88
-40.15
-50.84
-60.44
-69.79
-79.87
-91.60
-105.64
-122.05
-139.92
-157.11
-170.33
-175.77
-170.23
-152.28
-122.97
-85.65
-45.05
-5.84
28.57
56.54
78.03
93.82
104.80
111.58
114.49
113.90
110.55
105.59
100.30
95.82
92.72
90.88
89.70
88.37
86.26
83.05
78.77
73.63
67.87
61.59
54.75
47.20
38.73
29.16
18.49
6.86
-5.41
-17.86
-30.10
-41.81
-52.83
-63.23
-73.29
-83.54
-94.65
-107.29
-121.74
-137.45
-152.66
-164.54
-169.66
-165.00
-149.03
-122.34
-87.68
-49.20
-11.29
22.55
50.34
71.61
86.88
96.99
102.69
104.53
103.09
99.20
93.97
88.66
84.29
81.37
79.76
78.88
77.96
76.35
73.73
70.05
65.48
60.25
54.53
48.39
41.80
34.64
26.73
17.88
7.97
-2.99
-14.76
-26.92
-38.95
-50.37
-60.90
-70.57
-79.73
-89.11
-99.58
-111.90
-126.20
-141.48
-155.38
-164.49
-165.21
-154.90
-133.04
-101.52
-64.28
-26.05
8.97
38.11
60.43
76.40
87.03
93.30
95.86
95.19
91.84
86.63
80.68
75.08
70.64
67.61
65.70
64.26
62.57
60.17
56.92
53.02
48.77
44.42
40.01
35.31
29.88
23.19
14.84
4.77
-6.67
-18.75
-30.58
-41.42
-50.91
-59.20
-66.87
-74.74
-83.66
-94.34
-107.10
-121.55
-136.26
-148.65
-155.36
-153.17
-140.06
-116.12
-83.73
-46.94
-10.27
22.54
49.26
69.26
82.97
91.29
95.02
94.79
91.24
85.17
77.74
70.24
63.87
59.33
56.70
55.50
54.89
54.04
52.36
49.58
45.77
41.22
36.23
30.97
25.39
19.15
11.86
3.16
-6.98
-18.24
-29.95
-41.33
-51.78
-61.03
-69.26
-76.98
-85.00
-94.17
-105.16
-118.18
-132.44
-146.00
-155.83
-158.45
-151.01
-132.33
-103.52
-67.84
-29.72
6.40
37.23
61.13
77.96
88.54
93.98
95.27
93.22
88.58
82.24
75.25
68.70
63.46
59.97
58.09
57.21
56.53
55.33
53.23
50.29
46.82
43.15
39.36
35.18
30.05
23.32
14.57
3.82
-8.38
-21.16
-33.57
-44.91
-54.89
-63.71
-71.91
-80.32
-89.86
-101.28
-114.88
-130.04
-144.90
-156.47
-161.13
-155.63
-138.27
-109.65
-72.73
-32.07
7.42
41.81
68.79
87.81
99.53
105.12
105.75
102.44
96.17
88.09
79.53
71.81
65.88
62.03
59.83
58.39
56.78
54.35
51.06
47.31
43.63
40.34
37.22
33.56
28.34
20.75
10.53
-1.84
-15.26
-28.35
-39.99
-49.69
-57.74
-65.11
-73.16
-83.18
-96.05
-111.79
-129.27
-146.11
-158.90
-163.90
-158.05
-140.02
-110.82
-73.76
-33.48
5.25
38.73
64.87
83.19
94.21
98.89
98.28
93.54
86.00
77.25
68.81
61.81
56.64
52.94
49.85
46.61
42.83
38.78
35.09
32.27
30.28
28.36
25.21
19.49
10.48
-1.60
-15.59
-29.79
-42.69
-53.51
-62.57
-71.08
-80.78
-93.27
-109.46
-129.02
-150.03
-169.08
-181.79
-183.94
-172.70
-147.69
-111.31
-68.19
-23.87
16.69
50.13
75.05
91.65
101.00
104.45
103.28
98.71
91.97
84.32
76.85
70.35
65.14
61.09
57.79
54.81
51.89
48.87
45.65
41.87
36.99
30.30
21.32
10.00
-3.11
-17.01
-30.63
-43.18
-54.58
-65.47
-77.18
-91.22
-108.63
-129.19
-150.88
-169.84
-181.16
-180.32
-164.73
-134.81
-94.03
-47.94
-2.57
37.24
68.69
91.14
105.48
113.27
116.07
115.12
111.39
105.68
98.82
91.58
84.67
78.59
73.54
69.53
66.34
63.67
61.05
57.91
53.59
47.41
38.92
28.09
15.32
1.39
-12.81
-26.61
-39.84
-52.97
-67.09
-83.55
-103.26
-125.98
-149.62
-170.23
-182.79
-182.67
-167.25
-137.00
-95.56
-48.70
-2.49
38.21
70.72
94.51
110.41
119.80
123.92
123.76
120.19
114.12
106.65
98.84
91.51
85.14
79.82
75.38
71.56
67.96
64.09
59.30
52.91
44.41
33.68
21.09
7.39
-6.55
-20.08
-32.96
-45.46
-58.32
-72.61
-89.36
-109.02
-130.82
-152.24
-169.20
-176.84
-171.10
-150.24
-115.70
-71.88
-24.88
19.27
56.22
83.96
102.55
113.40
118.23
118.62
115.78
110.73
104.41
97.69
91.26
85.48
80.37
75.77
71.55
67.68
64.19
60.95
57.48
53.01
46.61
37.63
25.98
12.18
-2.77
-17.73
-31.83
-44.78
-57.00
-69.56
-83.80
-100.78
-120.48
-141.18
-159.48
-170.85
-170.92
-157.06
-129.37
-90.92
-46.80
-2.65
36.89
69.09
93.13
109.49
119.12
122.94
121.78
116.62
108.81
100.00
91.77
85.18
80.45
77.02
73.99
70.65
66.81
62.81
59.09
55.76
52.23
47.39
40.04
29.46
15.87
0.34
-15.53
-30.22
-42.95
-53.84
-63.85
-74.50
-87.31
-103.23
-122.13
-142.37
-160.76
-173.13
-175.35
-164.65
-140.67
-105.71
-64.21
-21.37
18.24
51.61
77.50
96.01
107.79
113.56
114.05
110.28
103.67
96.08
89.31
84.60
82.18
81.30
80.64
78.96
75.72
71.12
65.99
61.17
56.98
52.98
48.10
41.08
31.07
18.12
3.18
-12.16
-26.30
-38.26
-48.08
-56.75
-65.88
-77.12
-91.54
-109.17
-128.63
-147.18
-161.04
-166.26
-159.80
-140.61
-110.10
-71.90
-30.82
8.43
42.40
69.38
89.11
102.19
109.46
111.68
109.64
104.41
97.40
90.23
84.30
80.34
78.25
77.16
75.92
73.62
69.95
65.33
60.49
56.04
51.99
47.64
41.81
33.48
22.25
8.68
-5.92
-19.98
-32.27
-42.43
-50.96
-59.07
-68.22
-79.75
-94.42
-111.97
-130.88
-148.25
-160.23
-162.97
-153.75
-132.00
-99.69
-60.87
-20.49
16.96
48.50
72.89
90.28
101.44
107.14
107.99
104.63
98.00
89.56
81.05
74.03
69.41
67.18
66.51
66.19
65.18
62.91
59.50
55.49
51.43
47.56
43.53
38.55
31.67
22.25
10.37
-3.15
-16.97
-29.75
-40.66
-49.64
-57.46
-65.37
-74.76
-86.79
-101.93
-119.68
-138.22
-154.47
-164.51
-164.64
-152.47
-127.98
-93.65
-53.88
-13.67
22.73
52.71
75.39
91.13
100.79
105.25
105.24
101.60
95.43
88.17
81.29
76.01
72.77
71.26
70.54
69.46
67.16
63.36
58.42
53.08
48.02
43.48
39.03
33.76
26.61
16.96
4.89
-8.75
-22.66
-35.52
-46.58
-55.79
-63.83
-71.86
-81.13
-92.63
-106.79
-123.08
-139.85
-154.24
-162.60
-161.46
-148.55
-123.81
-89.66
-50.42
-11.09
23.99
52.16
72.67
86.10
93.67
96.51
95.48
91.25
84.68
76.91
69.29
63.07
58.88
56.60
55.43
54.28
52.26
49.08
45.02
40.75
36.81
33.25
29.49
24.59
17.61
8.11
-3.55
-16.39
-29.06
-40.41
-49.93
-57.88
-65.16
-73.04
-82.70
-94.98
-109.97
-126.73
-143.14
-156.02
-161.77
-157.27
-141.09
-114.04
-79.14
-40.78
-3.40
29.55
56.17
75.99
89.31
96.76
98.99
96.76
91.13
83.55
75.64
68.79
63.79
60.62
58.59
56.70
54.18
50.73
46.65
42.60
39.13
36.26
33.31
29.18
22.73
13.38
1.42
-12.06
-25.56
-37.79
-48.15
-56.84
-64.74
-73.03
-82.85
-94.96
-109.46
-125.44
-140.79
-152.32
-156.39
-149.97
-131.78
-102.90
-66.71
-27.81
9.20
40.91
65.59
82.96
93.65
98.51
98.44
94.40
87.57
79.47
71.64
65.33
61.05
58.49
56.82
55.07
52.65
49.59
46.34
43.39
40.89
38.39
34.96
29.59
21.61
11.00
-1.48
-14.58
-27.00
-37.82
-46.89
-54.88
-63.09
-73.00
-85.82
-101.81
-119.97
-137.86
-151.92
-158.21
-153.56
-136.56
-108.25
-71.96
-32.40
5.60
38.31
63.64
81.11
91.30
95.22
93.98
88.77
80.94
72.00
63.41
56.27
51.03
47.48
44.97
42.82
40.59
38.30
36.16
34.26
32.29
29.47
24.79
17.43
7.17
-5.43
-19.20
-32.82
-45.30
-56.39
-66.70
-77.46
-90.16
-105.85
-124.53
-144.64
-162.95
-175.13
-176.92
-165.59
-140.93
-105.59
-64.38
-22.84
14.27
43.96
65.25
78.62
85.26
86.48
83.42
77.18
68.97
60.01
51.47
44.13
38.23
33.54
29.58
25.84
22.04
18.05
13.72
8.79
2.86
-4.48
-13.41
-23.72
-34.83
-46.04
-56.73
-66.70
-76.28
-86.38
-98.26
-113.13
-131.39
-152.09
-172.49
-188.39
-195.19
-189.22
-169.17
-136.61
-95.63
-51.60
-9.63
26.57
55.20
76.09
89.98
97.89
100.80
99.59
95.22
88.80
81.53
74.51
68.57
64.14
61.33
59.98
59.84
60.50
61.43
61.89
60.97
57.84
51.98
43.42
32.75
21.00
9.25
-1.76
-12.02
-22.36
-34.25
-49.17
-67.83
-89.44
-111.39
-129.61
-139.47
-137.28
-121.39
-92.93
-55.55
-14.34
25.65
60.68
88.90
110.16
125.23
135.04
140.23
141.15
138.22
132.16
124.05
115.10
106.31
98.24
91.04
84.68
79.06
74.06
69.43
64.68
59.11
52.02
42.96
31.91
19.32
5.91
-7.58
-20.71
-33.52
-46.60
-60.92
-77.55
-97.03
-118.74
-140.40
-158.26
-167.81
-165.19
-148.53
-118.71
-79.31
-35.40
7.87
46.61
78.75
103.93
122.75
136.15
144.92
149.73
151.23
150.18
147.36
143.46
138.87
133.58
127.43
120.29
112.31
103.88
95.50
87.39
79.31
70.62
60.50
48.41
34.43
19.32
4.25
-9.61
-21.56
-31.75
-41.12
-51.23
-63.64
-79.23
-97.46
-116.00
-130.99
-138.07
-133.75
-116.71
-88.39
-52.60
-14.25
22.10
53.36
78.15
96.40
108.66
115.57
117.69
115.71
110.69
104.07
97.47
92.12
88.61
86.62
85.26
83.49
80.59
76.46
71.52
66.39
61.36
56.16
49.98
41.84
31.09
17.89
3.18
-11.61
-25.16
-36.79
-46.74
-56.09
-66.35
-78.96
-94.83
-113.90
-134.81
-154.92
-170.54
-177.68
-173.22
-155.94
-127.08
-90.20
-50.04
-11.24
22.89
50.83
72.57
88.83
100.31
107.35
110.03
108.63
104.03
97.73
91.51
86.82
84.23
83.24
82.68
81.24
78.15
73.43
67.76
61.97
56.57
51.40
45.78
38.76
29.70
18.46
5.62
-7.82
-20.80
-32.56
-42.92
-52.29
-61.52
-71.63
-83.63
-98.16
-115.27
-134.05
-152.34
-166.92
-174.06
-170.56
-154.91
-127.89
-92.59
-53.49
-15.14
18.92
46.82
68.19
83.56
93.70
99.25
100.74
98.78
94.31
88.59
82.90
78.21
74.82
72.36
70.02
66.98
62.81
57.57
51.78
46.08
40.84
36.04
31.14
25.41
18.14
8.95
-2.02
-14.17
-26.62
-38.51
-49.28
-58.80
-67.43
-75.84
-84.80
-95.04
-107.07
-120.87
-135.59
-149.30
-159.09
-161.64
-154.22
-135.74
-107.40
-72.43
-35.26
-0.14
29.97
53.81
71.52
83.96
91.95
95.96
96.28
93.36
88.08
81.69
75.52
70.55
67.13
64.95
63.35
61.57
59.15
55.89
51.89
47.36
42.45
37.21
31.54
25.24
18.04
9.74
0.36
-9.84
-20.39
-30.76
-40.54
-49.48
-57.59
-65.05
-72.23
-79.69
-88.20
-98.55
-111.06
-125.03
-138.43
-147.97
-150.00
-141.67
-122.08
-92.85
-57.68
-21.28
12.05
39.46
59.91
73.79
82.23
86.39
87.15
85.12
80.92
75.29
69.15
63.39
58.68
55.26
52.95
51.36
50.00
48.52
46.69
44.43
41.69
38.33
34.17
29.01
22.69
15.33
7.12
-1.64
-10.72
-20.02
-29.58
-39.34
-49.11
-58.49
-66.99
-74.34
-80.69
-86.78
-93.84
-103.06
-114.94
-128.67
-141.83
-150.72
-151.51
-141.47
-120.08
-89.43
-53.53
-17.09
15.87
42.91
63.27
77.36
86.03
90.10
90.17
86.93
81.27
74.34
67.42
61.54
57.30
54.74
53.50
52.96
52.41
51.26
49.13
45.87
41.58
36.50
30.93
25.05
18.85
12.10
4.47
-4.27
-14.16
-24.90
-35.97
-46.79
-56.86
-65.98
-74.27
-82.13
-90.26
-99.44
-110.32
-122.95
-136.28
-147.93
-154.57
-152.69
-139.94
-116.05
-83.22
-45.46
-7.46
26.71
54.52
75.09
88.77
96.46
99.15
97.71
93.00
86.01
77.90
69.91
63.10
58.03
54.76
52.84
51.60
50.36
48.60
46.06
42.73
38.73
34.30
29.55
24.34
18.34
11.04
2.06
-8.57
-20.32
-32.24
-43.36
-53.04
-61.26
-68.62
-76.06
-84.68
-95.35
-108.56
-124.01
-140.38
-155.07
-164.58
-165.27
-154.51
-131.79
-98.98
-60.00
-19.63
17.86
49.56
74.20
91.72
102.60
107.43
106.88
101.78
93.42
83.52
73.97
66.31
61.31
58.80
57.82
57.12
55.64
52.88
49.04
44.71
40.49
36.59
32.63
27.76
21.02
11.77
0.06
-13.37
-27.30
-40.53
-52.27
-62.47
-71.70
-81.04
-91.68
-104.65
-120.47
-138.70
-157.58
-173.96
-183.84
-183.34
-170.05
-143.95
-107.64
-65.65
-23.06
15.74
47.96
72.39
89.05
98.57
101.78
99.72
93.70
85.38
76.51
68.67
62.75
58.84
56.27
53.99
51.16
47.49
43.36
39.50
36.38
33.81
30.80
25.95
18.08
6.84
-7.00
-21.88
-36.09
-48.47
-58.83
-68.01
-77.50
-88.97
-103.71
-122.08
-143.07
-164.05
-181.04
-189.53
-185.71
-167.80
-136.78
-96.16
-51.13
-7.01
31.99
63.44
86.64
102.03
110.62
113.50
111.85
106.86
99.90
92.30
85.21
79.33
74.74
71.08
67.77
64.39
60.81
57.12
53.37
49.25
44.03
36.87
27.18
14.99
1.08
-13.34
-27.12
-39.66
-51.19
-62.72
-75.75
-91.69
-111.24
-133.65
-156.48
-175.70
-186.56
-184.91
-168.65
-138.57
-98.20
-52.85
-8.03
31.95
64.62
89.38
106.79
117.92
123.79
125.25
123.12
118.28
111.71
104.35
96.95
89.96
83.51
77.59
72.19
67.29
62.79
58.41
53.59
47.50
39.37
28.73
15.69
1.04
-14.07
-28.44
-41.35
-52.91
-64.12
-76.56
-91.83
-110.66
-132.19
-153.61
-170.57
-178.25
-172.81
-152.84
-119.89
-78.09
-32.93
10.34
47.96
78.13
100.75
116.59
126.68
131.83
132.72
130.15
125.18
119.00
112.68
106.88
101.68
96.77
91.77
86.53
81.22
76.12
71.30
66.28
60.16
51.84
40.63
26.60
10.68
-5.68
-20.98
-34.31
-45.69
-56.05
-67.05
-80.44
-97.44
-117.95
-140.08
-160.13
-173.27
-174.91
-162.30
-135.60
-98.01
-54.74
-11.37
27.73
60.24
85.68
104.63
117.77
125.54
128.18
126.21
120.73
113.38
105.87
99.39
94.30
90.16
86.16
81.60
76.32
70.66
65.27
60.55
56.32
51.74
45.57
36.71
24.77
10.29
-5.33
-20.43
-33.73
-44.86
-54.46
-63.95
-74.98
-88.89
-106.19
-126.17
-146.71
-164.45
-175.29
-175.49
-162.80
-137.40
-101.98
-61.08
-19.68
18.11
49.96
75.25
94.48
108.37
117.43
121.84
121.88
118.33
112.56
106.28
100.98
97.41
95.41
94.14
92.49
89.67
85.47
80.22
74.52
68.82
63.20
57.26
50.31
41.64
30.85
18.08
4.03
-10.18
-23.45
-35.06
-44.97
-53.82
-62.73
-72.96
-85.53
-100.97
-118.95
-138.04
-155.63
-168.15
-171.84
-163.82
-143.20
-111.54
-72.69
-31.60
7.11
40.24
66.52
86.19
100.18
109.43
114.55
115.96
114.21
110.26
105.36
100.69
97.01
94.50
92.78
91.36
89.82
87.98
85.81
83.16
79.73
75.05
68.80
60.91
51.72
41.77
31.59
21.49
11.37
0.96
-10.04
-21.67
-33.62
-45.32
-56.14
-65.69
-74.00
-81.68
-89.81
-99.75
-112.49
-128.13
-145.33
-161.14
-171.63
-172.87
-162.25
-139.43
-106.64
-67.94
-28.13
8.64
39.65
63.82
81.27
92.84
99.46
102.02
101.40
98.52
94.41
90.08
86.33
83.55
81.74
80.59
79.70
78.79
77.73
76.46
74.83
72.48
68.83
63.37
55.85
46.54
36.15
25.60
15.62
6.39
-2.41
-11.40
-21.09
-31.59
-42.49
-53.04
-62.54
-70.64
-77.61
-84.29
-91.95
-101.84
-114.63
-129.86
-145.60
-158.64
-165.11
-161.70
-146.70
-120.71
-86.60
-48.61
-11.16
22.23
49.52
70.08
84.24
92.70
96.28
95.87
92.54
87.55
82.22
77.60
74.20
71.92
70.26
68.68
66.90
64.99
63.22
61.79
60.59
59.11
56.66
52.61
46.68
39.11
30.55
21.82
13.53
5.88
-1.41
-8.95
-17.31
-26.70
-36.86
-47.13
-56.82
-65.47
-73.10
-80.23
-87.77
-96.76
-108.00
-121.61
-136.56
-150.53
-160.14
-161.76
-152.71
-132.21
-101.88
-65.36
-27.25
8.14
37.81
60.44
76.13
85.82
90.69
91.83
90.19
86.69
82.33
78.12
74.81
72.76
71.78
71.36
70.94
70.16
68.96
67.51
65.91
63.97
61.18
56.93
50.78
42.77
33.39
23.42
13.55
4.12
-5.07
-14.55
-24.82
-36.04
-47.81
-59.31
-69.63
-78.17
-84.95
-90.69
-96.59
-104.05
-114.10
-126.88
-141.17
-154.30
-162.58
-162.27
-150.73
-127.40
-94.29
-55.42
-15.64
20.64
50.49
72.74
87.61
96.11
99.47
98.82
95.22
89.80
83.65
77.81
72.95
69.29
66.66
64.68
63.01
61.51
60.19
59.05
57.83
56.06
53.10
48.44
41.91
33.82
24.86
15.77
7.01
-1.37
-9.77
-18.79
-28.82
-39.87
-51.47
-62.85
-73.28
-82.38
-90.32
-97.87
-106.26
-116.71
-129.79
-144.78
-159.38
-169.92
-172.28
-163.23
-141.68
-109.22
-69.79
-28.44
10.07
42.43
67.16
84.29
94.69
99.52
99.89
96.82
91.35
84.54
77.39
70.81
65.43
61.59
59.37
58.53
58.66
59.12
59.30
58.69
56.99
54.11
50.13
45.12
39.10
31.93
23.43
13.46
2.02
-10.60
-23.83
-37.01
-49.41
-60.58
-70.42
-79.24
-87.79
-97.08
-108.13
-121.66
-137.50
-154.19
-168.82
-177.58
-176.66
-163.57
-138.07
-102.46
-61.02
-18.77
19.80
51.70
75.75
92.17
102.00
106.48
106.74
103.75
98.48
91.98
85.34
79.50
75.11
72.30
70.80
70.07
69.47
68.45
66.63
63.82
60.05
55.43
50.13
44.27
37.80
30.46
21.94
12.00
0.62
-11.90
-25.03
-38.12
-50.56
-62.02
-72.45
-82.26
-92.26
-103.50
-116.94
-132.85
-150.32
-166.88
-178.78
-181.93
-173.14
-151.34
-118.17
-77.54
-34.52
6.08
40.83
68.05
87.58
100.14
106.68
108.13
105.47
99.88
92.76
85.62
79.71
75.76
73.79
73.18
73.03
72.46
70.93
68.35
65.06
61.45
57.80
54.02
49.63
43.89
36.20
26.28
14.48
1.63
-11.18
-23.01
-33.41
-42.55
-51.21
-60.50
-71.60
-85.45
-102.29
-121.34
-140.46
-156.32
-165.01
-163.08
-148.69
-122.35
-86.96
-46.98
-7.22
28.44
57.61
79.49
94.31
102.76
105.67
103.95
98.76
91.60
84.15
77.87
73.60
71.28
70.08
68.92
66.96
63.99
60.38
56.80
53.66
50.71
47.12
41.70
33.49
22.23
8.54
-6.29
-20.73
-33.65
-44.66
-54.28
-63.74
-74.57
-88.11
-105.01
-124.69
-145.12
-162.87
-173.77
-173.99
-161.26
-135.74
-100.12
-58.94
-17.25
20.61
51.87
75.47
91.62
101.20
105.31
105.04
101.48
95.82
89.27
82.89
77.42
73.08
69.58
66.42
63.11
59.49
55.75
52.13
48.64
44.79
39.67
32.28
22.02
9.06
-5.64
-20.67
-34.71
-47.13
-58.16
-68.96
-81.15
-96.15
-114.47
-135.02
-154.93
-170.03
-175.89
-169.26
-149.19
-117.51
-78.28
-36.61
2.78
36.60
63.31
82.85
96.01
103.81
107.26
107.29
104.82
100.75
95.91
90.90
86.02
81.30
76.66
72.07
67.65
63.62
60.02
56.56
52.49
46.86
38.88
28.25
15.34
1.10
-13.28
-26.86
-39.30
-51.01
-63.06
-76.78
-93.28
-112.80
-134.09
-154.30
-169.28
-174.61
-167.02
-145.59
-112.29
-71.51
-28.74
11.01
44.48
70.50
89.55
102.81
111.33
115.71
116.27
113.51
108.40
102.22
96.20
91.00
86.56
82.30
77.64
72.37
66.80
61.43
56.52
51.68
45.98
38.25
27.71
14.42
-0.77
-16.41
-31.13
-44.07
-55.26
-65.60
-76.58
-89.84
-106.38
-126.01
-146.84
-165.35
-177.14
-178.16
-166.00
-140.83
-105.38
-64.18
-22.24
16.33
49.02
74.93
94.25
107.66
115.80
119.23
118.64
114.98
109.49
103.48
97.93
93.30
89.40
85.70
81.68
77.16
72.39
67.84
63.85
60.21
56.15
50.51
42.31
31.17
17.60
2.85
-11.53
-24.31
-35.07
-44.37
-53.56
-64.39
-78.33
-95.95
-116.50
-137.67
-155.78
-166.58
-166.34
-153.06
-127.16
-91.56
-50.78
-9.66
27.95
59.88
85.58
105.47
120.14
129.90
134.80
134.97
131.10
124.50
116.95
110.11
105.10
102.11
100.52
99.29
97.44
94.35
89.91
84.40
78.17
71.43
64.08
55.73
45.80
33.93
20.10
4.83
-10.92
-26.08
-39.81
-51.82
-62.46
-72.58
-83.23
-95.40
-109.78
-126.52
-144.89
-163.01
-177.88
-185.76
-183.27
-168.46
-141.75
-106.00
-65.68
-25.61
10.37
40.11
63.09
79.84
91.29
98.23
101.26
100.97
98.10
93.67
88.85
84.68
81.81
80.33
79.83
79.54
78.75
76.94
73.99
70.05
65.37
60.10
54.15
47.25
39.04
29.29
18.00
5.52
-7.60
-20.68
-33.09
-44.49
-54.83
-64.44
-73.91
-84.06
-95.63
-109.12
-124.38
-140.17
-154.08
-162.76
-162.83
-151.88
-129.55
-97.86
-60.71
-22.69
12.15
41.25
63.80
80.14
91.22
97.84
100.55
99.79
96.19
90.80
84.89
79.73
76.09
74.12
73.30
72.81
71.87
70.01
67.17
63.53
59.35
54.73
49.60
43.72
36.75
28.39
18.51
7.26
-4.89
-17.21
-28.91
-39.44
-48.67
-56.94
-64.93
-73.53
-83.58
-95.65
-109.74
-124.95
-139.22
-149.45
-152.22
-144.73
-125.96
-97.15
-61.63
-23.89
11.72
42.03
65.54
82.19
92.72
98.08
99.17
96.73
91.60
84.81
77.62
71.23
66.50
63.69
62.40
61.79
60.92
59.10
56.09
52.17
47.85
43.59
39.48
35.13
29.81
22.77
13.69
2.84
-8.96
-20.64
-31.28
-40.50
-48.52
-56.01
-63.91
-73.12
-84.32
-97.71
-112.70
-127.59
-139.54
-145.04
-140.88
-125.39
-99.22
-65.41
-28.49
6.85
37.12
60.59
77.10
87.36
92.16
92.13
87.83
80.13
70.45
60.60
52.30
46.62
43.66
42.54
41.88
40.47
37.74
33.94
29.86
26.27
23.41
20.73
17.13
11.44
3.00
-8.02
-20.63
-33.46
-45.29
-55.53
-64.34
-72.53
-81.31
-91.87
-105.08
-121.04
-138.73
-155.78
-168.66
-173.39
-166.73
-147.35
-116.50
-77.96
-36.90
1.55
33.63
57.57
73.37
82.07
84.99
83.30
78.05
70.43
61.84
53.78
47.43
43.32
41.16
40.10
39.21
37.94
36.35
34.90
33.96
33.42
32.44
29.71
24.02
14.79
2.42
-11.78
-26.13
-39.30
-50.79
-61.09
-71.47
-83.47
-98.31
-116.41
-136.95
-157.65
-174.85
-184.29
-182.08
-166.13
-136.91
-97.65
-53.39
-9.57
29.40
60.96
84.36
100.06
108.97
112.07
110.34
104.93
97.32
89.09
81.57
75.43
70.58
66.29
61.75
56.48
50.58
44.65
39.31
34.78
30.62
25.85
19.35
10.33
-1.23
-14.60
-28.56
-41.81
-53.47
-63.44
-72.42
-81.84
-93.42
-108.49
-127.24
-148.25
-168.24
-182.75
-187.32
-178.89
-156.89
-123.56
-83.25
-41.17
-1.95
31.31
57.22
75.75
87.55
93.43
94.23
90.89
84.63
76.87
69.05
62.21
56.75
52.40
48.44
44.22
39.50
34.58
30.07
26.48
23.79
21.27
17.78
12.17
3.79
-7.15
-19.67
-32.37
-43.99
-53.94
-62.50
-70.80
-80.37
-92.60
-108.10
-126.02
-143.90
-157.98
-164.07
-158.79
-140.71
-110.87
-72.57
-30.39
11.10
48.31
79.16
102.93
119.77
130.19
134.90
134.74
130.84
124.60
117.49
110.72
104.98
100.26
96.05
91.68
86.79
81.51
76.46
72.26
69.06
66.30
62.69
56.83
47.75
35.44
20.84
5.52
-8.99
-21.80
-32.95
-43.45
-54.84
-68.74
-86.21
-107.08
-129.55
-150.18
-164.45
-167.95
-157.77
-133.55
-97.74
-54.97
-10.72
30.21
64.60
91.11
109.79
121.35
126.65
126.54
122.03
114.50
105.63
97.08
90.08
85.03
81.47
78.50
75.26
71.34
66.91
62.47
58.37
54.51
50.18
44.37
36.11
24.97
11.31
-3.84
-19.08
-33.10
-45.08
-55.01
-63.74
-72.78
-83.80
-98.12
-115.85
-135.41
-153.50
-165.68
-167.65
-156.58
-132.23
-97.08
-55.64
-13.04
26.22
59.23
84.69
102.51
113.22
117.51
116.20
110.44
101.76
92.01
82.94
75.72
70.72
67.46
64.99
62.39
59.24
55.68
52.14
48.96
45.95
42.33
37.04
29.20
18.58
5.80
-7.94
-21.28
-33.28
-43.68
-53.04
-62.50
-73.50
-87.31
-104.44
-124.16
-144.13
-160.63
-169.29
-166.37
-150.04
-121.18
-83.19
-41.06
0.14
36.53
66.02
88.17
103.43
112.53
116.02
114.49
108.72
100.07
90.35
81.33
74.33
69.72
66.98
65.03
62.74
59.46
55.18
50.41
45.75
41.51
37.39
32.60
26.18
17.47
6.45
-6.11
-18.99
-30.95
-41.20
-49.68
-57.13
-64.80
-74.15
-86.41
-102.14
-120.77
-140.33
-157.49
-168.16
-168.53
-156.21
-131.18
-95.88
-54.66
-12.51
26.24
58.79
84.12
102.47
114.62
121.40
123.42
121.30
115.96
108.74
101.23
94.82
90.30
87.63
86.13
84.87
83.07
80.36
76.86
72.90
68.76
64.45
59.63
53.73
46.17
36.53
24.81
11.47
-2.68
-16.68
-29.70
-41.36
-51.67
-61.13
-70.51
-80.75
-92.76
-107.07
-123.45
-140.43
-155.27
-164.30
-163.89
-151.67
-127.44
-93.50
-54.02
-13.86
22.81
53.31
76.66
93.18
103.78
109.41
110.92
109.07
104.73
98.99
93.02
87.83
83.96
81.40
79.67
78.04
75.89
72.94
69.30
65.30
61.31
57.52
53.69
49.28
43.48
35.56
25.16
12.51
-1.55
-15.77
-28.94
-40.32
-49.92
-58.51
-67.24
-77.24
-89.20
-103.19
-118.69
-134.60
-149.39
