1520861766.00
64.000000
-0.00
-0.00
-0.00
-0.00
-0.00
-0.00
-0.00
-0.00
-0.00
-0.00
0.00
0.01
0.01
-0.00
-0.03
-0.05
-0.05
0.00
0.13
0.36
0.66
1.01
1.37
1.72
2.06
2.40
2.79
3.24
3.80
4.42
5.06
5.66
6.20
6.68
7.15
7.68
8.31
9.14
10.09
11.04
11.88
12.56
13.14
13.76
14.65
15.96
17.91
20.32
22.90
25.38
27.58
29.57
31.68
34.32
37.81
42.54
48.15
54.10
59.83
64.97
69.58
74.14
79.34
85.71
93.76
103.00
112.62
121.73
129.77
136.75
143.30
150.75
157.77
166.64
177.95
191.79
206.97
220.57
228.25
225.36
208.53
176.87
132.76
80.05
23.07
-34.94
-92.44
-149.16
-205.23
-260.37
-313.74
-363.87
-409.83
-450.91
-486.50
-515.74
-537.23
-549.22
-549.96
-538.37
-514.21
-478.67
-433.88
-382.45
-327.02
-269.84
-212.63
-156.66
-102.95
-52.37
-5.90
35.58
71.43
101.35
125.50
144.38
158.69
169.15
176.37
180.75
182.57
182.07
179.51
175.23
169.65
163.18
156.15
148.81
141.30
133.69
126.02
118.33
110.69
103.16
95.80
88.68
81.83
75.25
68.95
62.95
57.25
51.86
46.78
42.03
37.59
33.45
29.61
26.07
22.81
19.83
17.11
14.67
12.48
10.54
8.83
7.35
6.07
4.97
4.05
3.27
2.62
2.09
1.65
1.30
1.01
0.79
0.61
0.48
0.37
0.29
0.24
0.20
0.18
0.17
0.17
0.18
0.20
0.23
0.26
0.30
0.34
0.38
0.43
0.47
0.52
0.57
0.62
0.67
0.73
0.79
0.86
0.94
1.02
1.10
1.21
1.32
1.44
1.58
1.74
1.91
2.11
2.33
2.57
2.83
3.13
3.45
3.80
4.19
4.61
5.07
5.56
6.09
6.67
7.28
7.94
8.65
9.39
10.18
11.02
11.91
12.84
13.82
14.86
15.96
17.13
18.36
19.64
20.93
22.19
23.35
24.31
24.97
25.19
24.86
23.88
22.20
19.79
16.69
12.98
8.80
4.34
-0.19
-4.59
-8.64
-12.17
-15.05
-17.21
-18.60
-19.25
-19.25
-18.68
-17.67
-16.33
-14.76
-13.05
-11.26
-9.40
-7.50
-5.59
-3.67
-1.77
0.15
2.12
4.15
6.27
8.49
10.86
13.27
15.70
18.14
20.63
23.23
25.98
28.92
32.11
35.66
39.34
43.08
46.89
50.82
54.94
59.30
63.96
68.97
74.46
80.05
85.59
91.07
96.55
102.12
107.83
113.66
119.53
125.42
130.70
135.04
138.37
140.67
141.83
141.38
138.27
130.56
120.64
108.87
95.59
81.33
66.75
52.50
38.90
25.86
12.97
-0.26
-14.80
-30.93
-48.34
-66.34
-84.15
-101.33
-117.81
-133.92
-150.18
-167.79
-187.80
-210.90
-236.92
-264.35
-290.06
-309.85
-319.64
-316.89
-302.03
-277.99
-249.16
-219.82
-192.84
-169.30
-148.94
-131.05
-115.08
-101.05
-88.93
-78.42
-68.88
-59.68
-50.54
-41.72
-33.88
-27.74
-23.69
-21.46
-20.17
-18.58
-15.55
-10.39
-3.15
5.44
14.25
22.10
28.22
32.35
34.70
35.69
35.75
35.08
33.73
31.73
29.14
26.16
23.02
19.86
16.65
13.23
9.38
5.02
0.34
-4.15
-7.67
-9.38
-8.61
-5.09
0.97
8.90
17.73
26.47
34.25
40.49
44.94
47.71
49.11
49.69
50.05
50.69
51.94
53.81
56.07
58.36
60.31
61.66
62.27
62.13
61.29
59.84
57.90
55.64
53.22
50.72
48.16
45.47
42.51
39.25
35.73
32.09
28.50
25.13
22.08
19.37
16.94
14.64
12.31
9.74
6.77
3.26
-0.81
-5.37
-10.21
-14.98
-19.18
-22.31
-23.92
-23.77
-21.92
-18.70
-14.67
-10.46
-6.64
-3.64
-1.70
-0.82
-0.82
-1.42
-2.32
-3.22
-3.97
-4.48
-4.76
-4.92
-5.14
-5.68
-6.80
-8.66
-11.20
-14.09
-16.83
-18.91
-20.02
-20.12
-19.55
-18.82
-18.49
-18.94
-20.34
-22.53
-25.05
-27.26
-28.44
-28.01
-25.63
-21.36
-15.68
-9.32
-3.14
2.12
5.97
8.26
9.12
8.90
7.97
6.74
5.50
4.54
4.05
4.13
4.75
5.71
6.67
7.25
7.21
6.49
5.25
3.74
2.20
0.74
-0.69
-2.27
-4.22
-6.69
-9.67
-12.90
-15.87
-17.89
-18.27
-16.54
-12.59
-6.71
0.44
8.12
15.61
22.40
28.21
33.04
37.01
40.39
43.42
46.32
49.23
52.19
55.16
58.03
60.68
62.96
64.69
65.80
66.28
66.27
66.00
65.69
65.48
65.31
64.99
64.21
62.66
60.13
56.60
52.18
47.10
41.58
35.84
30.05
24.35
18.91
13.84
9.22
4.99
0.94
-3.22
-7.85
-13.20
-19.33
-26.04
-32.85
-39.11
-44.13
-47.42
-48.85
-48.67
-47.47
-45.92
-44.53
-43.50
-42.82
-42.31
-41.85
-41.36
-40.82
-40.15
-39.24
-38.03
-36.58
-35.11
-33.80
-32.72
-31.63
-30.08
-27.60
-24.02
-19.48
-14.47
-9.56
-5.20
-1.59
1.32
3.65
5.45
6.65
7.13
6.86
5.98
4.88
3.99
3.64
3.90
4.47
4.89
4.59
3.21
0.67
-2.85
-6.99
-11.31
-15.40
-19.01
-22.07
-24.61
-26.76
-28.57
-29.92
-30.50
-29.98
-28.06
-24.66
-19.89
-14.06
-7.58
-0.91
5.46
11.10
15.58
18.66
20.29
20.71
20.41
19.93
19.72
19.91
20.32
20.49
19.90
18.14
15.13
11.15
6.69
2.36
-1.37
-4.27
-6.38
-7.98
-9.46
-11.23
-13.54
-16.41
-19.56
-22.52
-24.67
-25.50
-24.66
-22.14
-18.15
-13.15
-7.70
-2.44
1.95
4.85
5.89
4.96
2.28
-1.58
-5.95
-10.14
-13.64
-16.16
-17.71
-18.49
-18.88
-19.25
-19.90
-20.94
-22.32
-23.87
-25.38
-26.70
-27.76
-28.57
-29.27
-30.03
-31.02
-32.28
-33.64
-34.63
-34.63
-33.07
-29.67
-24.66
-18.67
-12.57
-7.12
-2.81
0.26
2.20
3.26
3.67
3.57
3.15
2.63
2.26
2.19
2.45
2.83
3.01
2.69
1.81
0.50
-0.87
-1.95
-2.63
-3.08
-3.79
-5.24
-7.80
-11.50
-16.07
-20.95
-25.47
-28.95
-30.73
-30.41
-27.84
-23.26
-17.26
-10.66
-4.31
1.17
5.40
8.31
10.04
10.82
10.92
10.61
10.15
9.82
9.82
10.25
11.08
12.11
13.07
13.65
13.66
13.01
11.79
10.20
8.43
6.61
4.73
2.70
0.25
-2.83
-6.70
-11.18
-15.84
-19.90
-22.52
-23.06
-21.26
-17.41
-12.15
-6.27
-0.45
4.85
9.37
12.99
15.59
17.14
17.65
17.27
16.26
14.98
13.71
12.73
12.19
12.14
12.44
12.80
12.80
12.07
10.41
7.89
4.86
1.74
-1.09
-3.48
-5.47
-7.30
-9.26
-11.63
-14.64
-18.38
-22.73
-27.31
-31.46
-34.35
-35.13
-33.28
-28.80
-22.26
-14.61
-6.91
0.01
5.72
10.14
13.43
15.75
17.22
17.87
17.82
17.30
16.65
16.26
16.32
16.86
17.64
18.33
18.63
18.38
17.64
16.60
15.46
14.35
13.21
11.88
10.15
7.91
5.17
2.03
-1.42
-5.15
-9.21
-13.62
-18.17
-22.33
-25.30
-26.25
-24.61
-20.38
-14.06
-6.62
0.89
7.60
12.97
16.84
19.30
20.55
20.83
20.41
19.56
18.56
17.70
17.23
17.23
17.62
18.20
18.68
18.84
18.58
17.86
16.70
15.11
13.04
10.46
7.45
4.20
0.97
-1.93
-4.41
-6.57
-8.80
-11.59
-15.30
-19.92
-24.86
-29.15
-31.58
-31.22
-27.76
-21.61
-13.76
-5.39
2.46
9.13
14.43
18.41
21.23
23.03
23.90
23.94
23.38
22.53
21.83
21.62
22.14
23.31
24.87
26.37
27.44
27.87
27.64
26.86
25.64
24.03
22.03
19.68
17.06
14.32
11.52
8.61
5.34
1.43
-3.32
-8.76
-14.41
-19.47
-23.03
-24.33
-22.99
-19.16
-13.46
-6.84
-0.22
5.65
10.37
13.89
16.26
17.63
18.09
17.77
16.89
15.74
14.68
14.01
13.85
14.13
14.68
15.21
15.51
15.42
14.86
13.86
12.48
10.76
8.73
6.41
3.90
1.33
-1.17
-3.58
-6.02
-8.81
-12.17
-16.16
-20.42
-24.27
-26.93
-27.69
-26.22
-22.60
-17.22
-10.71
-3.76
2.92
8.68
13.00
15.62
16.55
16.06
14.63
12.74
10.85
9.30
8.29
7.90
8.08
8.63
9.22
9.51
9.27
8.42
7.03
5.29
3.35
1.29
-0.90
-3.30
-5.97
-8.94
-12.21
-15.78
-19.60
-23.53
-27.30
-30.42
-32.33
-32.47
-30.54
-26.55
-20.92
-14.33
-7.55
-1.28
4.02
8.12
10.96
12.62
13.23
12.99
12.16
11.10
10.16
9.69
9.83
10.55
11.59
12.62
13.28
13.31
12.65
11.36
9.61
7.57
5.40
3.21
1.06
-1.02
-3.05
-5.14
-7.52
-10.51
-14.37
-19.17
-24.62
-30.04
-34.45
-36.84
-36.50
-33.25
-27.53
-20.20
-12.30
-4.71
1.98
7.52
11.83
14.90
16.77
17.52
17.45
16.96
16.52
16.45
16.82
17.41
17.93
18.20
18.19
18.10
18.07
18.13
18.05
17.53
16.28
14.22
11.50
8.40
5.19
2.07
-0.94
-3.93
-7.07
-10.53
-14.46
-18.83
-23.42
-27.75
-31.09
-32.63
-31.72
-28.08
-22.00
-14.25
-5.87
2.15
9.13
14.72
18.93
21.88
23.73
24.66
24.85
24.64
24.48
24.75
25.69
27.20
28.95
30.45
31.36
31.58
31.28
30.74
30.18
29.61
28.85
27.57
25.58
22.93
19.89
16.90
14.30
12.25
10.56
8.83
6.59
3.55
-0.39
-5.07
-10.14
-15.18
-19.70
-23.21
-25.28
-25.70
-24.44
-21.68
-17.70
-12.66
-6.61
0.35
7.90
15.33
21.66
25.95
27.68
27.04
24.82
22.12
19.89
18.61
18.30
18.55
18.91
18.99
18.64
17.89
16.85
15.58
13.99
11.81
8.71
4.50
-0.74
-6.60
-12.46
-17.73
-22.07
-25.49
-28.28
-30.91
-33.75
-37.06
-40.79
-44.58
-47.86
-49.85
-49.88
-47.53
-42.85
-36.32
-28.73
-20.90
-13.49
-6.88
-1.27
3.21
6.48
8.50
9.39
9.45
9.16
9.01
9.35
10.32
11.78
13.40
14.80
15.65
15.75
15.06
13.67
11.79
9.61
7.29
4.91
2.50
0.05
-2.42
-4.95
-7.61
-10.54
-13.95
-17.99
-22.64
-27.61
-32.28
-35.82
-37.42
-36.44
-32.75
-26.73
-19.17
-11.10
-3.41
3.29
8.87
13.47
17.38
20.81
23.80
26.20
27.72
28.13
27.29
25.27
22.34
18.96
15.69
13.03
11.34
10.70
10.96
11.77
12.72
13.40
13.44
12.51
10.39
6.95
2.20
-3.62
-10.15
-16.94
-23.55
-29.55
-34.46
-37.75
-38.83
-37.25
-32.92
-26.28
-18.34
-10.39
-3.59
1.42
4.65
6.67
8.24
9.94
11.98
14.18
16.17
17.62
18.33
18.36
17.88
17.10
16.25
15.51
15.00
14.82
14.91
15.07
14.97
14.24
12.57
9.90
6.34
2.23
-2.03
-6.07
-9.74
-13.06
-16.27
-19.75
-23.84
-28.73
-34.23
-39.72
-44.25
-46.73
-46.35
-42.79
-36.40
-28.10
-19.05
-10.36
-2.76
3.49
8.38
12.11
14.80
16.53
17.42
17.69
17.72
17.97
18.76
20.12
21.81
23.38
24.42
24.77
24.49
23.86
23.10
22.29
21.26
19.73
17.47
14.47
10.95
7.27
3.81
0.76
-1.94
-4.60
-7.61
-11.31
-15.90
-21.34
-27.40
-33.60
-39.33
-43.79
-46.22
-46.01
-42.91
-37.12
-29.32
-20.51
-11.72
-3.78
2.82
7.96
11.76
14.47
16.29
17.44
18.10
18.52
19.01
19.88
21.29
23.20
25.35
27.33
28.75
29.34
29.08
28.12
26.72
25.14
23.48
21.70
19.65
17.19
14.23
10.89
7.32
3.73
0.22
-3.23
-6.71
-10.35
-14.21
-18.45
-23.20
-28.64
-34.73
-41.09
-46.95
-51.21
-52.86
-51.24
-46.33
-38.75
-29.53
-19.77
-10.39
-1.98
5.17
10.95
15.32
18.33
20.08
20.79
20.85
20.73
20.88
21.53
22.68
24.11
25.51
26.70
27.60
28.23
28.63
28.70
28.28
27.22
25.52
23.32
20.89
18.46
16.07
13.62
10.83
7.54
3.73
-0.40
-4.51
-8.31
-11.63
-14.56
-17.37
-20.45
-24.14
-28.68
-34.01
-39.73
-45.11
-49.21
-51.10
-50.14
-46.16
-39.49
-30.88
-21.31
-11.75
-2.98
4.43
10.16
14.09
16.23
16.69
15.64
13.42
10.54
7.58
5.09
3.37
2.31
1.40
0.04
-2.23
-5.46
-9.40
-13.56
-17.66
-21.72
-26.16
-31.55
-38.30
-46.43
-55.48
-64.65
-73.13
-80.48
-86.85
-92.96
-99.84
-108.28
-118.45
-129.59
-139.98
-147.20
-148.63
-142.07
-126.33
-101.70
-69.95
-33.90
3.45
39.86
74.54
108.20
142.13
176.93
211.40
242.26
264.90
274.70
268.27
244.33
203.88
149.88
86.84
20.22
-44.45
-102.67
-151.96
-192.26
-225.41
-253.90
-279.45
-302.30
-321.33
-334.78
-341.12
-339.37
-328.70
-308.03
-276.18
-232.60
-178.37
-116.68
-52.37
9.54
65.49
114.35
157.12
195.64
231.12
263.16
289.99
309.56
320.82
324.53
322.83
318.37
313.19
308.10
302.63
295.42
284.88
269.68
249.47
224.97
197.95
170.72
145.27
122.56
102.43
84.15
67.43
53.15
42.83
37.41
35.72
34.12
27.73
12.82
-10.95
-39.93
-67.86
-88.44
-97.67
-94.61
-80.74
-58.52
-30.34
1.60
34.63
65.30
89.57
103.91
106.27
96.48
75.79
45.90
8.48
-34.76
-81.51
-128.43
-171.42
-206.55
-231.00
-243.42
-243.76
-232.69
-211.39
-181.78
-147.03
-111.76
-81.17
-59.52
-48.68
-47.60
-53.09
-61.42
-69.75
-76.64
-81.78
-85.23
-87.09
-87.65
-87.67
-88.31
-90.63
-94.95
-100.52
-105.73
-108.94
-109.17
-106.42
-101.50
-95.51
-89.39
-83.83
-79.32
-76.19
-74.50
-73.87
-73.38
-71.75
-67.74
-60.61
-50.34
-37.68
-23.78
-9.90
3.06
14.62
24.73
33.64
41.65
49.01
55.86
62.30
68.44
74.43
80.44
86.59
92.96
99.48
106.02
112.31
117.90
122.19
124.54
124.45
121.72
116.48
109.20
100.48
90.95
81.13
71.40
61.91
52.59
43.15
33.30
23.00
12.73
3.40
-3.87
-8.23
-9.43
-7.89
-4.45
-0.07
4.55
9.04
13.23
17.02
20.26
22.80
24.60
25.75
26.49
27.05
27.53
27.84
27.85
27.44
26.71
25.89
25.24
24.89
24.71
24.42
23.63
22.10
19.77
16.77
13.35
9.72
6.00
2.17
-1.91
-6.45
-11.67
-17.66
-24.28
-31.04
-37.16
-41.74
-44.01
-43.52
-40.24
-34.57
-27.14
-18.75
-10.17
-2.11
4.88
10.46
14.58
17.46
19.48
21.03
22.38
23.65
24.78
25.68
26.28
26.55
26.58
26.45
26.26
26.10
25.97
25.77
25.29
24.26
22.49
19.83
16.37
12.32
8.02
3.74
-0.35
-4.29
-8.29
-12.68
-17.68
-23.34
-29.36
-35.12
-39.71
-42.26
-42.13
-39.13
-33.60
-26.27
-18.04
-9.73
-1.91
5.11
11.22
16.41
20.62
23.76
25.81
26.91
27.36
27.57
27.88
28.50
29.44
30.53
31.56
32.37
32.89
33.16
33.22
33.06
32.56
31.55
29.81
27.17
23.60
19.27
14.46
9.58
5.00
0.94
-2.57
-5.77
-9.04
-12.80
-17.36
-22.73
-28.58
-34.18
-38.62
-40.95
-40.51
-37.13
-31.17
-23.39
-14.67
-5.83
2.57
10.14
16.61
21.84
25.78
28.57
30.52
32.06
33.50
34.94
36.28
37.30
37.87
38.01
37.90
37.73
37.60
37.49
37.31
36.90
36.15
34.96
33.18
30.71
27.49
23.62
19.28
14.80
10.41
6.29
2.43
-1.27
-4.94
-8.67
-12.47
-16.31
-20.08
-23.68
-26.95
-29.64
-31.36
-31.63
-30.00
-26.20
-20.35
-12.96
-4.85
3.12
10.23
16.14
20.82
24.43
27.14
28.98
29.90
29.82
28.89
27.46
26.05
25.21
25.25
26.14
27.55
28.93
29.77
29.70
28.53
26.29
23.12
19.30
15.17
11.09
7.32
3.95
0.83
-2.31
-5.73
-9.54
-13.60
-17.64
-21.35
-24.60
-27.55
-30.56
-34.12
-38.53
-43.68
-49.00
-53.54
-56.28
-56.46
-53.86
-48.84
-42.07
-34.36
-26.37
-18.57
-11.31
-4.83
0.67
5.13
8.64
11.42
13.68
15.56
17.13
18.39
19.44
20.51
21.84
23.54
25.46
27.23
28.39
28.60
27.76
26.06
23.76
21.14
18.36
15.49
12.51
9.47
6.43
3.54
0.97
-1.12
-2.59
-3.47
-3.96
-4.54
-5.82
-8.37
-12.40
-17.58
-23.14
-28.02
-31.21
-31.96
-29.91
-25.03
-17.64
-8.38
1.82
11.87
20.76
27.78
32.78
36.08
38.28
39.79
40.52
39.80
36.68
30.38
20.79
8.64
-4.67
-17.52
-28.59
-37.17
-43.25
-47.27
-49.86
-51.57
-52.86
-54.16
-55.91
-58.48
-61.97
-66.03
-69.76
-71.87
-71.20
-67.19
-60.32
-52.07
-44.52
-39.63
-38.40
-40.52
-44.37
-47.55
-47.68
-43.15
-33.56
-19.80
-3.73
12.34
26.16
36.06
41.13
41.41
37.85
32.11
26.27
22.35
21.80
25.06
31.39
39.06
45.93
50.16
50.77
47.93
42.68
36.47
30.63
25.96
22.65
20.39
18.67
16.97
14.91
12.24
8.81
4.50
-0.80
-7.08
-14.24
-21.99
-29.92
-37.45
-43.96
-48.80
-51.42
-51.47
-48.88
-43.86
-36.94
-28.85
-20.42
-12.46
-5.51
0.33
5.55
11.15
18.35
27.99
40.14
53.85
67.43
79.00
87.11
91.11
91.20
88.09
82.67
75.71
67.78
59.34
50.83
42.68
35.20
28.39
21.89
15.04
7.16
-2.08
-12.40
-22.97
-32.66
-40.41
-45.59
-47.99
-47.69
-44.82
-39.69
-32.89
-25.54
-19.22
-15.55
-15.67
-19.87
-27.53
-37.58
-48.89
-60.54
-71.78
-81.75
-89.34
-93.41
-93.18
-88.64
-80.58
-70.35
-59.34
-48.56
-38.48
-29.14
-20.31
-11.75
-3.30
5.12
13.45
21.53
29.03
35.55
40.67
44.07
45.65
45.62
44.48
42.95
41.76
41.43
42.13
43.63
45.51
47.25
48.32
48.19
46.25
41.93
34.99
25.89
15.96
7.14
1.25
-0.79
0.48
3.27
5.26
4.52
0.26
-7.01
-15.86
-24.50
-31.40
-35.60
-36.73
-35.04
-31.24
-26.22
-20.91
-15.87
-11.25
-6.75
-1.93
3.60
9.97
16.97
24.23
31.30
37.85
43.68
48.89
53.86
59.30
65.99
74.50
84.84
96.28
107.50
117.01
123.61
126.67
125.96
121.59
113.74
102.67
88.80
72.64
54.65
35.43
15.90
-2.10
-15.82
-22.25
-19.51
-8.19
8.26
24.54
35.51
38.16
32.32
20.00
3.86
-14.04
-32.57
-50.85
-67.64
-81.18
-89.92
-93.38
-92.55
-89.43
-86.01
-83.46
-81.78
-80.31
-78.28
-75.48
-72.24
-69.06
-66.21
-63.39
-59.87
-54.91
-48.16
-39.99
-31.66
-24.96
-21.80
-23.63
-30.88
-42.72
-57.25
-72.18
-85.67
-97.19
-107.81
-119.74
-135.44
-156.42
-182.58
-212.05
-241.81
-268.51
-289.36
-302.54
-307.43
-304.42
-294.44
-278.58
-257.71
-232.51
-203.59
-171.86
-138.48
-104.60
-71.07
-37.97
-4.79
29.02
63.17
96.03
124.94
147.53
163.14
173.41
181.69
191.36
204.19
219.59
235.05
247.10
252.47
248.62
233.89
207.65
170.69
125.67
77.07
30.29
-9.80
-40.42
-61.31
-74.02
-80.49
-82.08
-79.18
-71.68
-59.87
-45.09
-29.75
-16.77
-8.64
-6.14
-7.93
-10.83
-11.17
-6.51
3.02
14.78
25.03
31.15
33.30
34.40
38.64
49.27
67.01
90.06
115.50
141.07
166.17
191.77
219.34
249.48
281.13
311.73
337.83
356.16
364.41
361.69
348.72
327.46
300.67
271.22
241.52
212.94
185.56
158.21
129.03
96.32
59.43
19.25
-21.96
-61.44
-97.03
-128.00
-155.12
-180.04
-204.18
-227.89
-250.28
-269.62
-284.33
-293.71
-298.27
-299.31
-298.29
-295.87
-291.40
-283.03
-268.50
-246.51
-217.87
-185.82
-155.26
-131.18
-116.94
-113.43
-119.27
-131.72
-147.79
-164.87
-180.90
-194.22
-203.48
-207.88
-207.44
-202.97
-195.73
-186.99
-177.59
-167.97
-158.45
-149.38
-141.06
-133.43
-126.02
-118.04
-108.86
-98.34
-86.89
-75.13
-63.36
-51.19
-37.66
-21.66
-2.55
19.42
42.98
66.15
86.65
102.55
112.78
117.47
117.87
115.98
113.79
112.49
112.05
111.20
108.05
100.86
88.86
72.61
53.96
35.74
21.30
14.10
17.16
32.39
59.85
97.44
141.30
186.82
230.10
268.88
302.72
332.30
358.37
381.08
399.97
414.60
425.04
431.83
435.30
434.68
427.72
411.17
382.00
338.61
281.53
213.39
138.22
60.71
-14.53
-83.41
-142.63
-190.02
-224.90
-248.13
-261.94
-269.29
-273.13
-275.75
-278.61
-282.34
-287.03
-292.38
-297.70
-301.70
-302.55
-298.20
-287.04
-268.66
-244.31
-216.68
-189.02
-163.92
-142.30
-123.18
-104.20
-82.81
-57.55
-28.57
2.44
33.06
61.07
84.99
104.27
119.07
129.88
137.33
142.14
145.21
147.71
150.86
155.61
162.22
169.98
177.41
182.79
184.94
183.62
179.25
172.11
161.46
145.18
120.38
84.82
38.34
-16.40
-74.50
-130.20
-178.68
-217.18
-245.27
-264.02
-275.05
-279.60
-278.32
-271.48
-259.36
-242.46
-221.48
-197.19
-170.35
-141.94
-113.47
-87.30
-66.48
-53.98
-51.64
-59.18
-73.82
-91.02
-105.95
-115.07
-117.11
-113.18
-105.82
-97.63
-89.87
-81.96
-71.84
-57.33
-37.34
-12.71
14.00
39.69
61.92
79.90
94.36
106.84
118.69
130.38
141.50
151.26
159.13
165.11
169.50
172.53
174.08
173.74
171.25
166.89
161.65
157.04
154.55
155.04
158.39
163.62
169.27
174.10
177.56
179.92
182.03
184.86
189.02
194.54
200.96
207.52
213.50
218.25
221.39
222.63
221.84
218.97
214.11
207.49
199.50
190.59
181.14
171.45
161.66
151.91
142.34
133.16
124.66
117.10
110.65
105.31
100.94
97.31
94.18
91.34
88.63
85.88
82.76
78.70
72.84
64.26
52.19
36.35
17.12
-4.54
-27.39
-50.31
-72.49
-93.52
-113.22
-131.40
-147.76
-161.90
-173.47
-182.41
-188.96
-193.61
-196.97
-199.54
-201.60
-203.12
-203.80
-203.11
-200.49
-195.43
-187.67
-177.24
-164.48
-150.02
-134.64
-119.24
-104.63
-91.42
-79.97
-70.33
-62.32
-55.61
-49.86
-44.77
-40.21
-36.05
-32.25
-28.79
-25.74
-23.19
-21.26
-19.95
-19.17
-18.72
-18.35
-17.92
-17.46
-17.14
-17.18
-17.74
-18.81
-20.24
-21.83
-23.42
-25.03
-26.83
-29.14
-32.28
-36.32
-41.04
-45.81
-49.75
-51.95
-51.75
-48.92
-43.69
-36.71
-28.82
-20.83
-13.41
-7.00
-1.84
2.01
4.59
6.04
6.54
6.28
5.53
4.60
3.79
3.34
3.32
3.66
4.17
4.62
4.82
4.69
4.21
3.36
2.14
0.47
-1.72
-4.44
-7.61
-11.04
-14.44
-17.58
-20.36
-22.86
-25.41
-28.38
-32.07
-36.61
-41.72
-46.82
-51.05
-53.50
-53.48
-50.69
-45.38
-38.23
-30.21
-22.24
-14.97
-8.63
-3.17
1.62
5.85
9.51
12.45
14.55
15.85
16.58
17.05
17.58
18.33
19.32
20.44
21.54
22.46
23.08
23.29
22.99
22.12
20.62
18.52
15.93
12.99
9.86
6.61
3.30
-0.04
-3.38
-6.61
-9.65
-12.41
-14.91
-17.31
-19.88
-22.91
-26.67
-31.23
-36.40
-41.74
-46.50
-49.80
-50.80
-48.94
-44.11
-36.73
-27.66
-17.95
-8.61
-0.37
6.37
11.57
15.41
18.20
20.23
21.73
22.86
23.69
24.31
24.84
25.37
26.00
26.72
27.44
28.02
28.37
28.47
28.33
27.93
27.18
25.91
23.99
21.41
18.34
15.08
11.95
9.15
6.69
4.40
2.05
-0.54
-3.41
-6.49
-9.66
-12.75
-15.70
-18.54
-21.45
-24.70
-28.60
-33.30
-38.68
-44.22
-49.06
-52.19
-52.78
-50.40
-45.17
-37.72
-28.94
-19.77
-10.98
-3.11
3.50
8.70
12.50
15.05
16.64
17.65
18.45
19.35
20.52
22.03
23.77
25.59
27.23
28.48
29.19
29.39
29.21
28.86
28.46
27.94
27.08
25.58
23.31
20.37
17.12
13.96
11.17
8.82
6.76
4.73
2.52
0.03
-2.74
-5.72
-8.83
-12.00
-15.12
-18.08
-20.79
-23.28
-25.77
-28.58
-32.04
-36.26
-40.97
-45.46
-48.77
-49.91
-48.17
-43.41
-36.06
-27.05
-17.49
-8.36
-0.33
6.33
11.62
15.63
18.50
20.32
21.22
21.45
21.31
21.14
21.20
21.58
22.19
22.89
23.50
23.99
24.39
24.74
25.02
25.09
24.73
23.74
22.05
19.79
17.19
14.54
12.01
9.64
7.35
4.98
2.44
-0.39
-3.54
-7.03
-10.77
-14.57
-18.16
-21.34
-24.10
-26.63
-29.37
-32.75
-37.02
-42.03
-47.22
-51.72
-54.60
-55.11
-52.85
-47.80
-40.41
-31.38
-21.62
-12.03
-3.45
3.55
8.64
11.83
13.43
13.96
14.01
14.08
14.51
15.43
16.80
18.47
20.26
22.00
23.51
24.66
25.36
25.59
25.38
24.86
24.13
23.24
22.14
20.69
18.77
16.37
13.62
10.77
8.07
5.67
3.54
1.48
-0.76
-3.37
-6.39
-9.67
-13.02
-16.26
-19.36
-22.45
-25.82
-29.75
-34.41
-39.71
-45.19
-50.07
-53.39
-54.29
-52.23
-47.23
-39.81
-30.89
-21.48
-12.46
-4.43
2.32
7.71
11.73
14.45
16.00
16.62
16.65
16.52
16.56
16.96
17.73
18.73
19.80
20.87
21.95
23.09
24.29
25.44
26.30
26.58
26.11
24.85
22.93
20.63
18.22
15.87
13.63
11.41
9.06
6.41
3.35
-0.14
-3.98
-8.00
-11.99
-15.72
-19.10
-22.17
-25.24
-28.74
-33.07
-38.34
-44.27
-50.05
-54.48
-56.39
-54.93
-49.95
-42.02
-32.28
-22.02
-12.32
-3.84
3.22
8.86
13.16
16.12
17.80
18.38
18.29
18.12
18.38
19.35
20.97
22.91
24.75
26.16
27.07
27.56
27.81
27.86
27.64
26.96
25.64
23.63
21.02
18.03
14.79
11.34
7.57
3.42
-1.05
-5.58
-9.85
-13.59
-16.79
-19.69
-22.67
-26.14
-30.39
-35.43
-41.03
-46.67
-51.61
-55.01
-56.08
-54.31
-49.58
-42.33
-33.39
-23.85
-14.71
-6.73
-0.25
4.77
8.59
11.53
13.83
15.60
16.89
17.78
18.46
19.18
20.13
21.39
22.88
24.44
25.92
27.22
28.36
29.25
29.74
29.52
28.36
26.17
23.16
19.72
16.30
13.22
10.52
8.03
5.53
2.80
-0.24
-3.58
-7.15
-10.87
-14.62
-18.34
-22.07
-25.97
-30.33
-35.39
-41.18
-47.34
-53.06
-57.29
-59.02
-57.60
-52.98
-45.70
-36.69
-27.02
-17.59
-8.99
-1.50
4.82
9.95
13.86
16.54
18.07
18.75
19.07
19.59
20.72
22.60
25.06
27.74
30.27
32.38
33.97
35.06
35.72
35.95
35.79
35.21
34.19
32.67
30.59
27.93
24.75
21.18
17.43
13.71
10.16
6.79
3.48
0.02
-3.85
-8.41
-13.89
-20.37
-27.64
-35.11
-41.82
-46.60
-48.40
-46.67
-41.54
-33.84
-24.82
-15.76
-7.63
-0.91
4.30
8.11
10.72
12.28
13.00
13.13
13.03
13.00
13.28
13.95
14.99
16.28
17.71
19.14
20.47
21.52
22.11
22.05
21.18
19.39
16.67
13.13
9.00
4.60
0.30
-3.58
-6.91
-9.83
-12.70
-16.04
-20.30
-25.74
-32.27
-39.39
-46.27
-51.82
-54.98
-54.95
-51.44
-44.82
-35.95
-26.00
-16.11
-7.12
0.49
6.57
11.15
14.33
16.27
17.23
17.56
17.68
17.97
18.72
20.02
21.78
23.76
25.68
27.26
28.33
28.80
28.67
28.01
26.81
25.02
22.51
19.21
15.10
10.39
5.37
0.36
-4.42
-8.89
-13.19
-17.56
-22.29
-27.64
-33.71
-40.46
-47.54
-54.34
-59.98
-63.50
-64.01
-61.05
-54.68
-45.55
-34.73
-23.46
-12.86
-3.66
3.85
9.82
14.59
18.58
22.06
25.09
27.62
29.56
30.89
31.80
32.54
33.41
34.56
36.01
37.58
39.02
40.08
40.61
40.54
39.87
38.56
36.52
33.70
30.13
26.03
21.72
17.55
13.73
10.24
6.86
3.20
-1.09
-6.28
-12.40
-19.24
-26.35
-32.96
-38.22
-41.30
-41.68
-39.28
-34.54
-28.23
-21.23
-14.32
-8.02
-2.55
2.12
6.10
9.55
12.54
15.10
17.22
18.90
20.20
21.27
22.33
23.57
25.09
26.81
28.48
29.78
30.48
30.44
29.72
28.43
26.72
24.68
22.29
19.53
16.35
12.78
8.93
4.94
0.95
-2.92
-6.57
-10.02
-13.36
-16.80
-20.64
-25.17
-30.60
-36.96
-43.92
-50.84
-56.72
-60.47
-61.12
-58.14
-51.60
-42.12
-30.75
-18.69
-6.99
3.60
12.80
20.60
27.19
32.72
37.26
40.81
43.42
45.24
46.50
47.51
48.43
49.28
49.97
50.36
50.39
50.07
49.46
48.49
47.03
44.94
42.15
38.74
34.94
31.00
27.06
23.12
19.00
14.54
9.70
4.58
-0.55
-5.44
-9.94
-14.15
-18.35
-23.00
-28.53
-35.15
-42.76
-50.80
-58.30
-64.06
-66.89
-65.95
-61.02
-52.62
-41.85
-30.06
-18.42
-7.70
1.86
10.29
17.72
24.11
29.34
33.32
36.11
38.03
39.51
40.90
42.40
43.97
45.46
46.69
47.60
48.22
48.61
48.72
48.37
47.29
45.27
42.27
38.54
34.48
30.53
26.95
23.70
20.56
17.20
13.42
9.21
4.71
0.12
-4.45
-8.97
-13.49
-18.13
-23.05
-28.47
-34.64
-41.60
-49.10
-56.38
-62.31
-65.58
-65.20
-60.77
-52.66
-41.90
-29.84
-17.72
-6.44
3.59
12.29
19.70
25.86
30.80
34.58
37.49
39.93
42.32
44.92
47.70
50.42
52.77
54.56
55.82
56.68
57.25
57.50
57.18
55.99
53.74
50.36
46.03
40.99
35.52
29.87
24.24
18.83
13.74
9.02
4.60
0.34
-3.93
-8.29
-12.73
-17.11
-21.34
-25.43
-29.62
-34.39
-40.23
-47.47
-55.93
-64.88
-73.03
-78.92
-81.28
-79.40
-73.33
-63.79
-51.96
-39.17
-26.63
-15.23
-5.43
2.72
9.48
15.23
20.31
24.87
28.86
32.12
34.61
36.41
37.80
39.06
40.39
41.80
43.15
44.24
44.90
45.00
44.50
43.36
41.64
39.41
36.78
33.85
30.69
27.26
23.51
19.37
14.91
10.31
5.87
1.90
-1.45
-4.23
-6.76
-9.56
-13.24
-18.29
-24.94
-33.00
-41.77
-50.17
-56.83
-60.48
-60.24
-55.89
-47.92
-37.40
-25.67
-13.99
-3.28
5.96
13.61
19.75
24.52
28.09
30.58
32.18
33.16
33.87
34.59
35.48
36.54
37.63
38.63
39.47
40.14
40.71
41.09
41.08
40.32
38.50
35.51
31.56
27.07
22.57
18.49
14.99
11.93
9.00
5.81
2.09
-2.25
-7.08
-12.13
-17.09
-21.75
-26.11
-30.37
-34.97
-40.42
-47.08
-54.95
-63.47
-71.54
-77.72
-80.61
-79.30
-73.61
-64.22
-52.47
-39.91
-27.94
-17.48
-8.89
-2.08
3.22
7.37
10.64
13.20
15.23
16.94
18.58
20.33
22.31
24.45
26.52
28.28
29.55
30.26
30.50
30.36
29.90
29.03
27.55
25.23
21.92
17.66
12.69
7.40
2.20
-2.62
-6.94
-10.89
-14.74
-18.81
-23.45
-28.90
-35.33
-42.78
-51.06
-59.63
-67.57
-73.72
-76.94
-76.53
-72.46
-65.44
-56.78
-47.96
-40.26
-34.55
-31.13
-29.86
-30.33
-32.05
-34.68
-37.98
-41.88
-46.35
-51.37
-56.82
-62.52
-68.09
-72.84
-75.81
-75.87
-72.02
-63.85
-51.75
-36.92
-20.95
-5.32
9.02
21.67
32.56
41.66
48.70
53.31
55.21
54.45
51.52
47.20
42.28
37.31
32.41
27.30
21.48
14.43
5.93
-3.83
-14.06
-23.53
-30.82
-34.65
-34.32
-29.77
-21.70
-11.23
0.30
11.78
22.35
31.54
39.10
44.94
49.08
51.70
53.16
53.97
54.71
55.80
57.40
59.38
61.42
63.18
64.50
65.41
66.04
66.50
66.72
66.48
65.52
63.66
60.95
57.65
54.10
50.59
47.22
43.86
40.29
36.35
32.00
27.41
22.83
18.47
14.38
10.44
6.41
1.95
-3.21
-9.33
-16.48
-24.49
-32.74
-40.22
-45.61
-47.68
-45.68
-39.64
-30.47
-19.58
-8.48
1.70
10.41
17.63
23.59
28.50
32.46
35.45
37.50
38.81
39.74
40.70
41.98
43.62
45.42
47.01
48.01
48.23
47.66
46.47
44.88
43.08
41.13
38.91
36.20
32.73
28.39
23.19
17.37
11.28
5.22
-0.64
-6.27
-11.80
-17.42
-23.33
-29.75
-36.86
-44.73
-53.11
-61.33
-68.29
-72.79
-73.83
-71.05
-64.85
-56.19
-46.31
-36.34
-27.11
-19.09
-12.50
-7.38
-3.68
-1.29
0.03
0.60
0.76
0.83
1.01
1.40
1.98
2.69
3.47
4.29
5.14
5.98
6.64
6.90
6.52
5.32
3.38
0.92
-1.80
-4.54
-7.29
-10.13
-13.29
-16.91
-21.16
-26.13
-31.91
-38.39
-45.16
-51.41
-56.05
-58.00
-56.52
-51.53
-43.65
-34.05
-24.04
-14.80
-7.08
-1.21
2.86
5.35
6.52
6.53
5.54
3.74
1.51
-0.65
-2.23
-2.87
-2.52
-1.47
-0.18
0.86
1.24
0.74
-0.73
-3.11
-6.33
-10.22
-14.61
-19.31
-24.09
-28.78
-33.32
-37.85
-42.70
-48.19
-54.42
-60.98
-66.90
-70.83
-71.44
-67.89
-60.18
-49.13
-36.08
-22.56
-9.81
1.35
10.51
17.65
22.91
26.53
28.83
30.12
30.77
31.17
31.68
32.48
33.58
34.76
35.72
36.18
35.95
34.97
33.28
30.94
27.97
24.43
20.39
16.00
11.40
6.68
1.90
-3.00
-8.13
-13.69
-19.94
-27.06
-35.00
-43.33
-51.12
-57.13
-60.16
-59.44
-54.96
-47.41
-37.98
-27.88
-18.11
-9.26
-1.60
4.81
10.00
14.04
17.03
19.14
20.59
21.65
22.58
23.59
24.72
25.90
26.98
27.76
28.10
27.97
27.37
26.33
24.82
22.77
20.14
16.92
13.20
9.13
4.90
0.66
-3.49
-7.55
-11.64
-16.03
-21.08
-27.16
-34.45
-42.75
-51.41
-59.31
-65.08
-67.46
-65.65
-59.58
-50.00
-38.26
-25.86
-14.10
-3.65
5.36
13.16
20.00
25.93
30.79
34.39
36.73
38.09
38.96
39.82
40.94
42.39
43.94
45.30
46.20
46.45
45.97
44.79
42.97
40.57
37.63
34.16
30.17
25.74
21.00
16.11
11.24
6.45
1.75
-2.94
-7.67
-12.49
-17.38
-22.41
-27.70
-33.51
-40.11
-47.61
-55.68
-63.48
-69.61
-72.59
-71.23
-65.15
-54.97
-42.07
-28.21
-14.90
-3.15
6.72
14.81
21.36
26.63
30.75
33.78
35.84
37.13
37.91
38.47
39.09
39.94
41.04
42.27
43.41
44.22
44.54
44.36
43.66
42.47
40.78
38.55
35.84
32.84
29.77
26.84
24.02
21.05
17.57
13.32
8.40
3.17
-1.81
-6.16
-9.87
-13.37
-17.31
-22.34
-28.77
-36.44
-44.71
-52.57
-58.85
-62.43
-62.49
-58.78
-51.60
-41.85
-30.78
-19.66
-9.50
-0.86
6.14
11.69
16.04
19.45
22.07
24.05
25.53
26.75
27.96
29.38
31.10
33.09
35.19
37.26
39.19
40.83
42.00
42.54
42.27
41.14
39.26
36.85
34.16
31.38
28.51
25.44
22.00
18.05
13.53
8.48
3.08
-2.47
-7.90
-13.05
-17.85
-22.49
-27.39
-33.04
-39.76
-47.42
-55.33
-62.26
-66.81
-67.81
-64.68
-57.64
-47.57
-35.77
-23.62
-12.28
-2.57
5.10
10.66
14.31
16.49
17.68
18.39
18.97
19.60
20.32
21.16
22.11
23.25
24.56
25.96
27.18
27.92
27.94
27.17
25.77
23.94
21.89
19.70
17.32
14.67
11.68
8.41
4.95
1.42
-2.05
-5.38
-8.55
-11.54
-14.35
-17.09
-19.92
-23.10
-26.99
-31.84
-37.73
-44.38
-51.10
-56.83
-60.43
-60.94
-57.84
-51.26
-41.89
-30.79
-19.15
-8.04
1.76
9.79
15.90
20.13
22.73
24.05
24.49
24.49
24.43
24.57
25.01
25.74
26.65
27.61
28.49
29.18
29.59
29.63
29.28
28.50
27.28
25.54
23.22
20.23
16.63
12.59
8.38
4.27
0.43
-3.13
-6.52
-9.90
-13.41
-17.19
-21.37
-26.16
-31.71
-37.99
-44.62
-50.80
-55.44
-57.42
-55.96
-50.89
-42.70
-32.45
-21.40
-10.72
-1.22
6.65
12.76
17.14
19.91
21.20
21.24
20.40
19.13
17.98
17.36
17.52
18.45
19.92
21.60
23.20
24.53
25.58
26.42
27.10
27.64
27.90
27.66
26.71
24.84
21.99
18.29
14.01
9.53
5.26
1.49
-1.75
-4.66
-7.67
-11.23
-15.70
-21.15
-27.33
-33.59
-39.08
-42.86
-44.14
-42.54
-38.12
-31.45
-23.37
-14.80
-6.56
0.73
6.67
11.04
13.77
14.96
14.85
13.88
12.54
11.28
10.42
10.04
10.10
10.44
10.98
11.65
12.45
13.30
14.00
14.25
13.74
12.36
10.20
7.52
4.61
1.63
-1.46
-4.76
-8.33
-12.17
-16.07
-19.83
-23.31
-26.47
-29.36
-32.15
-35.04
-38.37
-42.44
-47.45
-53.24
-59.15
-64.06
-66.72
-66.05
-61.55
-53.52
-42.88
-30.90
-18.87
-7.78
1.80
9.67
15.86
20.57
24.04
26.53
28.31
29.59
30.56
31.39
32.16
32.93
33.68
34.38
34.97
35.42
35.70
35.74
35.48
34.76
33.50
31.68
29.38
26.79
24.18
21.74
19.60
17.74
16.02
14.23
12.18
9.78
7.01
3.97
0.82
-2.37
-5.66
-9.25
-13.40
-18.32
-23.89
-29.67
-34.82
-38.33
-39.27
-37.14
-31.96
-24.40
-15.57
-6.74
1.05
7.13
11.35
13.95
15.38
16.06
16.33
16.42
16.51
16.82
17.57
18.90
20.74
22.81
24.73
26.17
27.00
27.21
26.90
26.10
24.76
22.80
20.19
17.02
13.45
9.72
6.02
2.47
-0.87
-4.02
-7.10
-10.30
-13.87
-17.93
-22.47
-27.28
-32.05
-36.53
-40.62
-44.38
-48.03
-51.84
-56.11
-61.10
-66.83
-73.01
-78.90
-83.33
-85.00
-82.90
-76.71
-67.03
-55.14
-42.64
-30.94
-20.89
-12.74
-6.29
-1.17
2.98
6.44
9.47
12.29
15.11
18.01
20.90
23.66
26.06
28.01
29.49
30.56
31.30
31.72
31.77
31.30
30.21
28.44
26.09
23.41
20.66
18.05
15.59
13.12
10.44
7.47
4.32
1.24
-1.53
-3.91
-6.08
-8.33
-11.00
-14.35
-18.50
-23.50
-29.26
-35.45
-41.42
-46.23
-48.79
-48.24
-44.24
-37.15
-27.94
-17.86
-8.11
0.50
7.61
13.21
17.42
20.35
22.08
22.69
22.48
21.88
21.45
21.64
22.62
24.24
26.14
27.89
