1520863807.00
64.000000
-0.00
-0.00
-0.00
-0.00
-0.00
-0.00
-0.00
-0.00
-0.00
-0.00
0.00
0.01
0.01
-0.00
-0.03
-0.05
-0.05
0.00
0.13
0.36
0.66
1.01
1.37
1.72
2.06
2.40
2.79
3.24
3.80
4.42
5.06
5.66
6.20
6.68
7.15
7.68
8.31
9.14
10.09
11.04
11.88
12.56
13.14
13.76
14.65
15.96
17.91
20.32
22.90
25.38
27.58
29.57
31.68
34.32
37.81
42.54
48.15
54.10
59.83
64.97
69.58
74.14
79.34
85.71
93.76
103.00
112.62
121.73
129.77
136.75
143.30
150.75
157.77
166.64
177.95
191.79
206.97
220.57
228.25
225.36
208.53
176.87
132.76
80.05
23.07
-34.94
-92.44
-149.16
-205.23
-260.37
-313.74
-363.87
-409.83
-450.91
-486.50
-515.74
-537.23
-549.22
-549.96
-538.37
-514.21
-478.67
-433.88
-382.45
-327.02
-269.84
-212.63
-156.66
-102.95
-52.37
-5.90
35.58
71.43
101.35
125.50
144.38
158.69
169.15
176.37
180.75
182.57
182.07
179.51
175.23
169.65
163.18
156.15
148.81
141.30
133.69
126.02
118.33
110.69
103.16
95.80
88.68
81.83
75.25
68.95
62.95
57.25
51.86
46.78
42.03
37.59
33.45
29.61
26.07
22.81
19.83
17.11
14.67
12.48
10.54
8.83
7.35
6.07
4.97
4.05
3.27
2.62
2.09
1.65
1.30
1.01
0.79
0.61
0.47
0.37
0.29
0.23
0.19
0.16
0.15
0.15
0.16
0.17
0.19
0.22
0.25
0.29
0.33
0.38
0.42
0.47
0.52
0.57
0.62
0.67
0.73
0.79
0.86
0.93
1.01
1.09
1.19
1.30
1.42
1.56
1.72
1.89
2.08
2.30
2.53
2.80
3.08
3.41
3.76
4.14
4.56
5.01
5.50
6.03
6.60
7.21
7.87
8.56
9.30
10.08
10.91
11.78
12.69
13.66
14.68
15.76
16.91
18.12
19.36
20.63
21.86
22.99
23.93
24.55
24.74
24.37
23.37
21.64
19.19
16.04
12.27
8.03
3.53
-1.06
-5.50
-9.62
-13.25
-16.31
-18.69
-20.37
-21.31
-21.56
-21.16
-20.22
-18.86
-17.24
-15.49
-13.70
-11.94
-10.19
-8.46
-6.76
-5.06
-3.40
-1.83
-0.40
0.88
2.07
3.32
4.68
6.18
7.81
9.47
10.97
12.14
12.91
13.42
14.04
14.90
16.18
17.91
19.92
21.81
23.19
23.87
24.04
24.23
24.71
25.75
27.41
29.32
30.78
31.09
29.79
27.01
23.40
19.18
14.70
9.99
4.58
-2.52
-12.73
-27.99
-50.81
-78.96
-111.24
-145.13
-176.66
-201.04
-214.14
-213.94
-201.25
-179.34
-152.43
-124.99
-99.80
-77.96
-59.54
-44.23
-31.74
-21.73
-13.53
-6.08
1.23
8.88
16.83
24.62
31.58
37.21
41.46
44.76
47.95
51.54
55.88
60.89
66.04
70.43
73.15
73.63
71.76
68.06
63.18
57.92
52.85
48.10
43.43
38.39
32.63
26.09
18.99
11.68
4.60
-1.87
-7.31
-11.30
-13.33
-12.93
-9.81
-4.01
4.04
13.60
23.72
33.38
41.91
49.12
55.54
62.27
70.67
81.78
95.79
111.79
127.89
141.76
151.32
155.20
153.04
145.31
132.96
117.12
98.84
79.08
58.75
38.76
19.98
3.16
-11.18
-22.83
-31.77
-38.17
-42.29
-44.44
-45.05
-44.54
-43.28
-41.59
-39.71
-37.75
-35.90
-34.46
-33.87
-34.60
-37.00
-41.10
-46.49
-52.44
-58.11
-62.77
-65.97
-67.51
-67.45
-65.97
-63.28
-59.57
-55.04
-49.98
-44.81
-40.05
-36.27
-33.90
-33.04
-33.38
-34.22
-34.71
-34.14
-32.25
-29.24
-25.73
-22.42
-19.89
-18.43
-18.08
-18.75
-20.27
-22.41
-24.84
-27.10
-28.67
-29.19
-28.61
-27.31
-25.99
-25.41
-26.09
-28.12
-31.10
-34.18
-36.38
-36.75
-34.64
-29.78
-22.42
-13.21
-3.16
6.61
15.21
22.11
27.27
31.02
33.86
36.28
38.65
41.23
44.17
47.52
51.12
54.57
57.30
58.67
58.21
55.82
51.85
46.92
41.64
36.46
31.48
26.60
21.68
16.70
11.79
7.19
3.06
-0.58
-3.93
-7.28
-10.92
-14.89
-18.97
-22.71
-25.60
-27.22
-27.33
-25.94
-23.31
-19.86
-16.11
-12.55
-9.59
-7.44
-6.08
-5.30
-4.83
-4.46
-4.15
-3.99
-4.11
-4.60
-5.32
-6.04
-6.47
-6.40
-5.83
-4.95
-4.10
-3.67
-3.89
-4.83
-6.34
-8.14
-9.99
-11.75
-13.46
-15.30
-17.42
-19.92
-22.81
-25.95
-29.14
-32.03
-34.17
-35.05
-34.27
-31.70
-27.51
-22.17
-16.20
-10.02
-3.85
2.19
7.89
12.92
16.83
19.26
20.18
19.83
18.70
17.22
15.64
14.00
12.27
10.48
8.75
7.22
5.85
4.36
2.31
-0.69
-4.77
-9.71
-15.06
-20.34
-25.22
-29.68
-33.93
-38.31
-43.17
-48.72
-54.95
-61.63
-68.20
-73.92
-77.86
-79.19
-77.30
-72.02
-63.75
-53.34
-41.98
-30.87
-20.94
-12.64
-5.95
-0.55
3.97
7.87
11.22
13.90
15.85
17.09
17.85
18.43
19.15
20.15
21.39
22.73
23.90
24.77
25.28
25.54
25.75
26.13
26.83
27.86
29.10
30.26
30.95
30.85
29.81
28.01
25.93
24.29
23.78
24.87
27.66
31.97
37.42
43.54
50.01
56.61
63.23
69.87
76.50
82.94
88.82
93.50
96.18
96.13
92.91
86.57
77.60
66.86
55.28
43.63
32.49
22.29
13.48
6.61
2.30
0.88
2.16
5.17
8.39
10.19
9.44
5.85
0.22
-5.72
-9.58
-8.83
-1.48
13.09
33.45
56.15
76.63
90.81
96.72
95.31
90.03
85.21
84.36
88.83
97.78
109.01
120.25
130.11
138.28
145.30
151.91
158.64
165.59
172.42
178.52
183.10
185.29
184.27
179.32
169.90
155.73
136.97
114.35
89.08
62.78
37.02
12.98
-8.90
-28.86
-47.65
-66.07
-84.57
-103.00
-120.71
-136.88
-150.81
-162.16
-170.96
-177.32
-181.28
-182.72
-181.45
-177.42
-170.92
-162.57
-153.21
-143.66
-134.57
-126.33
-119.12
-112.90
-107.54
-102.76
-98.21
-93.53
-88.48
-83.04
-77.43
-71.97
-66.97
-62.55
-58.56
-54.75
-50.86
-46.87
-43.03
-39.91
-38.14
-38.01
-39.30
-41.26
-42.94
-43.67
-43.38
-42.70
-42.53
-43.66
-46.39
-50.42
-55.08
-59.52
-62.94
-64.65
-64.07
-60.83
-54.94
-46.90
-37.58
-27.98
-18.79
-10.27
-2.31
5.23
12.31
18.58
23.68
27.48
30.23
32.47
34.70
37.16
39.81
42.51
45.17
47.89
50.80
53.70
55.99
56.67
54.85
50.01
42.44
33.00
22.89
13.18
4.57
-2.70
-8.61
-13.31
-17.00
-19.93
-22.47
-25.02
-27.85
-30.94
-33.80
-35.67
-35.80
-33.81
-29.90
-24.84
-19.67
-15.29
-12.17
-10.36
-9.64
-9.79
-10.75
-12.50
-14.95
-17.77
-20.37
-22.29
-23.40
-24.05
-24.88
-26.43
-28.78
-31.57
-34.14
-36.00
-37.14
-38.00
-39.22
-41.23
-44.10
-47.45
-50.70
-53.39
-55.33
-56.64
-57.59
-58.49
-59.63
-61.15
-62.99
-64.85
-66.13
-66.11
-64.13
-59.92
-53.67
-46.00
-37.74
-29.66
-22.24
-15.69
-10.00
-5.08
-0.82
2.85
6.01
8.80
11.29
13.51
15.41
16.95
18.16
19.14
20.09
21.16
22.31
23.29
23.73
23.35
22.10
20.23
18.08
15.94
13.84
11.48
8.50
4.50
-0.66
-6.92
-13.98
-21.39
-28.58
-34.91
-39.74
-42.59
-43.21
-41.66
-38.20
-33.20
-27.10
-20.33
-13.32
-6.61
-0.68
4.06
7.45
9.58
10.70
11.13
11.20
11.09
10.95
10.90
11.07
11.53
12.30
13.24
14.14
14.73
14.79
14.20
12.97
11.21
9.03
6.49
3.55
0.10
-3.92
-8.52
-13.53
-18.51
-22.90
-25.99
-27.02
-25.49
-21.22
-14.52
-6.19
2.69
11.08
18.22
23.78
27.75
30.19
31.13
30.55
28.56
25.57
22.25
19.29
17.23
16.11
15.64
15.29
14.66
13.54
12.02
10.25
8.35
6.34
4.08
1.36
-2.11
-6.64
-12.47
-19.65
-27.82
-36.32
-44.16
-50.30
-53.95
-54.68
-52.51
-47.84
-41.36
-33.92
-26.45
-19.73
-14.31
-10.38
-7.79
-6.28
-5.53
-5.40
-5.77
-6.44
-7.07
-7.25
-6.66
-5.37
-3.94
-3.14
-3.68
-5.85
-9.35
-13.55
-17.88
-22.10
-26.46
-31.42
-37.36
-44.38
-52.27
-60.68
-69.26
-77.54
-84.86
-90.15
-92.17
-89.80
-82.57
-70.83
-55.68
-38.60
-21.01
-4.15
10.97
23.54
32.93
38.86
41.53
41.71
40.51
39.11
38.41
38.85
40.41
42.73
45.27
47.48
48.89
49.21
48.33
46.34
43.42
39.81
35.69
31.17
26.20
20.53
13.83
5.89
-3.13
-12.54
-21.09
-27.27
-29.76
-27.87
-21.70
-12.06
-0.20
12.61
25.25
36.83
46.66
54.32
59.61
62.71
64.09
64.42
64.43
64.70
65.67
67.50
70.14
73.35
76.68
79.64
81.71
82.49
81.80
79.68
76.39
72.29
67.74
62.95
57.89
52.35
46.00
38.45
29.45
18.95
7.23
-5.04
-16.78
-26.62
-33.16
-35.34
-32.83
-26.13
-16.43
-5.23
6.09
16.56
25.71
33.42
39.72
44.61
48.08
50.17
51.02
51.08
50.89
50.96
51.52
52.41
53.27
53.69
53.56
53.00
52.28
51.53
50.52
48.80
45.91
41.73
36.54
30.86
25.20
19.79
14.47
8.74
2.04
-6.09
-15.79
-26.67
-37.80
-47.73
-54.90
-58.00
-56.53
-50.88
-42.25
-32.09
-21.73
-11.95
-2.94
5.52
13.71
21.66
29.11
35.57
40.56
43.91
45.90
47.18
48.49
50.34
52.74
55.25
57.25
58.32
58.46
58.02
57.44
56.94
56.35
55.19
52.96
49.39
44.54
38.86
32.93
27.24
21.96
16.95
11.82
6.14
-0.34
-7.69
-15.77
-24.39
-33.23
-41.84
-49.44
-55.00
-57.39
-55.74
-49.82
-40.20
-28.15
-15.29
-3.07
7.51
16.04
22.57
27.40
30.86
33.24
34.80
35.83
36.68
37.67
38.99
40.61
42.35
43.94
45.24
46.23
47.00
47.55
47.77
47.45
46.38
44.54
42.04
39.09
35.77
32.02
27.69
22.76
17.42
12.14
7.34
3.16
-0.68
-4.84
-10.05
-16.85
-25.32
-35.02
-45.09
-54.44
-61.98
-66.72
-67.99
-65.56
-59.65
-50.94
-40.50
-29.50
-19.00
-9.82
-2.36
3.27
7.24
9.85
11.44
12.38
12.97
13.60
14.56
16.04
18.06
20.45
22.89
25.06
26.79
28.06
29.01
29.78
30.44
30.92
31.12
30.83
29.85
28.03
25.32
21.82
17.80
13.66
9.80
6.48
3.62
0.92
-2.10
-5.97
-11.07
-17.44
-24.85
-32.63
-39.82
-45.25
-47.84
-46.88
-42.21
-34.38
-24.42
-13.62
-3.19
5.89
13.09
18.28
21.62
23.52
24.45
24.83
25.00
25.15
25.41
25.87
26.59
27.64
28.94
30.35
31.62
32.45
32.62
32.04
30.76
28.98
26.92
24.73
22.39
19.67
16.29
12.08
7.19
2.05
-2.85
-7.21
-11.16
-15.17
-19.76
-25.25
-31.52
-38.10
-44.41
-49.93
-54.28
-57.04
-57.73
-55.79
-50.91
-43.28
-33.64
-23.17
-13.03
-4.16
2.96
8.24
11.85
14.09
15.30
15.79
15.85
15.73
15.61
15.69
16.11
16.94
18.13
19.46
20.53
20.93
20.42
19.06
17.23
15.42
13.96
12.82
11.55
9.59
6.45
2.12
-2.94
-8.02
-12.51
-16.22
-19.40
-22.58
-26.20
-30.32
-34.68
-38.81
-42.41
-45.39
-47.77
-49.47
-50.08
-48.94
-45.43
-39.33
-31.09
-21.76
-12.63
-4.91
0.74
4.19
5.73
5.91
5.25
4.26
3.37
2.88
3.02
3.82
5.12
6.62
7.99
8.99
9.61
9.98
10.35
10.92
11.72
12.57
13.12
12.92
11.65
9.21
5.79
1.84
-2.10
-5.65
-8.68
-11.38
-14.19
-17.58
-21.92
-27.25
-33.17
-38.94
-43.67
-46.56
-47.08
-45.20
-41.23
-35.82
-29.69
-23.55
-17.97
-13.36
-10.01
-8.02
-7.31
-7.52
-8.07
-8.37
-7.93
-6.61
-4.53
-2.06
0.45
2.73
4.68
6.33
7.66
8.61
9.08
8.94
8.17
6.78
4.82
2.30
-0.71
-4.10
-7.67
-11.20
-14.56
-17.78
-21.17
-25.24
-30.46
-37.07
-44.84
-52.94
-60.13
-65.05
-66.65
-64.56
-59.20
-51.63
-43.17
-34.98
-27.81
-21.97
-17.46
-14.18
-12.04
-10.98
-10.90
-11.48
-12.32
-12.96
-12.98
-12.17
-10.44
-7.82
-4.36
-0.16
4.61
9.58
14.26
18.06
20.51
21.46
21.03
19.70
18.06
16.58
15.37
14.13
12.25
9.04
4.02
-2.93
-11.32
-20.15
-28.09
-33.74
-36.06
-34.63
-29.71
-22.22
-13.41
-4.58
3.24
9.42
13.78
16.46
17.81
18.21
18.05
17.61
17.04
16.31
15.27
13.81
11.90
9.67
7.38
5.30
3.57
2.18
1.00
-0.13
-1.26
-2.40
-3.56
-4.93
-6.72
-9.23
-12.63
-16.92
-21.98
-27.61
-33.51
-39.18
-43.89
-46.75
-47.00
-44.28
-38.85
-31.55
-23.43
-15.41
-8.11
-1.79
3.46
7.55
10.35
11.76
11.83
10.81
9.11
7.15
5.34
3.98
3.25
3.14
3.54
4.16
4.62
4.57
3.77
2.23
0.17
-2.13
-4.51
-7.08
-10.13
-14.00
-18.94
-24.95
-31.90
-39.44
-47.19
-54.54
-60.65
-64.50
-65.24
-62.38
-56.19
-47.57
-37.75
-27.92
-18.82
-10.79
-3.90
1.83
6.24
9.13
10.44
10.37
9.41
8.27
7.56
7.57
8.31
9.42
10.52
11.28
11.61
11.54
11.11
10.30
8.92
6.81
3.91
0.30
-3.82
-8.32
-13.24
-18.85
-25.46
-33.26
-41.94
-50.54
-57.60
-61.55
-61.31
-56.79
-48.94
-39.39
-29.67
-20.74
-12.75
-5.35
1.84
8.77
15.01
19.99
23.29
24.78
24.69
23.45
21.61
19.70
18.28
17.66
17.96
18.91
20.11
21.14
21.69
21.57
20.62
18.73
15.91
12.37
8.49
4.70
1.13
-2.51
-6.88
-12.66
-20.10
-28.78
-37.66
-45.34
-50.50
-52.25
-50.36
-45.14
-37.29
-27.70
-17.23
-6.66
3.39
12.37
19.86
25.59
29.54
31.90
33.09
33.60
33.85
34.18
34.79
35.69
36.79
37.89
38.67
38.92
38.57
37.81
36.92
36.12
35.38
34.40
32.68
29.81
25.65
20.44
14.67
8.92
3.53
-1.39
-6.10
-11.02
-16.64
-23.32
-31.18
-39.97
-48.96
-57.02
-62.76
-64.88
-62.64
-56.16
-46.33
-34.64
-22.60
-11.36
-1.48
6.86
13.72
19.14
23.06
25.54
26.91
27.65
28.36
29.53
31.33
33.57
35.83
37.63
38.67
38.88
38.39
37.45
36.23
34.71
32.78
30.30
27.14
23.40
19.16
14.49
9.39
3.77
-2.41
-9.00
-15.73
-22.23
-28.36
-34.27
-40.47
-47.59
-56.19
-66.54
-78.47
-91.42
-104.49
-116.58
-126.50
-133.24
-136.04
-134.76
-129.89
-122.58
-114.32
-106.54
-100.27
-95.83
-92.85
-90.39
-87.26
-82.31
-74.81
-64.45
-51.45
-36.35
-19.86
-2.74
14.21
30.29
44.93
57.79
68.92
78.65
87.44
95.56
102.98
109.35
114.29
117.66
119.63
120.60
121.01
121.13
121.06
120.74
120.14
119.19
117.78
115.60
112.22
107.17
100.08
90.93
79.93
67.54
54.24
40.48
26.82
13.93
2.77
-5.56
-10.11
-10.47
-7.01
-0.93
6.23
13.10
18.92
23.65
27.69
31.47
35.08
38.25
40.57
41.87
42.37
42.53
42.94
43.92
45.58
47.71
50.12
52.69
55.40
58.35
61.54
64.81
67.83
70.20
71.52
71.53
70.16
67.60
64.14
60.19
56.11
52.09
48.20
44.31
40.18
35.65
30.64
25.22
19.45
13.34
6.67
-0.91
-9.73
-19.87
-30.91
-41.96
-51.78
-59.10
-62.89
-62.64
-58.41
-50.86
-41.05
-30.17
-19.40
-9.60
-1.40
4.89
9.10
11.29
11.74
10.96
9.78
8.97
9.17
10.60
13.04
16.01
19.02
21.71
23.80
25.10
25.38
24.55
22.68
20.10
17.27
14.53
11.95
9.30
6.25
2.52
-1.85
-6.70
-11.77
-16.85
-21.82
-26.67
-31.37
-35.98
-40.69
-45.79
-51.57
-58.03
-64.64
-70.46
-74.31
-75.08
-72.16
-65.60
-56.07
-44.70
-32.80
-21.54
-11.79
-3.97
1.84
5.73
7.88
8.56
8.18
7.29
6.59
6.73
8.05
10.62
14.13
18.07
21.92
25.13
27.34
28.39
28.28
27.24
25.57
23.53
21.10
18.14
14.42
9.85
4.70
-0.62
-5.76
-10.56
-15.24
-20.23
-25.88
-32.34
-39.48
-46.95
-54.31
-61.03
-66.48
-70.00
-70.96
-68.89
-63.72
-55.85
-46.06
-35.33
-24.60
-14.60
-5.82
1.49
7.23
11.39
14.07
15.55
16.21
16.53
16.99
17.97
19.67
22.04
24.85
27.73
30.31
32.28
33.50
33.97
33.72
32.80
31.05
28.29
24.36
19.31
13.43
7.29
1.44
-3.79
-8.42
-12.80
-17.35
-22.39
-28.09
-34.46
-41.49
-49.13
-57.11
-64.82
-71.29
-75.34
-76.08
-73.19
-67.06
-58.57
-48.75
-38.37
-27.94
-17.79
-8.15
0.60
8.05
13.80
17.66
19.69
20.24
19.91
19.36
19.19
19.79
21.27
23.49
26.13
28.84
31.28
33.21
34.46
34.95
34.64
33.58
31.77
29.25
26.03
22.19
17.87
13.26
8.56
3.88
-0.78
-5.44
-10.13
-14.86
-19.69
-24.80
-30.50
-37.08
-44.59
-52.63
-60.28
-66.32
-69.58
-69.38
-65.63
-58.87
-49.98
-39.87
-29.32
-18.94
-9.22
-0.55
6.73
12.44
16.58
19.38
21.21
22.49
23.59
24.72
25.97
27.31
28.73
30.21
31.70
33.10
34.25
34.92
34.90
34.11
32.60
30.50
27.95
24.99
21.62
17.79
13.56
9.06
4.44
-0.17
-4.79
-9.48
-14.36
-19.56
-25.26
-31.62
-38.77
-46.61
-54.69
-62.18
-68.05
-71.28
-71.15
-67.47
-60.52
-51.07
-40.16
-28.84
-18.05
-8.44
-0.27
6.45
11.82
15.98
18.98
20.90
21.99
22.69
23.54
25.04
27.32
30.13
33.03
35.55
37.42
38.59
39.10
38.96
38.11
36.45
33.91
30.54
26.45
21.81
16.79
11.60
6.48
1.65
-2.78
-6.92
-11.06
-15.60
-20.93
-27.24
-34.52
-42.48
-50.64
-58.32
-64.69
-68.82
-69.95
-67.65
-61.95
-53.44
-42.98
-31.57
-20.13
-9.42
0.03
7.90
14.09
18.70
21.89
23.91
25.02
25.57
25.97
26.68
28.04
30.09
32.64
35.15
37.13
38.24
38.50
38.15
37.51
36.70
35.56
33.68
30.60
26.17
20.59
14.41
8.34
2.96
-1.55
-5.40
-9.19
-13.59
-19.12
-26.00
-34.04
-42.70
-51.30
-59.07
-65.30
-69.30
-70.50
-68.51
-63.27
-55.16
-44.96
-33.73
-22.54
-12.20
-3.14
4.50
10.73
15.54
18.90
20.85
21.60
21.63
21.52
21.86
22.98
24.85
27.14
29.42
31.26
32.51
33.14
33.23
32.78
31.59
29.38
25.95
21.36
15.98
10.37
5.00
0.08
-4.59
-9.48
-15.15
-21.96
-29.85
-38.25
-46.19
-52.59
-56.49
-57.33
-55.08
-50.00
-42.62
-33.45
-23.01
-11.86
-0.73
9.43
17.75
23.52
26.56
27.19
26.16
24.31
22.33
20.60
19.24
18.27
17.76
17.89
18.81
20.44
22.40
24.06
24.76
24.00
21.66
17.91
13.11
7.61
1.68
-4.47
-10.64
-16.69
-22.57
-28.42
-34.57
-41.39
-49.05
-57.28
-65.19
-71.40
-74.38
-72.99
-66.93
-56.84
-44.17
-30.62
-17.62
-5.99
3.99
12.36
19.17
24.34
27.84
29.84
30.84
31.53
32.50
34.03
35.98
37.99
39.69
40.91
41.69
42.16
42.43
42.43
41.95
40.63
38.03
33.76
27.67
19.93
11.08
1.89
-6.96
-15.17
-22.93
-30.87
-39.69
-49.81
-61.10
-72.72
-83.32
-91.28
-95.18
-94.12
-87.94
-77.28
-63.35
-47.76
-32.14
-17.89
-5.96
3.26
9.90
14.47
17.65
19.95
21.61
22.53
22.49
21.45
19.72
17.86
16.52
16.07
16.49
17.40
18.34
18.98
19.27
19.28
19.04
18.31
16.61
13.43
8.52
2.06
-5.37
-13.04
-20.33
-27.05
-33.37
-39.81
-46.88
-54.97
-64.01
-73.54
-82.67
-90.26
-95.21
-96.65
-94.03
-87.06
-75.64
-60.02
-40.94
-19.89
1.08
19.73
34.39
44.39
50.20
52.96
53.92
53.96
53.53
52.86
52.21
51.90
52.15
52.85
53.55
53.64
52.73
50.73
47.82
44.16
39.85
34.86
29.18
23.03
16.73
10.65
4.94
-0.53
-6.21
-12.62
-20.29
-29.55
-40.49
-52.93
-66.28
-79.55
-91.32
-99.88
-103.54
-101.21
-92.71
-78.97
-61.91
-43.92
-27.14
-13.01
-2.06
6.05
12.18
17.40
22.63
28.43
34.80
41.30
47.19
51.84
54.98
56.83
58.00
59.18
60.85
63.05
65.42
67.35
68.15
67.27
64.36
59.38
52.65
44.75
36.37
28.10
20.20
12.54
4.65
-4.07
-14.16
-25.74
-38.27
-50.53
-60.61
-66.55
-66.75
-60.63
-48.73
-32.71
-14.81
2.77
18.34
31.05
40.74
47.77
52.66
55.85
57.56
57.98
57.35
56.04
54.52
53.20
52.37
52.05
52.15
52.57
53.23
54.06
54.85
55.20
54.56
52.38
48.41
42.79
36.01
28.77
21.59
14.63
7.71
0.31
-8.06
-17.70
-28.46
-39.64
-50.02
-58.04
-62.12
-61.01
-54.21
-42.16
-26.07
-7.83
10.58
27.43
41.45
51.98
59.00
62.90
64.40
64.30
63.33
62.01
60.64
59.33
58.11
56.91
55.70
54.46
53.22
52.03
50.95
49.92
48.76
47.05
44.37
40.35
34.87
28.16
20.75
13.22
5.97
-1.01
-8.21
-16.45
-26.47
-38.52
-52.03
-65.59
-77.13
-84.51
-86.20
-81.63
-71.46
-57.21
-40.89
-24.42
-9.27
3.76
14.38
22.70
28.97
33.47
36.48
38.39
39.68
40.88
42.42
44.48
46.89
49.23
51.11
52.27
52.75
52.71
52.22
51.16
49.20
45.97
41.35
35.51
28.89
22.04
15.35
9.01
2.95
-3.09
-9.53
-16.91
-25.71
-36.07
-47.61
-59.21
-69.19
-75.70
-77.25
-73.27
-64.15
-51.21
-36.25
-21.09
-7.23
4.34
13.11
19.03
22.32
23.41
22.90
21.43
19.69
18.27
17.66
18.11
19.59
21.80
24.21
26.26
27.53
27.83
27.26
26.06
24.34
22.08
19.06
15.01
9.92
4.04
-2.17
-8.39
-14.58
-21.03
-28.09
-35.84
-43.77
-50.78
-55.46
-56.59
-53.46
-46.18
-35.59
-23.04
-10.03
2.20
12.82
21.56
28.50
33.90
37.94
40.75
42.46
43.32
43.78
44.40
45.60
47.41
49.58
51.58
53.01
53.77
54.09
54.22
54.16
53.54
51.69
48.03
42.39
35.26
27.58
20.38
14.37
9.63
5.64
1.51
-3.70
-10.74
-19.93
-31.02
-42.96
-54.09
-62.38
-65.99
-63.96
-56.58
-45.31
-32.29
-19.59
-8.59
0.19
6.89
11.93
15.59
18.00
19.28
19.75
19.95
20.50
21.84
23.96
26.52
29.04
31.13
32.67
33.75
34.44
34.67
34.20
32.68
29.94
25.99
21.15
15.82
10.35
4.89
-0.65
-6.56
-13.23
-21.06
-30.24
-40.59
-51.32
-61.07
-68.11
-70.82
-68.32
-60.81
-49.61
-36.67
-23.90
-12.57
-3.14
4.58
10.97
16.19
20.19
22.80
23.99
24.03
23.48
22.89
22.69
23.04
23.82
24.72
25.40
25.54
24.95
23.48
21.12
17.83
13.66
8.66
2.96
-3.20
-9.59
-16.10
-22.81
-30.02
-38.06
-46.86
-55.76
-63.44
-68.24
-68.76
-64.41
-55.68
-44.01
-31.19
-18.82
-7.84
1.49
9.25
15.60
20.53
23.98
25.97
26.76
26.88
26.87
27.13
27.73
28.49
29.09
29.30
28.99
28.14
26.76
24.82
22.33
19.30
15.86
12.16
8.29
4.17
-0.33
-5.43
-11.35
-18.13
-25.75
-33.88
-42.04
-49.45
-55.07
-57.87
-56.96
-52.00
-43.26
-31.70
-18.75
-6.00
5.12
13.66
19.33
22.42
23.63
23.73
23.35
22.84
22.38
22.08
22.03
22.30
22.79
23.34
23.74
23.83
23.62
23.12
22.29
20.87
18.55
15.10
10.56
5.26
-0.33
-5.76
-10.79
-15.40
-19.85
-24.60
-30.16
-36.87
-44.58
-52.51
-59.23
-63.10
-62.86
-58.12
-49.45
-38.25
-26.20
-14.85
-5.26
2.08
7.12
10.14
11.60
12.01
11.82
11.36
10.87
10.50
10.31
10.30
10.39
10.45
10.35
10.05
9.56
8.88
7.91
6.52
4.56
2.05
-0.88
-4.01
-7.31
-10.99
-15.42
-21.01
-27.88
-35.72
-43.75
-50.91
-56.10
-58.33
-56.97
-51.90
-43.60
-33.09
-21.63
-10.52
-0.80
6.98
12.63
16.28
18.23
18.80
18.28
17.04
15.44
13.86
12.69
12.19
12.44
13.28
14.30
14.99
14.92
13.89
11.96
9.38
6.33
2.84
-1.16
-5.76
-10.92
-16.34
-21.77
-27.13
-32.55
-38.37
-44.75
-51.28
-56.92
-60.27
-60.03
-55.60
-47.34
-36.49
-24.69
-13.51
-3.93
3.73
9.59
13.94
17.02
18.89
19.63
19.39
18.47
17.21
15.97
14.94
14.29
14.15
14.56
15.40
16.26
16.52
15.55
13.03
9.12
4.41
-0.45
-5.01
-9.17
-13.17
-17.38
-22.17
-27.77
-34.32
-41.69
-49.39
-56.44
-61.51
-63.24
-60.77
-54.05
-43.98
-32.10
-20.13
-9.41
-0.67
6.02
10.95
14.50
16.90
18.25
18.58
18.12
17.32
16.68
16.64
17.28
18.30
19.21
19.58
19.20
18.22
16.88
15.39
13.82
12.06
9.94
7.30
4.07
0.20
-4.30
-9.36
-14.93
-21.01
-27.57
-34.62
-41.98
-49.23
-55.64
-60.19
-61.91
-60.10
-54.64
-46.05
-35.39
-23.99
-13.10
-3.65
3.94
9.66
13.79
16.68
18.59
19.71
20.20
20.34
20.44
20.82
21.63
22.69
23.66
24.11
23.84
22.94
21.79
20.72
19.88
18.96
17.39
14.59
10.26
4.58
-1.83
-8.16
-13.73
-18.26
-21.94
-25.42
-29.46
-34.81
-41.73
-49.96
-58.52
-65.90
-70.41
-70.72
-66.20
-57.28
-45.31
-32.17
-19.68
-9.10
-0.82
5.47
10.41
14.53
18.02
20.72
22.42
23.17
23.38
23.69
24.69
26.61
29.21
31.85
33.84
34.71
34.43
33.36
32.01
30.71
29.45
27.86
25.43
21.78
16.91
11.19
5.17
-0.62
-5.86
-10.47
-14.59
-18.58
-22.94
-28.25
-34.98
-43.20
-52.35
-61.16
-67.97
-71.19
-69.83
-63.83
-54.05
-41.93
-28.99
-16.48
-5.18
4.53
12.47
18.56
22.82
25.44
26.84
27.60
28.25
29.15
30.37
31.80
33.27
34.66
35.86
36.74
37.12
36.83
35.87
34.47
32.98
31.64
30.23
28.28
25.15
20.56
14.78
8.56
2.71
-2.26
-6.45
-10.41
-14.84
-20.26
-26.81
-34.32
-42.34
-50.31
-57.47
-62.83
-65.34
-64.16
-59.04
-50.42
-39.41
-27.35
-15.50
-4.73
4.46
11.83
17.29
20.74
22.26
22.11
20.85
19.31
18.33
18.57
20.23
23.10
26.55
29.84
32.43
34.18
35.28
36.08
36.66
36.78
35.94
33.73
30.02
25.14
19.72
14.31
9.31
4.73
0.40
-3.94
-8.59
-13.82
-19.84
-26.76
-34.55
-42.83
-50.93
-57.90
-62.71
-64.43
-62.46
-56.66
-47.52
-36.09
-23.73
-11.71
-1.02
7.88
14.87
19.98
23.24
24.74
24.74
23.76
22.39
21.16
20.36
20.04
20.12
20.62
21.66
23.31
25.43
27.63
29.33
30.00
29.27
27.05
23.46
18.80
13.47
8.00
2.89
-1.61
-5.60
-9.54
-14.09
-19.78
-26.93
-35.37
-44.42
-53.00
-59.66
-63.02
-62.02
-56.32
-46.47
-33.84
-20.15
-7.17
3.74
11.74
16.61
18.70
18.71
17.60
16.24
15.28
14.99
15.37
16.29
17.66
19.29
20.93
22.25
22.94
22.80
22.00
20.89
19.84
18.91
17.84
16.04
12.96
8.20
1.76
-6.03
-14.65
-23.61
-32.45
-40.80
-48.22
-54.06
-57.53
-57.82
-54.38
-47.34
-37.49
-26.15
-14.73
-4.41
4.25
11.09
16.23
19.84
21.99
22.81
22.55
21.50
20.09
18.73
17.84
17.70
18.47
20.07
22.18
24.28
25.69
25.90
24.64
21.86
17.76
12.62
6.67
0.09
-6.99
-14.45
-22.29
-30.51
-39.22
-48.39
-57.73
-66.59
-73.87
-78.26
-78.55
-74.03
-64.82
-51.95
-37.06
-22.02
-8.41
2.76
11.14
16.87
20.41
22.30
23.01
22.96
22.47
21.85
21.44
21.61
22.63
24.52
27.01
29.43
31.00
31.07
29.38
26.16
21.90
17.23
12.52
7.78
2.72
-3.09
-10.10
-18.57
-28.57
-39.84
-51.72
-63.13
-72.50
-78.16
-78.75
-73.73
-63.60
-49.93
-34.77
-20.08
-7.14
3.64
12.45
19.73
25.69
30.33
33.53
35.37
36.20
36.55
36.92
37.56
38.46
39.47
40.41
41.25
41.95
42.45
42.50
41.71
39.66
36.18
31.35
25.48
18.95
11.98
4.61
-3.38
-12.30
-22.42
-33.69
-45.58
-57.03
-66.53
-72.40
-73.33
-68.75
-59.17
-46.10
-31.54
-17.47
-5.25
4.50
11.89
17.33
21.36
24.34
26.52
28.07
29.15
30.00
30.91
32.23
34.30
37.36
41.39
45.98
50.38
53.68
55.14
54.45
51.78
47.59
42.36
36.38
29.67
22.22
13.98
5.00
-4.79
-15.56
-27.56
-40.68
-54.12
-66.23
-74.83
-77.99
-74.75
-65.54
-51.99
-36.35
-20.68
-6.37
6.09
16.69
25.58
32.77
38.12
41.57
43.37
44.21
44.91
46.21
48.36
51.06
53.74
55.83
57.06
57.62
57.94
58.28
58.58
58.29
56.63
52.94
47.03
39.35
30.88
22.73
15.72
10.09
5.37
0.61
-5.24
-13.00
-22.93
-34.66
-47.15
-58.97
-68.47
-74.09
-74.77
-70.16
-60.70
-47.53
-32.13
-16.10
-0.84
12.54
23.34
31.25
36.44
39.41
40.94
41.86
42.86
44.26
46.02
47.87
49.51
50.75
51.59
52.06
52.21
51.91
51.05
49.57
47.50
44.93
41.84
38.03
33.15
27.03
19.87
12.28
5.13
-1.08
-6.38
-11.53
-17.63
-25.49
-35.18
-45.74
-55.57
-62.89
-66.40
-65.56
-60.58
-52.20
-41.39
-29.14
-16.39
-4.11
6.76
15.38
21.26
24.32
25.07
24.49
23.76
23.99
25.79
29.16
33.47
37.75
41.07
42.98
43.60
43.42
42.94
42.26
41.06
38.71
34.77
29.32
22.89
16.27
10.06
4.42
-0.92
-6.39
-12.35
-18.99
-26.33
-34.22
-42.41
-50.35
-57.17
-61.70
-62.81
-59.76
-52.52
-41.88
-29.21
-16.06
-3.83
6.52
14.46
19.83
22.74
23.55
22.80
21.15
19.43
18.36
18.52
20.24
23.47
27.77
32.46
36.67
39.61
40.71
39.83
37.15
33.01
27.75
21.59
14.65
7.11
-0.66
-8.24
-15.30
-21.89
-28.49
-35.85
-44.49
-54.35
-64.56
-73.48
-79.26
-80.44
-76.33
-67.29
-54.57
-39.75
-24.37
-9.55
3.94
15.60
24.90
31.38
34.84
35.61
34.62
33.10
32.14
32.28
33.39
34.97
36.45
37.59
38.41
39.03
39.44
39.30
38.13
35.53
31.44
26.17
20.19
13.92
7.52
0.86
-6.28
-14.11
-22.76
-32.24
-42.53
-53.45
-64.49
-74.60
-82.35
-86.11
-84.77
-78.12
-66.97
-52.90
-37.75
-23.06
-9.83
1.53
11.01
18.72
24.78
29.34
32.54
34.66
36.06
37.16
38.39
40.05
42.19
44.55
46.73
48.26
48.90
48.69
47.81
46.42
44.46
41.63
37.61
32.30
25.92
18.98
12.04
5.36
-1.12
-7.78
-15.03
-23.25
-32.60
-43.05
-54.32
-65.65
-75.75
-82.96
-85.66
-82.88
-74.71
-62.39
-47.84
-33.02
-19.30
-7.28
3.05
11.99
19.69
26.10
31.03
34.45
36.63
38.11
39.53
41.34
43.68
46.37
49.00
51.16
52.53
52.93
52.40
51.09
49.17
46.78
43.83
40.11
35.35
29.40
22.46
15.00
7.62
0.80
-5.30
-10.90
-16.44
-22.45
-29.41
-37.63
-47.19
-57.75
-68.45
-77.84
-84.23
-86.17
-82.84
-74.50
-62.24
-47.77
-32.84
-18.86
-6.64
3.52
11.71
18.12
22.96
26.46
28.91
30.79
32.62
34.82
37.53
40.60
43.64
46.28
48.31
49.80
50.90
51.66
51.93
51.42
49.93
47.43
44.20
40.54
36.65
32.45
27.67
22.10
15.71
8.83
1.94
-4.56
-10.51
-16.23
-22.33
-29.56
-38.38
-48.79
-60.02
-70.63
-78.80
-82.72
-81.29
-74.40
-63.07
-49.08
-34.51
-21.06
-9.74
-0.82
5.96
11.05
14.85
17.68
19.81
21.53
23.14
24.91
26.93
29.13
31.30
33.27
34.95
36.37
37.61
38.74
39.75
40.50
40.83
40.40
38.91
36.14
32.00
26.64
20.48
14.15
8.23
3.13
-1.16
-5.02
-9.01
-13.76
-19.69
-26.98
-35.51
-44.79
-53.99
-61.95
-67.40
-69.15
-66.57
-59.77
-49.63
-37.52
-25.01
-13.37
-3.46
4.34
9.96
13.54
15.36
15.84
15.53
15.00
14.79
15.28
16.64
18.79
21.45
24.29
26.99
29.41
31.47
33.14
34.17
34.16
32.54
28.95
23.39
16.38
8.81
1.67
-4.42
-9.29
-13.26
-16.99
-21.20
-26.56
-33.45
-41.88
-51.28
-60.55
-68.19
-72.71
-73.09
-69.06
-61.12
-50.32
-37.88
-25.00
-12.67
-1.66
7.36
13.93
17.88
19.49
19.38
18.50
17.76
17.84
19.04
21.20
23.85
26.35
28.14
28.93
28.75
27.92
26.85
25.85
24.98
24.05
22.72
20.55
17.28
12.84
7.45
1.43
-4.87
-11.26
-17.60
-23.97
-30.58
-37.67
-45.48
-53.98
-62.73
-70.69
-76.45
-78.54
-76.04
-68.91
-58.08
-45.06
-31.43
-18.41
-6.73
3.24
11.27
17.12
20.74
22.28
22.34
21.77
21.37
21.77
23.14
25.33
27.86
30.31
32.31
33.70
34.45
34.59
34.12
32.96
31.03
28.26
24.66
20.34
15.38
9.92
4.08
-1.95
-7.99
-13.92
-19.81
-25.95
-32.73
-40.51
-49.31
-58.70
-67.67
-74.87
-78.93
-78.87
-74.39
-66.03
-54.91
-42.47
-29.99
-18.24
-7.55
1.99
10.30
17.09
21.97
24.75
25.64
25.32
24.73
24.69
25.55
27.25
29.44
31.72
33.80
35.64
37.27
38.67
39.73
40.16
39.65
37.88
34.66
30.08
24.46
18.28
12.04
6.12
0.66
-4.44
-9.42
-14.63
-20.46
-27.24
-35.15
-43.98
-53.05
-61.30
-67.42
-70.36
-69.56
-65.11
-57.58
-47.84
-36.73
-25.05
-13.52
-2.80
6.44
13.74
18.86
21.99
23.65
24.54
25.36
26.56
28.31
30.52
32.91
35.19
37.21
38.89
40.27
41.44
42.33
42.79
42.50
41.10
38.32
34.09
28.64
22.45
16.06
9.85
3.99
-1.54
-6.98
-12.55
-18.57
-25.38
-33.24
-42.13
-51.54
-60.49
-67.61
-71.59
-71.60
-67.47
-59.73
-49.43
-37.78
-25.89
-14.65
-4.70
3.54
9.93
14.53
17.62
19.55
20.77
21.67
22.53
23.52
24.67
25.91
27.11
28.15
29.03
29.78
30.42
30.89
31.01
30.50
29.15
26.85
23.61
19.59
15.02
10.14
5.22
0.49
-3.87
-7.90
-11.84
-16.11
-21.20
-27.46
-34.83
-42.83
-50.52
-56.78
-60.51
-60.83
-57.37
-50.35
-40.48
-28.90
-16.80
-5.22
5.11
13.79
20.65
25.64
28.83
30.37
30.60
30.12
29.63
29.74
30.74
32.55
34.67
36.50
37.64
38.01
37.85
37.53
37.35
37.30
37.04
36.05
33.88
30.33
25.54
19.91
13.91
7.97
2.36
-2.85
-7.81
-12.81
-18.33
-24.75
-32.33
-40.91
-49.81
-57.91
-63.79
-66.22
-64.43
-58.41
-48.92
-37.26
-24.92
-13.22
-3.05
5.15
11.28
15.43
17.79
18.67
18.51
17.95
17.62
17.98
19.09
20.70
22.37
23.76
24.82
25.71
26.65
27.69
28.61
28.95
28.23
26.12
22.58
17.85
12.39
6.70
1.24
-3.73
-8.20
-12.46
-16.96
-22.17
-28.42
-35.64
-43.40
-50.85
-56.95
-60.66
-61.21
-58.21
-51.83
-42.71
-31.91
-20.61
-9.94
-0.78
6.37
11.35
14.24
15.31
15.02
13.89
12.51
11.36
10.82
11.04
11.98
13.45
15.24
17.09
18.72
19.84
20.16
19.51
17.75
15.04
11.68
8.03
4.39
0.92
-2.48
-6.13
-10.49
-15.94
-22.64
-30.36
-38.43
-45.79
-51.22
-53.59
-52.26
-47.13
-38.83
-28.47
-17.37
-6.71
2.65
10.30
16.14
20.25
22.74
23.80
23.63
22.53
20.90
19.18
17.75
16.90
16.73
17.20
18.12
19.28
20.43
21.40
21.97
21.88
20.86
18.64
15.09
10.34
4.63
-1.70
-8.34
-15.15
-22.12
-29.39
-37.12
-45.28
-53.56
-61.30
-67.53
-71.23
-71.59
-68.24
-61.34
-51.57
-39.88
-27.35
-15.08
-4.08
4.81
11.10
14.80
16.35
16.39
15.67
14.70
13.88
13.54
13.89
15.11
17.11
19.58
22.06
24.03
25.10
25.09
23.88
21.46
17.90
13.48
8.60
3.63
-1.22
-6.22
-11.96
-19.17
-28.30
-39.23
-51.21
-62.99
-73.09
-80.13
-83.12
-81.54
-75.52
-65.83
-53.65
-40.39
-27.28
-15.19
-4.59
4.45
11.96
18.00
22.62
25.90
28.02
29.29
30.10
30.83
31.75
32.96
34.42
35.99
37.48
38.72
39.50
39.56
38.60
36.35
32.65
27.58
21.42
14.67
7.74
0.85
-6.05
-13.35
-21.52
-30.93
-41.66
-53.15
-64.33
-73.62
-79.40
-80.49
-76.55
-68.19
-56.78
-43.96
-31.11
-19.14
-8.50
0.62
8.11
13.94
18.19
21.16
23.30
25.20
27.30
29.91
33.12
36.78
40.55
43.95
46.50
47.94
48.24
47.51
45.92
43.50
40.23
36.13
31.33
26.09
20.60
14.80
8.38
0.87
-8.06
-18.52
-30.24
-42.65
-54.91
-65.84
-74.07
-78.22
-77.31
-71.14
-60.48
-46.83
-31.99
-17.52
-4.48
6.65
15.78
23.02
28.50
32.37
34.82
36.12
36.65
36.87
37.28
38.22
39.79
41.81
43.81
45.30
45.94
45.66
44.62
43.04
41.03
38.40
34.76
29.78
23.32
15.71
7.59
-0.33
-7.57
-14.13
-20.50
-27.47
-35.67
-45.29
-55.88
-66.37
-75.31
-81.20
-82.69
-78.76
-69.07
-54.14
-35.44
-15.28
3.81
19.72
31.34
38.77
42.96
45.18
46.46
47.33
47.99
48.61
49.61
51.40
54.28
58.00
61.80
64.74
66.10
65.68
63.84
61.18
58.22
54.99
51.18
46.25
39.93
32.35
24.10
15.95
8.55
2.15
-3.55
-9.29
-16.03
-24.59
-35.34
-47.99
-61.46
-74.04
-83.72
-88.70
-87.83
-81.02
-69.24
-54.37
-38.52
-23.46
-10.22
0.88
10.05
17.53
23.45
27.86
30.91
33.04
34.81
36.72
38.88
41.07
42.92
44.17
45.00
45.78
46.90
48.44
50.07
51.15
50.94
48.78
44.33
37.72
29.51
20.74
12.53
5.73
0.57
-3.44
-7.37
-12.41
-19.44
-28.70
-39.60
-50.86
-60.68
-67.23
-69.03
-65.36
-56.46
-43.48
-28.17
-12.47
1.95
13.84
22.54
28.00
30.61
31.11
30.42
29.44
28.84
29.05
30.22
32.22
34.68
37.01
38.56
38.85
37.83
35.93
33.89
32.34
31.39
30.55
29.00
25.91
20.96
14.26
6.36
-2.07
-10.40
-18.19
-25.29
-31.90
-38.56
-46.02
-54.84
-64.97
-75.40
-84.46
-90.18
-91.07
-86.68
-77.61
-65.22
-51.11
-36.64
-22.71
-9.84
1.58
11.25
18.92
24.60
28.64
31.65
34.32
37.18
40.39
43.83
47.17
50.12
52.52
54.34
55.54
56.05
55.74
54.48
52.13
48.66
44.00
38.25
31.56
24.26
16.76
9.39
2.30
-4.65
-11.78
-19.53
-28.28
-38.26
-49.50
-61.80
-74.55
-86.66
-96.60
-102.61
-103.27
-97.89
-86.88
-71.64
-54.18
-36.54
-20.23
-6.05
5.78
15.40
22.93
28.46
32.00
33.82
34.46
34.85
35.94
38.38
42.19
46.77
51.20
54.67
56.83
57.89
58.30
58.40
58.23
57.41
55.48
52.11
47.31
41.34
34.59
27.47
20.23
13.01
5.79
-1.55
-9.22
-17.44
-26.53
-36.74
-48.27
-61.02
-74.45
-87.41
-98.24
-105.05
-106.26
-101.12
-89.98
-74.22
-55.82
-36.76
-18.63
-2.43
11.33
22.49
31.17
37.67
42.37
45.70
48.13
50.14
52.15
54.55
57.50
60.92
64.43
67.48
69.56
70.46
70.24
69.22
67.72
65.84
63.43
60.20
55.97
50.71
44.66
38.16
31.49
24.78
18.08
11.38
4.58
-2.44
-9.95
-18.40
-28.26
-39.62
-51.81
-63.39
-72.28
-76.45
-74.67
-66.94
-54.50
-39.32
-23.43
-8.37
5.05
16.58
26.17
33.79
39.32
42.74
44.18
44.14
43.36
42.73
42.99
44.47
47.02
50.06
52.84
54.79
55.65
55.53
54.63
53.11
50.92
47.97
44.22
39.82
35.08
30.27
25.51
20.73
15.72
10.28
4.28
-2.33
-9.55
-17.36
-25.75
-34.74
-44.37
-54.60
-65.03
-74.79
-82.47
-86.49
-85.65
-79.61
-69.11
-55.60
-40.86
-26.27
-12.72
-0.64
9.74
18.09
24.11
27.64
28.86
28.32
26.88
25.42
24.69
25.14
26.81
29.37
32.18
34.53
35.91
36.17
35.42
33.87
31.63
28.52
24.25
18.70
12.07
4.97
-1.76
-7.51
-12.11
-15.99
-20.10
-25.50
-32.98
-42.71
-53.99
-65.39
-74.99
-80.86
-81.60
-76.72
-66.77
-53.13
-37.65
-22.11
-7.84
4.43
14.43
22.17
27.73
31.17
32.65
32.56
31.54
30.36
29.63
29.71
30.59
32.12
34.05
36.24
38.56
40.88
42.94
44.40
44.91
44.12
41.69
37.39
31.26
23.60
15.19
6.91
-0.41
-6.43
-11.41
-16.10
-21.49
-28.36
-37.10
-47.62
-59.27
-70.91
-81.05
-88.08
-90.61
-87.89
-80.03
-68.05
-53.52
-38.13
-23.37
-10.19
0.92
9.77
16.39
20.86
23.40
24.33
24.30
24.02
24.20
25.24
27.14
29.55
31.89
33.79
35.14
36.09
36.90
37.71
38.42
38.73
38.27
36.65
33.63
29.14
23.35
16.67
9.63
2.79
-3.52
-9.29
-14.88
-20.86
-27.78
-36.07
-45.82
-56.67
-67.71
-77.51
-84.32
-86.56
-83.30
-74.66
-61.90
-46.95
-31.85
-18.11
-6.58
2.51
9.30
13.99
16.81
18.03
18.13
17.72
17.53
18.06
19.59
22.05
25.03
28.00
30.51
32.27
33.25
33.67
33.79
33.84
33.79
33.41
32.31
30.14
26.67
21.89
15.99
9.26
2.07
-5.22
-12.26
-18.79
-24.73
-30.30
-36.02
-42.57
-50.46
-59.63
-69.27
-77.88
-83.63
-84.92
-80.95
-71.93
-59.05
-44.04
-28.65
-14.34
-2.06
7.82
15.25
20.49
23.90
25.95
26.99
27.40
27.52
27.68
28.22
29.40
31.31
33.78
36.42
38.71
40.29
41.00
40.94
40.35
39.31
37.74
35.36
31.91
27.36
21.94
16.10
10.24
4.56
-1.01
-6.58
-12.21
-17.88
-23.64
-29.71
-36.60
-44.81
-54.44
-64.95
-75.03
-82.95
-87.11
-86.55
-81.18
-71.76
-59.45
-45.50
-31.07
-17.09
-4.38
6.32
14.43
19.62
21.99
22.01
20.57
18.64
17.06
16.37
16.68
17.86
19.57
21.49
23.36
25.06
26.52
27.68
28.33
28.20
27.01
24.53
20.75
15.87
10.27
4.43
-1.23
-6.47
-11.30
-16.00
-21.03
-26.86
-33.84
-41.95
-50.74
-59.32
-66.45
-70.82
-71.39
-67.70
-59.98
-49.10
-36.35
-23.07
-10.40
0.95
10.63
18.50
24.49
28.51
30.51
30.63
29.28
27.06
24.72
22.91
22.06
22.29
23.40
24.97
26.53
27.74
28.51
28.89
29.01
28.78
27.92
25.93
22.39
17.13
10.45
3.01
-4.40
-11.11
-16.91
-22.03
-27.04
-32.65
-39.40
-47.58
-56.98
-66.93
-76.25
-83.42
-86.92
-85.60
-79.08
-67.98
-53.76
-38.31
-23.35
-10.04
1.12
10.15
17.14
22.13
25.18
26.53
26.74
26.61
26.83
27.72
29.17
30.75
32.06
32.87
33.29
33.55
33.87
34.25
34.50
34.30
33.30
31.22
27.87
23.22
17.46
10.95
4.22
-2.29
-8.30
-13.91
-19.48
-25.58
-32.73
-41.20
-50.83
-60.98
-70.49
-77.98
-82.05
-81.70
-76.62
-67.27
-54.78
-40.57
-26.01
-12.20
0.16
10.64
18.92
24.84
28.38
29.80
29.64
28.69
27.82
27.65
28.48
30.23
32.46
34.68
36.51
37.79
38.53
38.83
38.71
38.11
36.89
34.86
31.92
27.99
23.10
17.44
11.34
5.20
-0.61
-5.96
-11.05
-16.36
-22.48
-29.79
-38.36
-47.80
-57.40
-66.27
-73.38
-77.67
-78.22
-74.46
-66.38
-54.65
-40.51
-25.51
-11.04
1.88
12.65
21.03
26.98
30.66
32.37
32.67
32.28
31.93
32.16
33.13
34.74
36.68
38.64
40.39
41.77
42.75
43.27
43.31
42.80
41.56
39.45
36.23
31.90
26.61
20.75
14.71
8.87
3.37
-1.84
-6.96
-12.22
-17.92
-24.35
-31.82
-40.49
-50.16
-60.14
-69.19
-75.78
-78.48
-76.34
-69.29
-58.09
-44.24
-29.45
-15.28
-2.72
7.77
16.16
22.59
27.14
29.86
30.92
30.75
30.05
29.57
29.90
31.22
33.35
35.88
38.38
40.55
42.29
43.52
44.20
44.28
43.65
42.35
40.34
37.63
34.20
29.98
25.01
19.42
13.46
7.38
1.40
-4.45
-10.40
-16.77
-23.96
-32.27
-41.65
-51.62
-61.29
-69.37
-74.59
-75.87
-72.81
-65.61
-55.21
-42.91
-30.00
-17.56
-6.27
3.43
11.33
17.25
21.12
22.98
23.12
22.11
20.75
19.83
19.99
21.46
24.07
27.29
30.53
33.29
35.34
36.65
37.36
37.51
37.05
35.82
33.65
30.45
26.31
21.46
16.20
10.83
5.57
0.51
-4.48
-9.68
-15.48
-22.29
-30.29
-39.35
-48.80
-57.59
-64.40
-68.07
-67.80
-63.44
-55.45
-44.71
-32.30
-19.35
-6.93
4.02
12.78
18.96
22.60
24.10
24.13
23.43
22.61
22.14
22.36
23.44
25.36
27.87
30.58
33.00
34.83
36.02
36.63
36.76
36.26
34.85
32.16
28.08
22.78
16.80
10.72
5.01
-0.16
-4.94
-9.72
-15.07
-21.54
-29.51
-38.96
-49.30
-59.31
-67.36
-71.91
-71.85
-66.96
-57.89
-45.87
-32.32
-18.53
-5.48
6.10
15.68
22.93
27.78
30.44
31.37
31.18
30.43
29.66
29.27
29.56
30.74
32.71
35.17
37.58
39.44
40.39
40.38
39.58
38.21
36.34
33.82
30.43
25.99
20.54
14.32
7.70
1.02
-5.49
-11.83
-18.28
-25.29
-33.36
-42.71
-53.06
-63.48
-72.51
-78.51
-80.16
-76.83
-68.81
-57.16
-43.37
-28.95
-15.14
-2.82
7.52
15.64
21.53
25.35
27.39
28.12
28.12
28.01
28.32
29.40
31.31
33.88
36.75
39.48
41.68
43.06
43.54
43.12
41.93
39.98
37.20
33.48
28.77
23.20
17.08
10.89
4.97
-0.59
-6.05
-11.99
-19.04
-27.67
-37.92
-49.37
-61.03
-71.48
-79.07
-82.33
-80.41
-73.35
-62.13
-48.30
-33.58
-19.31
-6.37
4.80
14.00
21.04
25.85
28.50
29.41
29.31
29.00
29.16
30.17
32.05
34.55
37.26
39.78
41.78
43.14
43.89
44.19
44.11
43.55
42.18
39.59
35.48
29.86
23.16
16.04
9.11
2.66
-3.36
-9.29
-15.57
-22.60
-30.64
-39.80
-49.84
-60.07
-69.21
-75.66
-77.95
-75.19
-67.47
-55.83
-41.85
-27.19
-13.17
-0.68
9.73
17.76
23.20
26.16
27.05
26.67
25.99
25.88
26.86
28.92
31.66
34.50
36.89
38.56
39.51
39.95
40.08
39.99
39.56
38.51
36.48
33.22
28.67
23.02
16.67
10.06
3.57
-2.68
-8.86
-15.38
-22.71
-31.20
-40.76
-50.75
-60.04
-67.18
-70.85
-70.24
-65.35
-56.86
-45.93
-33.78
-21.41
-9.64
0.98
9.89
16.61
20.86
22.74
22.78
21.89
21.05
20.97
21.96
23.82
26.08
28.23
30.02
31.49
32.84
34.25
35.61
36.54
36.45
34.83
31.52
26.75
20.97
14.73
8.42
2.16
-4.12
-10.73
-17.97
-26.15
-35.37
-45.33
-55.25
-63.89
-69.84
-71.82
-69.16
-61.88
-50.81
-37.27
-22.86
-9.06
2.99
12.59
19.52
23.90
26.10
26.63
26.14
25.36
25.05
25.83
27.97
31.24
35.01
38.44
40.84
41.92
41.82
40.92
39.59
37.88
35.57
32.27
27.73
21.96
15.34
8.42
1.72
-4.45
-10.13
-15.68
-21.67
-28.72
-37.31
-47.47
-58.66
-69.68
-78.87
-84.59
-85.64
-81.61
-73.04
-61.08
-47.20
-32.77
-18.88
-6.30
4.49
13.16
19.55
23.70
25.87
26.60
26.61
26.71
27.56
29.41
32.14
35.22
38.05
40.17
41.43
41.98
42.10
42.02
41.76
41.14
39.89
37.67
34.28
29.62
23.81
17.17
10.18
3.38
-2.89
-8.59
-14.11
-20.06
-27.10
-35.62
-45.52
-56.22
-66.64
-75.40
-81.12
-82.68
-79.58
-72.04
-60.98
-47.82
-34.05
-20.95
-9.34
0.40
8.26
14.44
19.20
22.84
25.69
28.12
30.54
33.35
36.81
40.98
45.67
50.59
55.38
59.73
63.42
66.29
68.05
68.38
66.94
63.55
58.32
51.64
44.15
36.43
28.92
21.76
14.89
8.12
1.31
-5.61
-12.66
-19.85
-27.28
-35.13
-43.57
-52.70
-62.30
-71.80
-80.14
-86.02
-88.22
-86.02
-79.44
-69.19
-56.40
-42.19
-27.34
-12.42
2.09
15.45
26.71
34.97
39.87
41.77
41.77
41.20
41.18
42.22
44.20
46.68
49.17
51.44
53.46
55.29
56.94
58.17
58.59
57.79
55.61
52.19
47.97
43.42
38.83
34.15
29.00
23.06
16.29
9.02
1.82
-4.84
-10.87
-16.65
-22.72
-29.71
-37.96
-47.49
-57.93
-68.48
-77.88
-84.59
-87.11
-84.45
-76.51
-64.21
-49.19
-33.40
-18.44
-5.39
5.33
13.69
19.96
24.48
27.64
29.72
31.01
31.76
32.18
32.59
33.34
34.79
37.12
40.22
43.63
46.70
48.85
49.67
49.12
47.34
44.63
41.21
37.28
32.90
28.11
22.93
17.42
11.75
6.14
0.80
-4.12
-8.70
-13.22
-18.12
-23.88
-30.84
-39.06
-48.24
-57.71
-66.50
-73.45
-77.37
-77.31
-72.81
-64.05
-51.92
-37.79
-23.27
-9.80
1.56
10.26
16.25
19.82
21.42
21.54
20.81
19.86
19.42
20.04
21.98
25.05
28.68
32.16
34.89
36.64
37.51
37.81
37.69
37.11
35.73
33.18
29.21
23.86
17.42
10.42
3.39
-3.14
-8.89
-13.89
-18.43
-23.00
-28.09
-34.07
-41.10
-49.00
-57.25
-65.07
-71.41
-75.11
-75.20
-71.17
-63.17
-52.03
-39.01
-25.49
-12.66
-1.36
7.92
14.97
19.86
22.88
24.48
25.24
25.67
26.21
27.08
28.42
30.28
32.62
35.28
37.93
40.13
41.47
41.76
41.06
39.65
37.76
35.51
32.75
29.21
24.76
19.49
13.69
7.73
1.88
-3.72
-9.10
-14.30
-19.35
-24.40
-29.81
-36.15
-43.98
-53.50
-64.19
-74.73
-83.28
-88.03
-87.78
-82.32
-72.46
-59.67
-45.58
-31.57
-18.53
-6.97
2.88
10.89
17.00
21.30
24.11
25.94
27.36
28.83
30.58
32.63
34.89
37.30
39.77
42.21
44.47
46.28
47.40
47.63
46.98
45.60
43.70
41.37
38.59
35.21
31.08
26.20
20.71
14.86
8.92
3.13
-2.43
-7.73
-12.87
-18.12
-23.81
-30.39
-38.12
-47.01
-56.58
-65.88
-73.63
-78.45
-79.21
-75.31
-66.91
-55.00
-41.11
-27.00
-14.11
-3.31
5.27
11.85
16.85
20.52
23.01
24.51
25.35
26.08
27.20
29.01
31.53
34.48
37.50
40.28
42.65
44.52
45.85
46.60
46.71
46.13
44.84
42.81
40.06
36.60
32.45
27.65
22.30
16.49
10.46
4.47
-1.16
-6.29
-10.94
-15.45
-20.35
-26.26
-33.69
-42.83
-53.37
-64.42
-74.58
-82.22
-85.87
-84.59
-78.32
-67.85
-54.60
-40.30
-26.50
-14.27
-4.12
3.89
10.09
14.81
18.34
20.92
22.68
23.78
24.55
25.33
26.46
28.14
30.33
32.78
35.18
37.25
38.82
39.74
39.93
39.29
37.76
35.39
32.26
28.62
24.67
20.62
16.55
12.47
8.28
3.88
-0.86
-5.97
-11.43
-17.18
-23.16
-29.40
-36.03
-43.26
-51.07
-59.05
-66.25
-71.41
-73.28
-71.12
-64.94
-55.49
-43.97
-31.64
-19.50
-8.27
1.59
9.71
15.73
19.42
20.78
20.25
18.57
16.67
15.42
15.40
16.78
19.33
22.53
25.76
28.55
30.61
31.94
32.68
33.03
33.01
32.48
31.18
28.83
25.28
20.54
14.76
8.25
1.43
-5.22
-11.28
-16.53
-21.20
-25.92
-31.48
-38.44
-46.63
-55.16
-62.64
-67.66
-69.33
-67.35
-62.03
-53.96
-43.83
-32.36
-20.35
-8.69
1.82
10.52
17.12
21.63
24.33
25.59
25.87
25.66
25.47
25.73
26.64
28.14
29.92
31.66
33.08
34.14
34.87
35.28
35.32
34.80
33.55
31.46
28.51
24.76
20.31
15.28
9.83
4.16
-1.52
-7.03
-12.30
-17.39
-22.55
-28.16
-34.64
-42.28
-51.17
-60.96
-70.78
-79.40
-85.37
-87.41
-84.84
-77.77
-67.11
-54.30
-40.90
-28.14
-16.75
-6.99
1.16
7.89
13.32
17.55
20.75
23.14
25.02
26.66
28.31
30.10
32.10
34.33
36.73
39.17
41.42
43.20
44.28
44.50
43.83
42.33
40.08
37.17
33.63
29.50
24.79
19.61
14.08
8.41
2.81
-2.54
-7.64
-12.66
-17.94
-23.90
-30.94
-39.25
-48.70
-58.67
-68.08
-75.51
-79.53
-79.12
-74.01
-64.75
-52.58
-39.11
-25.86
-14.02
-4.21
3.46
9.30
13.81
17.48
20.68
23.56
26.20
28.64
31.08
33.77
36.84
40.20
43.58
46.62
49.06
50.85
52.05
52.73
52.83
52.19
50.64
48.15
44.77
40.66
35.95
30.75
25.12
19.16
13.02
6.90
1.00
-4.54
-9.71
-14.64
-19.70
-25.44
-32.47
-41.15
-51.35
-62.25
-72.36
-79.97
-83.54
-82.24
-76.11
-66.01
-53.34
-39.56
-25.89
-13.17
-1.89
7.70
15.47
21.41
25.66
28.48
30.25
31.35
32.13
32.81
33.58
34.56
35.94
37.86
40.43
43.61
47.14
50.55
53.18
54.34
53.63
51.01
46.91
42.00
36.98
32.25
27.87
23.69
19.47
15.10
10.53
5.76
0.76
-4.50
-10.00
-15.69
-21.58
-27.87
-34.91
-43.07
-52.38
-62.25
-71.40
-78.23
-81.26
-79.61
-73.35
-63.36
-50.99
-37.66
-24.51
-12.34
-1.67
7.14
13.81
18.26
20.74
21.83
22.39
23.18
24.73
27.17
30.32
33.83
37.40
40.79
43.83
46.39
48.31
49.44
49.64
48.85
47.00
44.14
40.44
36.13
31.54
26.96
22.54
18.23
13.84
9.18
4.16
-1.06
-6.21
-11.01
-15.43
-19.74
-24.52
-30.43
-37.85
-46.69
-56.26
-65.36
-72.58
-76.67
-76.81
-72.84
-65.22
-54.85
-42.87
-30.38
-18.28
-7.28
2.01
9.12
13.79
16.07
16.41
15.70
14.95
15.11
16.66
19.68
23.77
28.30
32.52
35.74
37.57
37.93
37.10
35.58
33.86
32.21
30.58
28.71
26.30
23.17
19.24
14.61
9.50
4.11
-1.26
-6.40
-11.28
-16.01
-20.73
-25.67
-31.11
-37.31
-44.40
-52.06
-59.57
-65.93
-69.98
-70.62
-67.21
-59.89
-49.58
-37.52
-24.89
-12.61
-1.76
6.86
12.85
16.27
17.57
17.44
16.77
16.65
17.83
19.59
21.08
21.94
22.54
23.39
24.71
26.51
29.03
32.11
33.39
30.98
24.77
16.45
8.13
1.00
-4.54
-8.01
-9.95
-14.38
-24.22
-39.25
-56.19
-71.39
-83.17
-91.68
-97.32
-102.27
-113.25
-135.35
-169.39
-211.89
-258.37
-306.26
-354.52
-401.78
-419.18
-389.60
-317.86
-228.15
-144.21
-77.17
-27.98
0.09
16.93
28.74
34.19
31.18
20.06
4.08
-9.81
-18.97
-23.06
-21.65
-16.17
-11.28
-10.35
-13.62
-18.33
-21.28
-21.29
-18.39
-12.42
-4.67
1.51
3.66
1.47
-3.25
-8.11
-11.71
-13.22
-11.80
-7.81
-3.31
-0.49
-0.99
-5.66
-14.66
-27.91
-44.32
-61.55
-76.95
-88.34
-94.26
-94.25
-88.88
-79.38
-67.31
-53.96
-40.08
-26.34
-13.38
-1.72
8.32
16.80
24.35
31.53
38.79
46.11
53.12
59.49
65.29
71.00
76.92
82.49
85.92
84.77
77.22
63.34
45.60
28.13
14.97
8.36
7.95
11.35
15.75
19.36
22.07
24.93
28.96
34.25
39.81
44.33
47.00
48.22
49.34
51.99
57.42
65.63
75.46
85.12
92.95
98.36
102.18
106.43
113.64
126.01
144.83
170.23
201.16
235.38
269.53
299.56
321.47
332.46
331.72
320.72
302.52
280.59
257.70
235.42
214.41
194.94
177.47
162.56
150.46
140.80
132.59
124.62
115.99
106.41
96.18
85.96
76.31
67.47
59.28
51.33
43.12
34.37
25.15
15.89
7.17
-0.51
-6.94
-12.32
-17.17
-22.10
-27.59
-33.87
-40.82
-48.05
-54.92
-60.69
-64.58
-66.02
-64.76
-60.91
-54.94
-47.47
-39.15
-30.56
-22.16
-14.39
-7.67
-2.37
1.28
3.27
3.86
3.52
2.84
2.38
2.57
3.58
5.41
7.87
10.65
13.41
15.88
17.83
19.11
19.69
19.55
18.64
16.86
14.07
10.16
5.16
-0.71
-7.08
-13.56
-19.81
-25.67
-31.16
-36.39
-41.51
-46.69
-52.11
-58.00
-64.45
-71.34
-78.18
-84.12
-88.14
-89.38
-87.33
-82.04
-74.02
-64.10
-53.23
-42.24
-31.87
-22.63
-14.79
-8.47
-3.59
0.02
2.60
4.44
5.88
7.29
8.99
11.19
13.87
16.82
19.71
22.24
24.23
25.66
26.57
26.95
26.67
25.52
23.37
20.24
16.33
12.00
7.55
3.16
-1.19
-5.58
-10.08
-14.71
-19.44
-24.31
-29.56
-35.51
-42.46
-50.45
-59.06
-67.41
-74.38
-78.84
-80.05
-77.77
-72.28
-64.23
-54.40
-43.54
-32.36
-21.51
-11.55
-3.00
3.80
8.77
12.10
14.25
15.73
17.08
18.66
20.71
23.29
26.29
29.48
32.58
35.30
37.37
38.64
39.07
38.75
37.75
36.17
34.00
31.18
27.67
23.46
18.66
13.41
7.92
2.37
-3.15
-8.58
-13.99
-19.57
-25.61
-32.44
-40.27
-48.97
-57.92
-66.10
-72.25
-75.33
-74.72
-70.46
-63.17
-53.75
-43.18
-32.28
-21.67
-11.78
-2.92
4.63
10.69
15.19
18.21
20.06
21.21
22.17
23.44
25.26
27.65
30.36
33.06
35.40
37.13
38.11
38.32
37.80
36.60
34.75
32.21
28.92
24.84
19.98
14.51
8.70
2.89
-2.72
-8.06
-13.32
-18.80
-24.85
-31.76
-39.65
-48.44
-57.71
-66.75
-74.58
-80.08
-82.30
-80.76
-75.48
-67.11
-56.62
-45.08
-33.42
-22.37
-12.49
-4.16
2.33
6.93
9.82
11.45
12.42
13.32
14.53
16.21
18.33
20.73
23.28
25.82
28.21
30.22
31.61
32.14
31.61
29.99
27.33
23.77
19.42
14.41
8.85
2.94
-3.03
-8.77
-14.08
-19.09
-24.19
-30.02
-37.08
-45.45
-54.60
-63.36
-70.27
-73.94
-73.51
-68.83
-60.48
-49.50
-37.17
-24.64
-12.89
-2.63
5.60
11.47
14.92
16.25
16.10
15.31
14.72
14.91
16.06
17.99
20.33
22.73
24.93
26.80
28.25
29.13
29.18
28.14
25.81
22.15
17.32
11.59
5.33
-1.16
-7.66
-14.13
-20.74
-27.80
-35.70
-44.68
-54.67
-65.10
-74.85
-82.47
-86.56
-86.10
-80.86
-71.38
-58.82
-44.60
-30.09
-16.36
-4.14
6.11
14.12
19.85
23.48
25.38
26.14
26.47
27.02
28.25
30.27
32.93
35.81
38.44
40.50
41.86
42.55
42.61
41.89
40.05
36.69
31.58
24.84
17.03
8.87
1.01
-6.26
-13.18
-20.35
-28.50
-38.21
-49.61
-62.27
-75.17
-86.78
-95.45
-99.68
-98.58
-92.04
-80.80
-66.25
-50.05
-33.79
-18.67
-5.35
5.92
15.15
22.48
28.09
32.21
35.15
37.44
39.64
42.29
45.63
49.53
53.52
56.98
59.44
60.72
60.94
60.38
59.24
57.42
54.55
50.22
44.14
36.43
27.60
18.41
9.52
1.32
-6.30
-13.84
-22.07
-31.75
-43.28
-56.55
-70.75
-84.43
-95.76
-102.95
-104.68
-100.49
-90.82
-76.89
-60.35
-42.85
-25.84
-10.29
3.22
14.57
23.88
31.45
37.65
42.81
47.24
51.26
55.22
59.39
63.89
68.63
73.28
77.36
80.45
82.31
82.89
82.31
80.74
78.29
75.04
71.00
66.23
60.76
54.64
47.96
40.84
33.45
26.02
18.75
11.69
4.67
-2.69
-10.98
-20.77
-32.38
-45.63
-59.71
-73.10
-83.82
-89.91
-89.89
-83.26
-70.68
-53.75
-34.52
-14.97
3.48
20.04
34.43
46.62
56.61
64.41
70.05
73.75
75.95
77.20
78.07
78.90
79.81
80.69
81.36
81.67
81.53
80.90
79.75
78.01
75.57
72.33
68.24
63.32
57.66
51.35
44.44
36.91
28.72
19.84
10.33
0.40
-9.60
-19.24
-28.25
-36.62
-44.67
-53.07
-62.51
-73.46
-85.76
-98.50
-110.03
-118.30
-121.44
-118.27
-108.67
-93.66
-74.99
-54.75
-34.78
-16.40
-0.40
12.94
23.62
31.87
38.07
42.71
46.34
49.43
52.27
54.97
57.51
59.81
61.80
63.55
65.11
66.52
67.70
68.45
68.51
67.68
65.87
63.13
59.58
55.31
50.36
44.70
38.36
31.47
24.27
17.05
10.03
3.33
-3.12
-9.55
-16.30
-23.78
-32.44
-42.50
-53.77
-65.42
-76.01
-83.72
-86.85
-84.34
-76.16
-63.25
-47.27
-30.10
-13.33
1.96
15.13
25.88
34.02
39.45
42.26
42.82
41.85
40.27
38.94
38.45
38.94
40.13
41.62
43.05
44.22
45.11
45.68
45.69
44.68
42.04
37.25
30.08
20.81
10.14
-0.93
-11.40
-20.54
-28.03
-33.97
-38.76
-42.97
-47.18
-51.87
-57.32
-63.51
-70.05
-76.15
-80.67
-82.41
-80.36
-74.03
-63.67
-50.22
-35.17
-20.09
-6.37
5.08
13.87
19.98
23.65
25.26
25.27
24.26
22.88
21.75
21.28
21.61
22.59
23.96
25.48
26.97
28.34
29.38
29.80
29.22
27.36
24.11
19.64
14.24
8.26
2.03
-4.24
-10.37
-16.31
-22.17
-28.27
-35.08
-43.03
-52.15
-61.84
-70.79
-77.28
-79.65
-76.91
-69.05
-57.13
-42.85
-28.11
-14.40
-2.67
6.71
13.73
18.51
21.26
22.23
21.79
20.45
18.73
17.16
16.15
15.94
16.60
18.04
19.92
21.78
23.11
23.48
22.68
20.74
17.84
14.23
10.14
5.64
0.73
-4.70
-10.88
-18.08
-26.49
-36.07
-46.30
-56.13
-64.10
-68.69
-68.77
-63.97
-54.82
-42.57
-28.85
-15.21
-2.78
7.80
16.31
22.78
27.32
30.04
31.08
30.63
29.04
26.80
24.53
22.78
21.94
22.15
23.16
24.53
25.65
26.02
25.30
23.40
20.39
16.48
11.83
6.54
0.63
-6.00
-13.52
-22.12
-31.88
-42.54
-53.35
-62.99
-69.81
-72.25
-69.40
-61.36
-49.27
-34.99
-20.51
-7.38
3.59
12.26
18.89
23.83
27.23
29.17
29.68
28.99
27.58
26.12
25.20
25.15
25.86
26.84
27.46
27.16
25.76
23.38
20.40
17.17
13.89
10.51
6.76
2.26
-3.35
-10.36
-18.85
-28.54
-38.64
-47.89
-54.71
-57.66
-55.89
-49.45
-39.29
-26.94
-14.05
-1.92
8.67
17.42
24.23
29.10
31.97
32.88
32.08
30.03
27.42
24.88
22.91
21.73
21.28
21.29
21.38
21.19
20.42
18.89
16.56
13.49
9.76
5.48
0.72
-4.58
-10.52
-17.34
-25.26
-34.37
-44.34
-54.35
-62.99
-68.64
-69.88
-66.01
-57.34
-45.06
-30.93
-16.69
-3.71
7.28
16.05
22.71
27.48
30.55
32.10
32.39
31.77
30.65
29.45
28.47
27.83
27.48
27.25
26.95
26.44
25.60
24.35
22.59
20.26
17.30
13.73
9.64
5.14
0.29
-4.94
-10.78
-17.58
-25.61
-34.87
-44.79
-54.24
-61.68
-65.58
-64.90
-59.44
-49.86
-37.51
-24.03
-10.86
0.90
10.69
18.28
23.70
27.09
28.76
29.15
28.80
28.30
28.07
28.30
28.88
29.53
29.95
30.08
30.07
30.18
30.61
31.25
31.70
31.33
29.53
26.00
20.84
14.57
7.91
1.55
-4.06
-8.90
-13.31
-17.95
-23.49
-30.45
-38.88
-48.21
-57.29
-64.51
-68.30
-67.52
-61.84
-51.90
-39.06
-25.03
-11.40
0.69
10.64
18.29
23.75
27.26
29.08
29.55
29.08
28.20
27.50
27.47
28.42
30.32
32.87
35.56
37.82
39.22
39.53
38.83
37.35
35.38
33.11
30.55
27.49
23.70
19.02
13.56
7.67
1.89
-3.38
-7.95
-11.96
-15.83
-20.08
-25.24
-31.64
-39.31
-47.88
-56.50
-63.92
-68.74
-69.76
-66.35
-58.67
-47.65
-34.69
-21.34
-8.89
1.76
10.22
16.46
20.74
23.41
24.88
25.49
25.58
25.49
25.56
26.09
27.26
29.04
31.18
33.27
34.91
35.85
36.03
35.62
34.85
33.89
32.74
31.20
28.91
25.57
21.02
15.41
9.17
2.88
-2.95
-8.04
-12.46
-16.52
-20.67
-25.36
-30.87
-37.35
-44.72
-52.60
-60.22
-66.48
-70.13
-70.09
-65.88
-57.73
-46.64
-33.99
-21.22
-9.46
0.57
8.61
14.57
18.49
20.44
20.63
19.44
17.52
15.64
14.50
14.53
15.73
17.75
20.08
22.25
24.06
25.47
26.52
27.17
27.22
26.42
24.55
21.59
17.73
13.26
8.50
3.69
-1.06
-5.70
-10.26
-14.82
-19.55
-24.75
-30.70
-37.53
-45.05
-52.68
-59.44
-64.16
-65.75
-63.59
-57.61
-48.41
-37.04
-24.74
-12.64
-1.63
7.73
15.14
20.43
23.58
24.71
24.15
22.42
20.23
18.26
17.10
17.04
18.08
19.96
22.24
24.44
26.14
27.10
27.24
26.65
25.47
23.83
21.76
19.20
16.00
12.02
7.22
1.78
-4.01
-9.74
-15.10
-19.94
-24.43
-28.98
-34.09
-40.18
-47.34
-55.23
-63.07
-69.77
-74.14
-75.20
-72.41
-65.83
-56.09
-44.21
-31.41
-18.80
-7.27
2.59
10.45
16.18
19.85
21.67
22.02
21.45
20.52
19.74
19.48
19.88
20.92
22.49
24.38
26.38
28.27
29.80
30.77
31.00
30.37
28.76
26.15
22.52
17.96
12.72
7.17
1.74
-3.24
-7.69
-11.76
-15.87
-20.48
-25.92
-32.33
-39.63
-47.51
-55.53
-63.08
-69.38
-73.58
-74.81
-72.49
-66.48
-57.21
-45.61
-32.90
-20.29
-8.77
1.02
8.83
14.64
18.60
20.92
21.84
21.71
20.95
20.11
19.69
20.08
21.41
23.53
26.11
28.74
31.10
32.98
34.32
35.01
34.95
33.98
31.94
28.80
24.63
19.65
14.15
8.43
2.80
-2.55
-7.56
-12.26
-16.88
-21.75
-27.29
-33.83
-41.45
-49.84
-58.18
-65.28
-69.80
-70.66
-67.30
-59.91
-49.34
-36.82
-23.65
-10.97
0.42
9.96
17.35
22.50
25.52
26.70
26.54
25.60
24.50
23.78
23.80
24.79
26.69
29.25
32.00
34.43
36.13
36.96
37.02
36.54
35.70
34.46
32.59
29.82
26.02
21.28
15.87
10.10
4.15
-1.88
-8.00
-14.17
-20.31
-26.41
-32.59
-39.12
-46.24
-53.95
-61.71
-68.47
-72.88
-73.72
-70.32
-62.81
-52.02
-39.28
-25.98
-13.34
-2.22
6.93
13.92
18.86
21.95
23.52
23.91
23.55
22.90
22.44
22.68
23.93
26.18
29.10
32.13
34.66
36.37
37.19
37.29
36.86
35.99
34.61
32.55
29.67
25.89
21.25
15.91
10.11
4.21
-1.49
-6.75
-11.57
-16.13
-20.80
-26.02
-32.11
-39.22
-47.11
-55.14
-62.30
-67.38
-69.24
-67.12
-60.92
-51.25
-39.25
-26.29
-13.64
-2.25
7.34
14.89
20.41
24.03
26.00
26.62
26.35
25.71
25.27
25.48
26.59
28.54
31.05
33.78
36.36
38.58
40.28
41.37
41.70
41.05
39.26
36.26
32.12
27.09
21.50
15.71
9.99
4.55
-0.57
-5.47
-10.36
-15.59
-21.61
-28.71
-36.96
-46.00
-55.04
-62.99
-68.64
-70.94
-69.30
-63.66
-54.60
-43.14
-30.52
-17.92
-6.22
4.03
12.53
19.15
23.79
26.41
27.17
26.56
25.41
24.66
25.04
26.85
29.82
33.34
36.65
39.23
40.82
41.48
41.44
40.91
39.92
38.38
36.08
32.83
28.52
23.25
17.26
10.91
4.57
-1.51
-7.21
-12.56
-17.79
-23.28
-29.49
-36.80
-45.21
-54.24
-62.83
-69.59
-73.16
-72.66
-67.88
-59.39
-48.27
-35.81
-23.24
-11.49
-1.24
7.10
13.25
17.15
18.96
19.13
18.38
17.50
17.22
17.94
19.68
22.19
25.05
27.89
30.38
32.37
33.71
34.31
34.07
32.89
30.72
27.53
23.39
18.50
13.16
7.71
2.46
-2.48
-7.19
-11.97
-17.24
-23.42
-30.73
-39.06
-47.83
-56.02
-62.28
-65.29
-64.15
-58.69
-49.52
-37.86
-25.19
-12.85
-1.87
7.12
13.82
18.17
20.28
20.47
19.25
17.33
15.46
14.33
14.38
15.70
18.02
20.81
23.47
25.55
26.90
27.61
27.80
27.46
26.36
24.15
20.58
15.72
9.97
3.86
-2.16
-7.99
-13.79
-19.95
-26.82
-34.61
-43.25
-52.35
-61.11
-68.37
-72.80
-73.26
-69.18
-60.78
-49.09
-35.63
-21.88
-9.04
2.18
11.41
18.49
23.31
25.89
26.48
25.68
24.32
23.32
23.42
24.85
27.43
30.57
33.62
36.09
37.79
38.75
39.12
38.93
37.99
35.99
32.58
27.66
21.45
14.41
7.10
-0.03
-6.78
-13.18
-19.45
-25.86
-32.73
-40.40
-49.21
-59.24
-70.15
-80.94
-89.98
-95.39
-95.63
-90.05
-79.19
-64.58
-48.27
-32.14
-17.48
-4.88
5.63
14.22
21.09
26.35
30.17
32.91
35.06
37.18
39.69
42.74
46.23
49.86
53.25
56.07
58.07
59.14
59.29
58.63
57.37
55.60
53.34
50.37
46.42
41.26
34.88
27.53
19.67
11.83
4.40
-2.46
-8.81
-14.94
-21.27
-28.30
-36.51
-46.18
-57.19
-68.83
-79.77
-88.32
-92.78
-91.94
-85.49
-74.04
-59.07
-42.40
-25.85
-10.70
2.34
13.09
21.77
28.65
34.03
38.18
41.37
43.97
46.40
49.03
52.06
55.44
58.90
62.06
64.65
66.51
67.64
68.09
67.89
66.94
65.16
62.49
59.01
54.90
50.31
45.31
39.86
33.86
27.36
20.51
13.58
6.81
0.32
-5.96
-12.22
-18.73
-25.80
-33.80
-43.11
-53.89
-65.83
-77.83
-88.12
-94.59
-95.52
-90.17
-79.10
-63.98
-47.02
-30.24
-14.99
-1.89
9.04
18.00
25.22
30.88
35.18
38.46
41.19
43.82
46.68
49.84
53.13
56.28
59.02
61.24
62.97
64.30
65.22
65.62
65.25
63.86
61.28
57.60
53.11
48.25
43.41
38.78
34.31
29.73
24.72
19.08
12.83
6.20
-0.46
-6.89
-13.02
-19.05
-25.48
-32.88
-41.72
-52.12
-63.59
-74.99
-84.65
-90.79
-92.00
-87.72
-78.33
-65.16
-49.96
-34.50
-20.10
-7.54
2.91
11.32
17.88
22.88
26.65
29.54
32.00
34.41
37.07
40.11
43.47
46.92
50.15
52.95
55.21
56.99
58.35
59.31
59.73
59.35
57.93
55.30
51.55
46.96
41.89
36.65
31.41
26.16
20.83
15.32
9.64
3.87
-1.87
-7.46
-12.93
-18.45
-24.34
-31.01
-38.82
-47.88
-57.85
-67.82
-76.35
-81.78
-82.65
-78.19
-68.64
-55.22
-39.77
-24.22
