1520870849.00
64.000000
-0.00
-0.00
-0.00
-0.00
-0.00
-0.00
-0.00
-0.00
-0.00
-0.00
0.00
0.01
0.01
-0.00
-0.03
-0.05
-0.05
0.00
0.13
0.36
0.66
1.01
1.37
1.72
2.06
2.40
2.79
3.24
3.80
4.42
5.06
5.66
6.20
6.68
7.15
7.68
8.31
9.14
10.09
11.04
11.88
12.56
13.14
13.76
14.65
15.96
17.91
20.32
22.90
25.38
27.58
29.57
31.68
34.32
37.81
42.54
48.15
54.10
59.83
64.97
69.58
74.14
79.34
85.71
93.76
103.00
112.62
121.73
129.77
136.75
143.30
150.75
157.77
166.64
177.95
191.79
206.97
220.57
228.25
225.36
208.53
176.87
132.76
80.05
23.07
-34.94
-92.44
-149.16
-205.23
-260.37
-313.74
-363.87
-409.83
-450.91
-486.50
-515.74
-537.23
-549.22
-549.96
-538.37
-514.21
-478.67
-433.87
-382.43
-326.99
-269.79
-212.56
-156.55
-102.81
-52.19
-5.68
35.85
71.75
101.73
125.94
144.88
159.25
169.77
177.06
181.50
183.39
182.96
180.48
176.30
170.81
164.44
157.53
150.32
142.96
135.52
128.03
120.55
113.14
105.86
98.80
91.99
85.48
79.28
73.40
67.86
62.66
57.82
53.34
49.22
45.46
42.07
39.02
36.33
33.97
31.94
30.25
28.89
27.84
27.09
26.65
26.51
26.66
27.08
27.74
28.61
29.62
30.68
31.69
32.49
32.93
32.85
32.09
30.54
28.13
24.85
20.78
16.01
10.72
5.18
-0.36
-5.62
-10.35
-14.34
-17.45
-19.59
-20.77
-21.04
-20.53
-19.39
-17.79
-15.90
-13.88
-11.83
-9.83
-7.91
-6.08
-4.32
-2.61
-0.93
0.77
2.52
4.37
6.32
8.42
10.68
13.07
15.55
18.13
20.80
23.59
26.53
29.68
33.09
36.84
40.85
45.07
49.47
54.04
58.78
63.70
68.83
74.20
79.93
85.83
91.77
97.71
103.61
109.45
115.26
120.94
126.69
132.60
138.38
143.84
148.75
152.89
155.94
157.49
156.84
153.24
148.15
141.99
134.99
127.28
118.93
110.00
100.59
90.52
80.29
70.13
59.90
49.62
39.31
29.05
18.95
9.12
-1.07
-10.63
-19.41
-27.58
-35.25
-42.54
-49.55
-56.38
-63.09
-71.32
-79.32
-87.08
-94.83
-102.76
-111.04
-119.89
-129.45
-139.83
-153.59
-167.92
-182.75
-198.03
-213.59
-229.13
-244.10
-257.73
-268.97
-279.94
-285.71
-285.16
-277.43
-262.14
-239.47
-210.26
-176.01
-117.80
-64.37
-13.86
31.92
71.57
104.30
129.93
148.86
161.95
170.35
171.95
171.38
169.20
165.59
160.39
153.46
144.89
135.17
125.17
113.34
103.18
94.80
87.59
80.43
72.14
61.90
49.51
35.35
18.40
0.74
-18.06
-39.14
-63.92
-93.52
-128.10
-166.55
-206.98
-247.99
-287.10
-323.70
-358.11
-391.41
-425.17
-461.22
-501.15
-545.22
-591.40
-633.76
-664.10
-674.02
-658.14
-616.52
-554.96
-482.85
-409.74
-342.21
-282.82
-231.06
-185.40
-145.08
-110.41
-81.97
-59.39
-40.92
-23.78
-5.40
15.62
39.18
63.77
87.62
109.43
128.99
147.16
165.38
185.05
207.20
232.35
260.63
291.66
324.19
355.76
382.69
400.89
407.11
400.15
381.40
354.36
323.44
292.68
264.84
241.18
221.77
205.92
192.55
180.52
168.94
157.36
145.95
135.17
125.39
116.32
107.08
96.35
83.01
66.69
47.92
28.06
8.87
-7.97
-21.33
-30.99
-37.71
-42.82
-47.74
-53.23
-59.04
-64.14
-67.25
-67.67
-65.71
-62.66
-60.17
-59.48
-60.86
-63.51
-65.91
-66.53
-64.48
-59.96
-54.21
-49.10
-46.49
-47.55
-52.30
-59.43
-66.45
-70.23
-67.87
-57.75
-40.25
-18.18
3.91
21.15
30.26
31.02
26.55
22.05
22.57
30.82
46.15
65.08
83.00
96.17
102.99
104.12
101.55
97.45
93.25
89.51
86.28
83.53
81.30
79.59
78.06
75.90
72.10
65.89
57.23
47.03
36.87
28.40
22.61
19.48
18.01
16.74
14.51
10.96
6.59
2.44
-0.59
-2.13
-2.44
-2.09
-1.53
-0.73
0.77
3.47
7.67
13.05
18.77
23.73
27.04
28.31
27.69
25.73
23.10
20.31
17.59
14.96
12.42
10.04
8.04
6.69
6.08
6.02
6.06
5.66
4.47
2.50
0.10
-2.22
-4.05
-5.26
-5.99
-6.58
-7.24
-8.03
-8.80
-9.37
-9.64
-9.65
-9.67
-10.01
-10.95
-12.60
-14.88
-17.42
-19.61
-20.75
-20.25
-17.87
-13.74
-8.44
-2.74
2.54
6.81
9.77
11.40
11.90
11.58
10.72
9.57
8.34
7.18
6.18
5.44
4.90
4.47
4.00
3.33
2.40
1.24
0.02
-1.06
-1.86
-2.41
-2.87
-3.48
-4.45
-5.87
-7.61
-9.40
-10.92
-11.93
-12.37
-12.40
-12.34
-12.48
-12.91
-13.42
-13.52
-12.61
-10.22
-6.28
-1.19
4.37
9.61
14.02
17.41
19.93
21.82
23.25
24.30
24.91
25.15
25.14
25.12
25.27
25.63
26.09
26.43
26.44
26.12
25.55
24.89
24.26
23.62
22.85
21.72
20.02
17.62
14.57
11.10
7.60
4.54
2.22
0.66
-0.42
-1.53
-3.11
-5.36
-8.15
-10.98
-13.35
-14.80
-15.12
-14.23
-12.19
-9.14
-5.30
-1.05
3.18
6.90
9.78
11.67
12.55
12.54
11.76
10.44
8.84
7.40
6.56
6.54
7.28
8.44
9.49
10.06
10.09
9.74
9.31
8.93
8.57
8.06
7.26
6.22
5.09
4.08
3.23
2.45
1.53
0.36
-1.05
-2.45
-3.60
-4.38
-4.86
-5.33
-6.08
-7.25
-8.69
-9.98
-10.60
-10.12
-8.41
-5.66
-2.32
1.10
4.14
6.57
8.28
9.25
9.51
9.07
8.03
6.56
4.95
3.52
2.49
1.93
1.74
1.75
1.82
1.90
1.99
2.10
2.25
2.41
2.54
2.68
2.87
3.06
3.15
2.99
2.48
1.61
0.55
-0.52
-1.50
-2.43
-3.50
-4.96
-6.95
-9.48
-12.43
-15.50
-18.29
-20.32
-21.11
-20.39
-18.16
-14.84
-11.21
-8.03
-5.77
-4.39
-3.43
-2.31
-0.67
1.44
3.59
5.30
6.32
6.82
7.22
8.02
9.52
11.66
14.07
16.21
17.61
18.06
17.71
16.97
16.33
16.05
16.17
16.51
16.85
17.10
17.29
17.45
17.51
17.27
16.48
15.02
12.93
10.43
7.76
5.15
2.83
1.08
0.21
0.41
1.52
2.98
4.03
4.11
3.18
1.82
0.95
1.38
3.39
6.57
10.00
12.68
13.75
12.77
9.69
4.77
-1.43
-8.13
-14.30
-18.96
-21.50
-21.77
-20.21
-17.47
-14.11
-10.35
-6.10
-1.22
4.22
9.84
15.03
19.24
22.12
23.63
23.97
23.40
22.14
20.29
17.88
14.85
11.18
6.80
1.67
-4.30
-11.20
-19.18
-28.27
-38.30
-48.76
-58.85
-67.63
-74.31
-78.49
-80.29
-80.22
-79.02
-77.36
-75.67
-73.98
-71.87
-68.57
-63.14
-54.72
-42.97
-28.28
-11.69
5.38
21.68
36.57
50.10
62.80
75.18
87.38
99.00
109.36
117.77
123.87
127.72
129.75
130.64
131.11
131.69
132.44
132.78
131.45
126.75
117.16
101.94
81.67
58.26
34.51
13.18
-3.95
-16.59
-25.87
-33.60
-41.36
-49.72
-58.14
-65.53
-71.02
-74.57
-76.88
-78.76
-80.40
-81.06
-79.48
-74.66
-66.69
-56.93
-47.52
-40.36
-36.36
-35.10
-35.23
-35.20
-34.05
-31.69
-28.69
-25.89
-23.76
-22.23
-20.74
-18.62
-15.45
-11.35
-6.89
-2.82
0.19
1.87
2.29
1.72
0.50
-1.16
-3.19
-5.60
-8.43
-11.75
-15.48
-19.38
-22.90
-25.28
-25.87
-24.41
-21.41
-18.05
-15.89
-16.18
-19.39
-25.07
-31.99
-38.71
-44.11
-47.57
-49.03
-48.72
-46.95
-43.96
-39.87
-34.70
-28.28
-20.22
-10.00
2.59
16.98
31.60
44.08
52.15
54.66
52.35
47.55
43.15
41.19
41.95
43.98
45.07
43.48
38.79
31.90
24.29
17.23
11.21
6.04
1.34
-3.02
-6.68
-9.15
-10.17
-10.26
-10.58
-12.46
-16.51
-21.96
-26.82
-28.47
-24.96
-15.99
-3.17
10.66
22.56
30.69
34.73
35.53
34.36
32.15
29.26
25.69
21.54
17.14
13.11
10.18
8.84
9.32
11.60
15.55
20.98
27.50
34.33
40.23
43.64
43.23
38.43
29.73
18.57
6.74
-4.30
-13.85
-21.92
-28.80
-34.54
-38.77
-41.03
-41.36
-40.59
-40.03
-40.62
-42.05
-42.70
-40.46
-33.97
-23.61
-11.41
-0.09
8.33
13.30
15.73
17.07
18.31
19.49
19.92
18.87
16.24
12.68
9.24
6.83
5.64
4.97
3.42
-0.66
-8.43
-20.02
-34.40
-49.67
-63.57
-73.99
-79.30
-78.45
-70.98
-57.12
-37.88
-15.15
8.66
31.23
51.10
67.81
81.74
93.18
101.67
105.90
104.40
96.54
83.38
67.66
53.01
42.64
38.44
40.45
47.34
56.99
67.20
76.00
81.74
83.12
79.39
70.58
57.60
42.14
26.16
11.48
-0.68
-9.95
-16.63
-21.54
-25.71
-30.14
-35.50
-42.04
-49.51
-57.29
-64.52
-70.42
-74.44
-76.40
-76.46
-74.94
-72.25
-68.83
-65.10
-61.52
-58.46
-55.98
-53.78
-51.11
-46.98
-40.56
-31.49
-20.06
-7.07
6.38
19.26
30.73
40.13
46.87
50.44
50.53
47.17
40.89
32.65
23.69
15.27
8.30
3.34
0.46
-0.69
-0.77
-0.58
-0.85
-2.02
-4.21
-7.15
-10.44
-13.68
-16.57
-18.95
-20.69
-21.68
-21.86
-21.35
-20.46
-19.62
-19.23
-19.41
-20.08
-21.00
-21.98
-22.93
-23.87
-24.80
-25.66
-26.31
-26.59
-26.45
-25.94
-25.10
-23.96
-22.49
-20.69
-18.66
-16.65
-14.91
-13.63
-12.85
-12.54
-12.60
-13.01
-13.71
-14.67
-15.84
-17.20
-18.74
-20.49
-22.39
-24.22
-25.62
-26.19
-25.61
-23.79
-20.87
-17.13
-12.90
-8.49
-4.16
-0.18
3.25
6.03
8.23
10.19
12.37
15.22
19.01
23.68
28.81
33.75
37.80
40.45
41.64
41.63
40.91
40.04
39.37
38.96
38.62
37.98
36.64
34.32
30.87
26.36
21.06
15.37
9.74
4.61
0.31
-2.94
-5.07
-6.18
-6.47
-6.31
-6.09
-6.22
-6.93
-8.26
-9.99
-11.86
-13.62
-15.29
-17.00
-18.99
-21.35
-23.92
-26.33
-28.11
-28.89
-28.60
-27.35
-25.44
-23.18
-20.80
-18.42
-16.07
-13.76
-11.47
-9.27
-7.24
-5.55
-4.27
-3.39
-2.76
-2.22
-1.66
-1.08
-0.55
-0.20
-0.06
-0.10
-0.26
-0.43
-0.64
-0.86
-1.16
-1.57
-2.12
-2.84
-3.71
-4.72
-5.79
-6.87
-7.91
-8.92
-9.95
-11.05
-12.26
-13.49
-14.51
-15.07
-14.89
-13.89
-12.28
-10.46
-8.90
-7.89
-7.47
-7.45
-7.64
-7.97
-8.58
-9.69
-11.40
-13.68
-16.32
-19.04
-21.59
-23.82
-25.70
-27.22
-28.47
-29.63
-30.98
-32.87
-35.65
-39.53
-44.53
-50.43
-56.92
-63.66
-70.22
-76.05
-80.28
-81.78
-79.44
-72.49
-61.05
-46.25
-30.05
-14.74
-2.24
6.28
10.47
10.62
7.33
1.46
-5.71
-12.43
-16.72
-17.02
-12.95
-5.69
2.24
8.08
10.02
8.27
4.95
3.38
6.60
16.12
31.49
50.57
70.54
88.82
103.82
114.97
122.47
126.85
128.65
128.40
126.64
124.03
121.18
118.47
115.75
112.40
107.61
100.69
91.46
80.30
67.98
55.41
43.39
32.45
22.84
14.46
6.94
-0.28
-7.83
-16.15
-25.39
-35.43
-46.07
-57.22
-68.90
-80.90
-92.34
-101.45
-106.09
-104.43
-95.83
-81.02
-61.74
-39.85
-16.75
6.75
29.96
51.79
70.77
85.42
95.01
99.94
101.50
101.31
100.51
99.43
97.74
94.92
90.64
84.97
78.24
70.88
63.39
56.42
50.96
48.28
49.76
56.33
68.00
83.66
101.14
117.75
130.76
137.89
137.37
128.01
109.36
82.08
48.29
11.41
-24.31
-54.81
-77.20
-90.41
-95.22
-93.87
-89.35
-84.68
-82.24
-83.39
-88.29
-96.06
-105.26
-114.38
-122.27
-128.35
-132.50
-134.74
-135.13
-133.74
-130.80
-126.88
-122.73
-119.04
-116.18
-113.94
-111.76
-109.02
-105.59
-101.99
-99.26
-98.50
-100.21
-104.02
-108.71
-112.80
-115.24
-115.85
-115.35
-114.74
-114.67
-114.79
-113.65
-109.16
-99.27
-82.88
-60.24
-32.96
-3.46
25.70
52.49
75.57
94.28
108.30
117.41
121.54
120.82
115.93
108.15
99.16
90.53
83.26
77.39
72.21
66.78
60.68
54.42
49.25
46.52
46.80
49.22
51.72
51.89
48.10
40.28
29.81
18.58
8.15
-0.84
-8.30
-14.00
-17.20
-16.80
-12.27
-4.46
4.27
10.82
12.69
9.14
1.46
-7.76
-15.73
-20.53
-21.48
-18.96
-13.95
-7.64
-1.19
4.49
8.86
11.96
14.38
17.02
20.65
25.60
31.53
37.51
42.46
45.42
46.05
44.68
42.40
40.65
40.78
43.40
48.09
53.37
57.31
58.26
55.50
49.47
41.51
33.29
26.15
20.75
16.87
13.56
9.64
4.01
-3.76
-13.18
-22.95
-31.36
-37.06
-39.67
-40.08
-40.11
-41.76
-46.17
-53.06
-60.61
-66.01
-66.48
-60.30
-47.43
-29.53
-9.43
9.79
25.72
36.96
43.08
44.33
41.22
34.38
24.69
13.50
2.60
-6.10
-11.13
-12.05
-9.64
-5.50
-1.33
1.90
4.31
7.03
11.37
18.18
27.27
37.40
46.74
53.43
56.08
53.95
46.95
35.47
20.36
2.77
-16.05
-35.01
-53.24
-69.90
-83.94
-93.79
-97.76
-94.65
-84.62
-69.49
-52.40
-36.70
-24.94
-18.07
-15.48
-15.53
-16.31
-16.22
-14.39
-10.68
-5.49
0.69
7.69
15.85
25.72
37.51
50.55
63.22
73.40
79.25
79.67
74.43
63.82
48.46
29.47
8.88
-10.24
-24.20
-29.85
-25.65
-12.35
7.33
29.72
51.31
69.59
83.19
91.97
96.71
98.93
100.50
103.03
107.09
111.78
114.75
113.06
104.32
87.67
64.30
37.01
9.30
-15.69
-36.00
-51.08
-61.56
-68.71
-73.91
-78.16
-81.71
-83.92
-83.34
-78.39
-68.20
-53.34
-35.95
-19.13
-5.94
1.64
3.15
-0.61
-8.34
-18.70
-30.50
-42.50
-53.15
-60.77
-64.13
-63.02
-58.42
-52.25
-46.59
-43.01
-42.20
-43.93
-47.28
-51.00
-53.88
-54.95
-53.81
-50.59
-45.93
-40.64
-35.45
-30.74
-26.60
-22.86
-19.37
-16.08
-13.13
-10.74
-9.12
-8.28
-8.11
-8.37
-8.76
-9.04
-9.10
-8.86
-8.32
-7.48
-6.33
-4.96
-3.47
-2.03
-0.78
0.17
0.71
0.76
0.19
-1.00
-2.67
-4.53
-6.27
-7.70
-8.90
-10.18
-11.97
-14.55
-17.94
-21.82
-25.60
-28.58
-30.17
-30.01
-28.03
-24.58
-20.27
-15.82
-11.89
-8.86
-6.84
-5.71
-5.23
-5.18
-5.45
-6.02
-6.89
-8.01
-9.25
-10.44
-11.35
-11.91
-12.28
-12.95
-14.59
-17.74
-22.44
-27.86
-32.50
-34.60
-32.90
-27.21
-18.55
-8.84
-0.23
5.46
7.08
4.22
-2.77
-12.69
-23.51
-32.49
-36.90
-34.80
-25.87
-11.51
5.59
22.40
36.43
46.20
51.31
52.05
49.06
43.17
35.37
26.85
18.89
12.72
9.31
9.38
13.40
21.56
33.68
49.11
66.62
84.42
100.42
112.57
119.27
119.73
114.15
103.56
89.49
73.60
57.23
41.33
26.45
12.86
0.69
-10.12
-19.69
-28.37
-36.56
-44.65
-52.80
-61.04
-69.21
-77.08
-84.34
-90.57
-95.23
-97.67
-97.49
-94.71
-89.97
-84.21
-78.30
-72.48
-66.05
-57.67
-45.91
-30.08
-10.63
10.92
32.44
51.99
68.25
80.80
89.81
95.77
99.18
100.44
99.97
98.27
95.98
93.70
91.88
90.64
89.74
88.66
86.95
84.37
81.03
77.32
73.58
69.82
65.59
60.17
52.97
43.81
33.09
21.53
9.87
-1.45
-12.23
-22.42
-31.95
-40.62
-48.30
-55.11
-61.51
-68.20
-75.80
-84.62
-94.49
-104.58
-113.36
-118.65
-118.09
-109.76
-92.98
-68.78
-39.78
-9.39
19.17
43.73
63.42
78.42
89.44
97.34
103.03
107.37
110.84
113.27
113.74
111.18
105.37
97.44
89.64
84.06
81.33
80.00
77.15
69.83
56.55
37.77
15.42
-8.19
-31.21
-52.25
-69.99
-82.85
-89.35
-88.93
-82.56
-72.61
-61.89
-52.46
-44.91
-38.40
-31.54
-23.45
-14.40
-5.70
1.00
4.59
4.98
3.06
0.28
-2.11
-3.55
-4.32
-5.22
-7.02
-9.98
-13.58
-16.76
-18.49
-18.30
-16.58
-14.29
-12.52
-11.92
-12.46
-13.64
-14.79
-15.27
-14.57
-12.20
-7.80
-1.31
6.72
15.13
22.50
27.54
29.52
28.36
24.43
18.34
10.82
2.72
-4.83
-10.56
-13.29
-12.41
-8.23
-2.04
4.26
8.78
10.39
9.19
6.48
4.14
3.92
6.65
12.02
18.78
25.40
30.61
33.71
34.50
33.02
29.43
24.00
17.31
10.28
4.01
-0.54
-2.81
-2.88
-1.38
0.75
2.36
2.37
-0.10
-5.57
-14.03
-24.82
-36.61
-47.58
-55.85
-59.90
-59.16
-54.08
-46.15
-37.40
-29.76
-24.55
-22.11
-21.81
-22.39
-22.45
-20.90
-17.24
-11.64
-4.75
2.50
9.22
14.64
18.25
19.82
19.40
17.31
14.14
10.60
7.39
4.91
3.14
1.69
-0.11
-2.80
-6.50
-10.79
-14.86
-17.76
-18.87
-18.15
-16.09
-13.50
-11.10
-9.24
-7.80
-6.37
-4.60
-2.48
-0.34
1.34
2.24
2.36
2.03
1.66
1.46
1.41
1.25
0.77
-0.08
-1.13
-2.05
-2.52
-2.35
-1.53
-0.21
1.35
2.90
4.21
5.11
5.50
5.35
4.72
3.67
2.32
0.77
-0.90
-2.58
-4.17
-5.53
-6.54
-7.11
-7.25
-7.07
-6.76
-6.56
-6.67
-7.19
-8.15
-9.56
-11.28
-13.11
-14.72
-15.75
-15.87
-14.92
-12.89
-9.93
-6.34
-2.52
1.05
3.91
5.73
6.46
6.32
5.77
5.35
5.48
6.34
7.88
9.87
11.92
13.68
14.87
15.38
15.30
14.89
14.50
14.32
14.29
14.11
13.42
12.00
9.93
7.56
5.37
3.78
2.91
2.59
2.40
1.85
0.61
-1.37
-3.84
-6.36
-8.50
-10.00
-10.85
-11.23
-11.42
-11.74
-12.39
-13.52
-15.14
-17.15
-19.22
-20.90
-21.65
-21.09
-19.16
-16.18
-12.85
-9.85
-7.65
-6.38
-5.80
-5.53
-5.22
-4.71
-4.00
-3.22
-2.45
-1.74
-0.96
0.10
1.65
3.82
6.59
9.73
12.86
15.61
17.72
19.10
19.82
20.08
19.97
19.50
18.66
17.39
15.79
13.96
12.04
10.16
8.45
7.05
6.07
5.51
5.24
4.93
4.30
3.27
2.06
1.12
0.89
1.41
2.33
2.95
2.60
0.93
-1.89
-5.29
-8.59
-11.24
-12.93
-13.62
-13.39
-12.31
-10.46
-7.94
-4.97
-1.88
0.94
3.14
4.58
5.21
5.13
4.50
3.47
2.26
1.17
0.59
0.78
1.83
3.45
5.17
6.49
7.16
7.24
7.05
7.00
7.26
7.67
7.87
7.42
6.16
4.27
2.23
0.56
-0.42
-0.77
-0.83
-1.05
-1.79
-3.13
-4.94
-6.91
-8.77
-10.30
-11.35
-11.86
-11.83
-11.46
-11.09
-11.18
-12.14
-14.13
-16.84
-19.49
-20.99
-20.34
-17.02
-11.32
-4.26
2.75
8.50
12.32
14.33
15.07
15.19
15.03
14.62
13.84
12.59
10.97
9.16
7.31
5.36
3.19
0.77
-1.74
-3.90
-5.28
-5.64
-5.04
-3.88
-2.60
-1.51
-0.63
0.23
1.37
2.97
5.02
7.30
9.45
11.09
11.89
11.64
10.27
7.95
5.00
1.85
-1.15
-3.81
-6.11
-8.19
-10.18
-12.09
-13.72
-14.77
-14.91
-13.88
-11.70
-8.66
-5.19
-1.84
0.94
2.90
4.09
4.75
5.19
5.70
6.43
7.41
8.66
10.18
11.91
13.72
15.37
16.53
16.90
16.33
14.93
12.97
10.86
8.91
7.32
6.08
5.07
4.18
3.42
2.87
2.59
2.53
2.49
2.18
1.43
0.23
-1.28
-2.92
-4.61
-6.32
-8.10
-9.88
-11.55
-12.95
-14.06
-15.09
-16.44
-18.46
-21.27
-24.59
-27.76
-29.93
-30.39
-28.83
-25.48
-21.05
-16.48
-12.57
-9.71
-7.78
-6.35
-4.93
-3.24
-1.30
0.66
2.36
3.58
4.13
3.95
3.04
1.52
-0.30
-2.00
-3.24
-3.94
-4.43
-5.38
-7.45
-10.95
-15.48
-19.96
-22.87
-22.83
-19.06
-11.72
-1.86
8.90
18.81
26.44
30.93
32.07
30.29
26.49
22.01
18.33
16.84
18.30
22.75
29.26
36.38
42.51
46.47
47.73
46.39
42.99
38.19
32.60
26.69
20.82
15.36
10.56
6.64
3.73
1.83
0.90
0.80
1.27
1.97
2.45
2.26
1.13
-1.04
-4.03
-7.48
-10.90
-13.87
-16.11
-17.54
-18.16
-17.96
-16.83
-14.57
-11.02
-6.21
-0.41
5.94
12.36
18.45
23.97
28.67
32.34
34.64
35.30
34.16
31.33
27.18
22.16
16.64
10.77
4.46
-2.44
-9.97
-17.85
-25.59
-32.63
-38.61
-43.58
-47.95
-52.10
-56.16
-59.78
-62.29
-63.05
-61.85
-58.98
-55.11
-50.94
-46.96
-43.29
-39.86
-36.51
-33.09
-29.44
-25.26
-20.07
-13.27
-4.47
6.36
18.68
31.41
43.15
52.54
58.55
60.75
59.31
54.90
48.45
41.04
33.72
27.40
22.70
19.79
18.35
17.69
17.03
15.76
13.66
10.88
7.79
4.73
1.87
-0.84
-3.60
-6.48
-9.31
-11.57
-12.65
-12.11
-10.08
-7.38
-5.33
-5.28
-8.01
-13.29
-19.92
-26.12
-30.35
-31.82
-30.79
-28.38
-26.07
-25.03
-25.72
-27.71
-29.86
-30.83
-29.46
-25.35
-18.98
-11.71
-5.39
-1.91
-2.63
-7.92
-16.97
-27.92
-38.22
-45.38
-47.60
-44.32
-36.32
-25.32
-13.22
-1.49
9.22
19.01
28.10
36.43
43.38
48.21
50.66
51.31
51.38
52.21
54.76
59.50
66.76
76.86
89.93
105.07
119.76
130.26
132.91
125.65
108.70
84.07
54.28
21.27
-13.76
-49.54
-83.69
-112.60
-132.42
-140.36
-135.87
-121.13
-100.60
-79.83
-63.94
-56.12
-56.68
-63.01
-70.35
-73.52
-68.74
-54.93
-33.72
-8.53
16.80
39.07
56.37
68.05
74.38
76.17
74.51
70.42
64.70
57.90
50.53
43.21
36.32
29.69
22.63
14.32
4.33
-7.03
-18.75
-29.62
-38.74
-45.92
-51.49
-56.17
-60.81
-66.23
-73.07
-81.38
-90.21
-97.42
-100.12
-95.45
-81.70
-59.08
-29.87
2.37
33.88
61.85
85.36
105.46
124.67
145.78
170.63
199.10
228.95
256.50
277.90
290.31
292.72
285.91
271.91
253.25
232.52
212.05
193.80
179.10
168.43
161.20
156.02
151.27
145.74
138.98
130.97
121.61
110.32
96.33
79.42
60.56
41.83
25.47
12.74
3.18
-4.96
-13.67
-23.92
-35.45
-47.33
-59.01
-70.73
-83.07
-95.86
-107.65
-116.24
-120.14
-119.83
-118.01
-118.28
-123.30
-133.17
-145.53
-156.78
-163.85
-165.51
-162.55
-156.87
-150.51
-145.02
-141.32
-140.00
-141.21
-144.53
-148.63
-151.39
-150.56
-144.72
-133.97
-119.94
-105.12
-91.90
-81.80
-74.91
-69.98
-64.89
-57.53
-46.94
-34.00
-21.51
-12.91
-10.61
-14.49
-21.63
-27.52
-28.23
-22.23
-10.85
2.76
15.54
26.12
35.12
44.23
54.77
66.68
78.25
86.84
89.76
85.15
72.49
52.72
28.14
1.79
-23.12
-44.15
-60.06
-70.89
-77.56
-81.25
-83.02
-83.73
-84.35
-86.07
-89.98
-96.47
-104.71
-112.75
-118.14
-119.03
-114.77
-106.09
-94.43
-81.29
-67.75
-54.34
-41.27
-28.76
-17.22
-7.28
0.35
5.21
7.39
7.69
7.64
9.05
13.45
21.61
33.40
47.91
63.95
80.20
95.22
107.38
114.96
116.72
112.37
102.86
90.07
76.18
63.04
51.69
42.41
34.79
27.99
20.91
12.57
2.38
-9.55
-22.42
-35.11
-46.80
-57.68
-68.94
-82.24
-98.38
-116.39
-133.20
-144.61
-147.03
-138.91
-121.39
-97.63
-71.34
-45.40
-21.37
0.25
19.23
35.06
47.16
55.44
60.79
64.94
69.71
76.03
83.36
90.03
94.00
94.09
90.57
85.16
80.28
78.11
79.75
84.98
92.60
101.09
109.10
115.63
119.97
121.34
118.97
112.45
102.22
89.75
77.26
66.78
59.20
53.85
48.82
41.91
31.69
18.02
1.77
-16.12
-35.47
-56.97
-81.64
-109.89
-141.08
-173.75
-206.41
-238.31
-269.41
-299.74
-328.67
-354.66
-375.85
-390.88
-399.54
-402.50
-400.41
-392.92
-378.44
-354.95
-321.34
-278.54
-229.69
-179.19
-131.19
-88.18
-50.51
-16.86
14.61
44.90
73.50
98.62
118.18
131.02
137.66
140.06
140.63
141.18
142.26
143.28
143.33
141.87
138.88
134.60
129.10
122.39
114.73
107.07
100.95
97.92
98.75
103.04
109.27
115.44
119.81
121.27
119.44
114.50
107.11
98.42
89.96
83.33
79.67
79.14
80.84
83.06
83.93
81.98
76.46
67.49
56.00
43.47
31.54
21.64
14.64
10.64
9.00
8.68
8.60
8.06
6.95
5.70
4.98
5.26
6.54
8.26
9.72
10.35
10.11
9.47
9.06
9.38
10.50
12.23
14.19
16.21
18.28
20.46
22.67
24.67
26.11
26.69
26.23
24.69
22.09
18.47
13.95
8.84
3.62
-1.15
-5.08
-8.14
-10.75
-13.73
-18.04
-24.55
-33.71
-45.31
-58.25
-70.50
-79.46
-82.65
-78.55
-67.27
-50.66
-31.72
-13.69
1.09
11.67
18.40
22.32
24.46
25.33
24.91
22.88
18.97
13.22
6.04
-1.79
-9.24
-15.14
-18.51
-18.69
-15.65
-9.94
-2.65
4.86
11.20
15.25
16.36
14.64
10.93
6.65
3.43
2.51
4.39
8.54
13.69
18.21
20.60
19.79
15.38
7.59
-2.67
-14.03
-24.79
-33.39
-38.82
-40.79
-39.65
-36.07
-30.62
-23.68
-15.55
-6.65
2.35
10.61
17.42
22.49
25.90
28.12
29.76
31.53
34.06
37.94
43.37
50.10
57.31
63.90
68.94
72.12
73.79
74.75
75.73
77.00
78.44
79.84
81.17
82.75
84.93
87.64
90.16
91.28
89.88
85.54
78.89
71.20
63.75
57.29
51.84
47.27
43.81
42.29
43.81
48.97
57.16
66.58
74.83
80.01
81.48
80.11
77.65
75.97
76.10
77.94
80.39
81.98
81.55
78.69
73.79
67.77
61.57
55.67
49.96
43.91
36.92
28.59
18.91
8.11
-3.44
-15.39
-27.47
-39.41
-50.99
-61.89
-71.60
-79.48
-84.87
-87.44
-87.48
-86.13
-85.13
-86.35
-90.97
-98.91
-108.52
-117.05
-121.49
-119.76
-111.29
-97.27
-80.09
-62.46
-46.63
-34.08
-25.46
-21.05
-20.90
-24.85
-32.24
-41.72
-51.38
-59.21
-63.75
-64.54
-62.14
-57.73
-52.59
-47.70
-43.59
-40.39
-38.01
-36.28
-34.91
-33.63
-32.20
-30.49
-28.50
-26.37
-24.33
-22.65
-21.64
-21.61
-22.87
-25.72
-30.25
-36.39
-43.61
-51.09
-57.76
-62.53
-64.58
-63.40
-58.95
-51.52
-41.69
-30.18
-17.82
-5.37
6.53
17.51
27.44
36.45
44.66
52.05
58.36
63.23
66.37
67.81
67.85
66.98
65.71
64.38
63.18
62.09
61.04
59.91
58.63
57.10
55.25
53.05
50.52
47.84
45.23
42.80
40.35
37.41
33.25
27.28
19.31
9.83
-0.16
-9.47
-17.30
-23.51
-28.61
-33.40
-38.49
-44.04
-49.87
-55.67
-61.24
-66.41
-70.77
-73.51
-73.57
-70.09
-62.94
-52.94
-41.59
-30.49
-20.74
-12.74
-6.33
-1.23
2.71
5.55
7.46
8.88
10.35
12.31
14.89
17.83
20.72
23.17
25.03
26.29
27.05
27.43
27.50
27.33
26.95
26.36
25.51
24.29
22.60
20.35
17.49
14.08
10.15
5.75
0.95
-4.16
-9.41
-14.67
-19.89
-25.09
-30.41
-35.91
-41.38
-46.30
-49.86
-51.19
-49.64
-45.04
-37.85
-29.06
-19.86
-11.33
-4.10
1.77
6.65
11.00
15.05
18.67
21.50
23.20
23.71
23.29
22.36
21.30
20.27
19.28
18.26
17.21
16.19
15.29
14.63
14.28
14.24
14.46
14.75
14.79
14.21
12.72
10.35
7.47
4.66
2.46
1.09
0.29
-0.52
-2.04
-4.79
-8.96
-14.33
-20.38
-26.35
-31.37
-34.66
-35.60
-33.95
-29.92
-24.16
-17.57
-11.06
-5.28
-0.49
3.44
6.84
10.02
13.12
15.99
18.35
19.92
20.62
20.61
20.23
19.83
19.56
19.35
18.99
18.33
17.37
16.25
15.11
13.93
12.53
10.63
8.12
5.12
2.02
-0.74
-2.84
-4.30
-5.34
-6.31
-7.51
-9.03
-10.86
-13.01
-15.52
-18.40
-21.44
-24.13
-25.76
-25.66
-23.54
-19.69
-14.89
-10.03
-5.84
-2.52
0.16
2.64
5.32
8.23
11.12
13.62
15.33
16.10
16.05
15.45
14.60
13.68
12.68
11.53
10.11
8.50
6.94
5.71
4.94
4.47
3.99
3.10
1.62
-0.35
-2.53
-4.62
-6.43
-7.97
-9.37
-10.79
-12.40
-14.29
-16.48
-18.83
-20.99
-22.38
-22.41
-20.66
-17.16
-12.44
-7.30
-2.52
1.45
4.56
7.05
9.22
11.23
13.06
14.59
15.66
16.19
16.24
15.93
15.42
14.80
14.12
13.26
12.11
10.61
8.85
7.04
5.42
4.05
2.77
1.22
-0.86
-3.41
-6.05
-8.18
-9.37
-9.61
-9.34
-9.21
-9.76
-11.14
-13.09
-15.12
-16.72
-17.51
-17.31
-16.04
-13.63
-10.09
-5.51
-0.14
5.57
11.05
15.74
19.17
21.18
21.88
21.69
21.13
20.64
20.45
20.43
20.26
19.56
18.16
16.12
13.65
11.04
8.49
6.20
4.33
3.06
2.50
2.56
2.92
3.04
2.52
1.21
-0.66
-2.59
-4.15
-5.17
-5.86
-6.65
-7.91
-9.76
-12.02
-14.20
-15.81
-16.40
-15.75
-13.84
-10.78
-6.79
-2.16
2.71
7.37
11.37
14.35
16.11
16.70
16.37
15.44
14.20
12.83
11.41
9.93
8.37
6.69
4.90
3.02
1.17
-0.47
-1.67
-2.24
-2.14
-1.51
-0.76
-0.34
-0.57
-1.57
-3.12
-4.84
-6.30
-7.22
-7.52
-7.39
-7.20
-7.42
-8.44
-10.31
-12.74
-15.10
-16.64
-16.80
-15.41
-12.73
-9.28
-5.67
-2.36
0.41
2.50
3.87
4.58
4.71
4.43
3.92
3.32
2.77
2.39
2.31
2.62
3.30
4.18
4.95
5.38
5.40
5.13
4.81
4.52
4.18
3.57
2.54
1.18
-0.24
-1.38
-2.02
-2.22
-2.28
-2.52
-3.19
-4.31
-5.75
-7.32
-8.92
-10.50
-12.11
-13.75
-15.33
-16.63
-17.39
-17.40
-16.59
-15.13
-13.34
-11.56
-9.97
-8.47
-6.74
-4.48
-1.54
1.84
5.16
7.83
9.46
10.06
9.98
9.66
9.45
9.41
9.42
9.30
8.98
8.54
8.07
7.56
6.96
6.14
5.15
4.17
3.41
2.97
2.77
2.62
2.39
2.05
1.69
1.38
1.03
0.48
-0.49
-1.98
-3.89
-6.06
-8.26
-10.30
-11.96
-12.99
-13.12
-12.20
-10.23
-7.46
-4.21
-0.76
2.68
5.97
8.96
11.40
13.06
13.74
13.38
12.10
10.21
8.10
6.21
4.87
4.23
4.23
4.60
4.99
5.16
4.99
4.56
3.99
3.40
2.85
2.34
1.88
1.45
1.02
0.51
-0.16
-0.96
-1.74
-2.33
-2.63
-2.71
-2.81
-3.19
-4.04
-5.35
-7.03
-8.90
-10.78
-12.40
-13.51
-13.80
-13.05
-11.27
-8.66
-5.61
-2.49
0.45
3.15
5.62
7.89
9.85
11.33
12.09
12.05
11.26
9.97
8.56
7.37
6.62
6.27
6.11
5.87
5.40
4.79
4.21
3.88
3.85
3.95
4.00
3.85
3.57
3.36
3.40
3.78
4.32
4.75
4.78
4.25
3.18
1.79
0.33
-0.98
-2.06
-2.96
-3.83
-4.86
-6.17
-7.84
-9.87
-12.16
-14.50
-16.56
-17.95
-18.35
-17.62
-15.89
-13.55
-11.04
-8.70
-6.58
-4.50
-2.23
0.31
2.97
5.38
7.24
8.41
9.02
9.38
9.78
10.37
11.11
11.89
12.56
12.98
13.11
12.86
12.19
11.10
9.70
8.22
6.90
5.90
5.19
4.58
3.92
3.10
2.25
1.51
0.96
0.59
0.19
-0.37
-1.20
-2.26
-3.50
-4.87
-6.38
-8.05
-9.86
-11.68
-13.34
-14.74
-15.97
-17.20
-18.54
-19.92
-20.94
-21.16
-20.20
-18.03
-15.00
-11.63
-8.44
-5.65
-3.24
-1.02
1.20
3.42
5.50
7.25
8.54
9.35
9.74
9.76
9.48
8.98
8.38
7.82
7.43
7.25
7.28
7.47
7.75
8.11
8.50
8.76
8.69
8.10
6.99
5.58
4.27
3.44
3.21
3.37
3.49
3.16
2.22
0.76
-0.89
-2.50
-3.98
-5.39
-6.87
-8.50
-10.27
-12.17
-14.20
-16.45
-19.00
-21.78
-24.52
-26.81
-28.17
-28.24
-26.90
-24.33
-20.91
-17.11
-13.35
-9.94
-7.01
-4.53
-2.41
-0.48
1.31
2.96
4.35
5.37
5.98
6.27
6.38
6.47
6.60
6.69
6.62
6.38
6.09
5.93
6.10
6.60
7.20
7.55
7.39
6.64
5.42
3.99
2.56
1.28
0.12
-0.95
-1.99
-3.04
-4.09
-5.15
-6.24
-7.41
-8.70
-10.18
-11.92
-13.98
-16.28
-18.54
-20.33
-21.05
-20.29
-17.94
-14.35
-10.13
-5.99
-2.42
0.41
2.65
4.53
6.22
7.73
8.99
9.93
10.54
10.96
11.39
11.91
12.54
13.13
13.48
13.45
13.05
12.43
11.76
11.22
10.88
10.71
10.57
10.33
9.87
9.09
7.97
6.53
4.85
3.10
1.50
0.21
-0.67
-1.27
-1.80
-2.52
-3.69
-5.50
-7.98
-11.03
-14.39
-17.59
-20.13
-21.47
-21.31
-19.62
-16.67
-12.92
-8.87
-4.90
-1.28
1.83
4.32
6.11
7.23
7.87
8.26
8.68
9.23
9.81
10.19
10.22
9.92
9.54
9.45
9.89
10.83
12.01
13.03
13.61
13.58
12.99
11.98
10.76
9.49
8.32
7.30
6.36
5.37
4.15
2.64
0.85
-1.07
-2.94
-4.60
-5.94
-6.94
-7.65
-8.24
-8.89
-9.95
-11.69
-14.29
-17.66
-21.38
-24.79
-27.15
-27.95
-27.02
-24.58
-21.09
-17.10
-13.10
-9.39
-6.13
-3.34
-0.98
1.07
2.99
4.91
6.84
8.65
10.14
11.14
11.58
11.56
11.29
10.93
10.60
10.32
10.08
9.96
10.07
10.46
11.07
11.69
12.00
11.77
10.91
9.53
7.90
6.30
4.94
3.89
3.01
2.09
0.95
-0.49
-2.11
-3.71
-5.13
-6.33
-7.44
-8.68
-10.27
-12.35
-14.89
-17.78
-20.79
-23.57
-25.72
-26.86
-26.77
-25.44
-23.19
-20.46
-17.66
-14.95
-12.22
-9.25
-5.95
-2.43
0.95
3.78
5.85
7.20
8.12
8.90
9.74
10.59
11.27
11.58
11.47
11.13
10.85
11.00
11.71
12.83
13.95
14.55
14.30
13.15
11.46
9.70
8.32
7.44
6.93
6.51
5.94
5.18
4.27
3.30
2.22
0.97
-0.58
-2.42
-4.47
-6.55
-8.60
-10.66
-12.91
-15.52
-18.47
-21.49
-24.06
-25.58
-25.64
-24.12
-21.30
-17.62
-13.59
-9.54
-5.61
-1.83
1.82
5.26
8.33
10.81
12.58
13.60
14.06
14.20
14.37
14.74
15.30
15.91
16.37
16.57
16.54
16.45
16.42
16.43
16.36
16.01
15.28
14.22
12.95
11.59
10.15
8.53
6.62
4.42
2.13
0.04
-1.59
-2.71
-3.56
-4.57
-6.17
-8.53
-11.58
-15.09
-18.74
-22.28
-25.40
-27.66
-28.52
-27.52
-24.56
-20.09
-14.94
-10.03
-5.91
-2.63
0.25
3.20
6.41
9.69
12.61
14.87
16.47
17.72
18.92
20.20
21.32
21.91
21.69
20.70
19.34
18.11
17.37
17.13
17.15
17.09
16.72
15.98
14.94
13.67
12.18
10.53
8.77
6.99
5.28
3.61
1.92
0.17
-1.59
-3.19
-4.50
-5.51
-6.38
-7.36
-8.66
-10.37
-12.49
-15.02
-18.03
-21.55
-25.35
-28.95
-31.61
-32.63
-31.62
-28.67
-24.31
-19.24
-14.11
-9.34
-5.07
-1.24
2.29
5.62
8.78
11.69
14.18
16.06
17.20
17.57
17.28
16.56
15.60
14.62
13.79
13.22
13.01
13.15
13.58
14.11
14.51
14.53
14.03
12.91
11.22
9.10
6.84
4.79
3.30
2.54
2.42
2.57
2.55
2.06
1.12
-0.01
-0.99
-1.63
-2.06
-2.58
-3.53
-5.05
-7.14
-9.68
-12.58
-15.81
-19.32
-22.86
-25.96
-27.96
-28.29
-26.66
-23.26
-18.69
-13.74
-9.11
-5.12
-1.78
1.08
3.66
5.97
7.91
9.42
10.52
11.38
12.16
12.95
13.68
14.17
14.30
14.05
13.62
13.25
13.09
13.19
13.43
13.59
13.49
12.97
12.02
10.74
9.29
7.91
6.76
5.84
5.06
4.21
3.09
1.57
-0.27
-2.25
-4.15
-5.79
-7.16
-8.41
-9.77
-11.45
-13.56
-16.05
-18.78
-21.52
-23.98
-25.92
-27.02
-27.01
-25.69
-23.02
-19.15
-14.47
-9.46
-4.57
-0.15
3.60
6.70
9.20
11.20
12.77
13.92
14.66
15.02
15.09
15.06
15.21
15.71
16.57
17.60
18.44
18.76
18.41
17.49
16.30
15.20
14.37
13.87
13.57
13.28
12.86
12.21
11.27
9.97
8.31
6.30
4.08
1.84
-0.21
-1.93
-3.34
-4.61
-5.96
-7.58
-9.59
-12.03
-14.93
-18.32
-22.17
-26.26
-30.09
-32.91
-33.93
-32.68
-29.21
-24.12
-18.34
-12.81
-8.15
-4.47
-1.54
0.99
3.37
5.64
7.69
9.39
10.69
11.65
12.38
12.97
13.45
13.81
14.08
14.33
14.69
15.22
15.88
16.50
16.92
17.00
16.74
16.19
15.43
14.46
13.32
12.03
10.65
9.27
7.92
6.57
5.08
3.35
1.36
-0.79
-2.90
-4.76
-6.21
-7.19
-7.80
-8.30
-9.06
-10.47
-12.71
-15.73
-19.21
-22.66
-25.60
-27.62
-28.46
-27.98
-26.20
-23.33
-19.70
-15.75
-11.87
-8.27
-4.98
-1.89
1.15
4.14
6.96
9.39
11.25
12.51
13.31
13.86
14.29
14.66
14.90
14.92
14.68
14.20
13.61
13.04
12.62
12.38
12.24
12.05
11.67
10.97
9.84
8.35
6.64
4.99
3.64
2.76
2.22
1.70
0.85
-0.59
-2.55
-4.74
-6.77
-8.42
-9.67
-10.82
-12.24
-14.23
-16.89
-20.07
-23.38
-26.31
-28.36
-29.07
-28.23
-25.86
-22.21
-17.71
-12.80
-7.87
-3.23
0.91
4.34
6.95
8.77
9.93
10.69
11.25
11.75
12.20
12.58
12.91
13.27
13.71
14.17
14.45
14.30
13.59
12.38
10.93
9.62
8.68
8.21
8.09
8.08
7.91
7.35
6.29
4.78
2.95
1.02
-0.76
-2.23
-3.34
-4.18
-5.00
-6.10
-7.75
-10.12
-13.20
-16.76
-20.34
-23.33
-25.12
-25.24
-23.60
-20.43
-16.27
-11.73
-7.27
-3.13
0.68
4.17
7.33
10.02
12.11
13.52
14.28
14.56
14.56
14.42
14.20
13.92
13.61
13.31
13.14
13.16
13.44
13.97
14.67
15.36
15.82
15.91
15.57
14.87
13.91
12.78
11.53
10.25
9.07
8.12
7.41
6.78
5.94
4.57
2.60
0.23
-2.11
-4.08
-5.62
-6.97
-8.53
-10.59
-13.23
-16.30
-19.63
-23.11
-26.60
-29.85
-32.36
-33.48
-32.67
-29.83
-25.37
-20.12
-14.93
-10.39
-6.64
-3.48
-0.62
2.14
4.73
6.97
8.62
9.57
9.84
9.57
8.99
8.30
7.73
7.34
7.18
7.19
7.33
7.58
8.00
8.61
9.33
10.02
10.48
10.58
10.30
9.74
9.04
8.27
7.40
6.41
5.31
4.20
3.24
2.50
1.97
1.53
1.02
0.32
-0.60
-1.75
-3.16
-4.93
-7.23
-10.19
-13.82
-17.95
-22.15
-25.88
-28.55
-29.74
-29.30
-27.36
-24.30
-20.60
-16.68
-12.84
-9.21
-5.83
-2.70
0.26
3.09
5.80
8.35
10.58
12.28
13.25
13.50
13.26
12.88
12.72
12.93
13.38
13.80
13.94
13.74
13.33
12.90
12.52
12.11
11.47
10.47
9.18
7.82
6.64
5.74
4.95
3.99
2.63
0.85
-1.11
-2.92
-4.34
-5.31
-5.99
-6.63
-7.54
-8.91
-10.92
-13.56
-16.71
-20.03
-22.96
-24.90
-25.31
-23.97
-21.02
-16.91
-12.28
-7.69
-3.60
-0.21
2.52
4.79
6.79
8.71
10.53
12.16
13.50
14.51
15.24
15.84
16.43
16.99
17.42
17.58
17.43
17.08
16.76
16.63
16.72
16.85
16.75
16.19
15.13
13.72
12.23
10.93
9.90
9.05
8.12
6.86
5.12
2.93
0.46
-2.00
-4.24
-6.10
-7.61
-8.99
-10.55
-12.61
-15.38
-18.90
-22.94
-27.09
-30.76
-33.24
-33.94
-32.59
-29.34
-24.78
-19.68
-14.71
-10.25
-6.34
-2.86
0.31
3.17
5.64
7.66
9.32
10.78
12.22
13.61
14.76
15.39
15.39
14.86
14.16
13.66
13.61
13.97
14.55
15.03
15.13
14.72
13.83
12.60
11.27
10.03
9.03
8.28
7.67
7.01
6.15
4.99
3.54
1.88
0.13
-1.65
-3.44
-5.26
-7.11
-9.05
-11.13
-13.49
-16.24
-19.39
-22.79
-26.07
-28.75
-30.31
-30.38
-28.82
-25.74
-21.56
-16.81
-12.08
-7.85
-4.37
-1.59
0.63
2.55
4.25
5.72
6.83
7.51
7.78
7.84
7.93
8.23
8.76
9.35
9.76
9.85
9.68
9.44
9.42
9.74
10.33
10.91
11.14
10.80
9.88
8.57
7.10
5.67
4.25
2.72
1.00
-0.93
-2.96
-4.91
-6.70
-8.30
-9.83
-11.43
-13.29
-15.50
-18.08
-20.91
-23.78
-26.36
-28.26
-29.08
-28.55
-26.59
-23.43
-19.55
-15.50
-11.80
-8.73
-6.28
-4.23
-2.26
-0.16
2.06
4.18
5.92
7.06
7.59
7.72
7.80
8.11
8.79
9.80
10.97
12.17
13.32
14.40
15.40
16.19
16.59
16.46
15.74
14.54
13.08
11.52
9.94
8.28
6.42
4.28
1.96
-0.39
-2.59
-4.55
-6.37
-8.28
-10.51
-13.21
-16.38
-19.70
-22.73
-24.95
-25.91
-25.40
-23.47
-20.41
-16.65
-12.61
-8.60
-4.82
-1.34
1.87
4.85
7.68
10.36
12.87
15.11
16.98
18.35
19.20
19.56
19.53
19.19
18.62
17.82
16.88
15.89
14.95
14.13
13.43
12.74
11.93
10.95
9.81
8.64
7.54
6.58
5.68
4.70
3.48
1.99
0.33
-1.31
-2.76
-3.93
-4.92
-6.00
-7.46
-9.55
-12.34
-15.73
-19.46
-23.17
-26.44
-28.85
-30.00
-29.62
-27.70
-24.44
-20.30
-15.83
-11.49
-7.54
-4.04
-0.92
1.86
4.35
6.52
8.34
9.81
10.96
11.79
12.27
12.39
12.17
11.78
11.48
11.59
12.25
13.36
14.53
15.27
15.23
14.31
12.81
11.20
9.90
9.10
8.68
8.39
8.00
7.45
6.77
5.96
4.93
3.55
1.72
-0.46
-2.74
-4.85
-6.61
-8.07
-9.40
-10.84
-12.63
-14.93
-17.83
-21.34
-25.20
-28.90
-31.72
-32.96
-32.22
-29.60
-25.59
-20.86
-15.93
-11.01
-6.15
-1.34
3.28
7.43
10.88
13.54
15.56
17.15
18.49
19.62
20.44
20.82
20.72
20.21
19.49
18.82
18.41
18.33
18.47
18.59
18.44
17.81
16.74
15.48
14.33
13.44
12.72
11.88
10.57
8.62
6.10
3.34
0.74
-1.42
-3.00
-4.07
-4.80
-5.46
-6.34
-7.75
-9.95
-12.98
-16.63
-20.36
-23.44
-25.20
-25.17
-23.27
-19.83
-15.40
-10.57
-5.80
-1.30
2.89
6.80
10.44
13.69
16.37
18.36
19.63
20.27
20.52
20.61
20.66
20.68
20.58
20.25
19.61
18.70
17.62
16.53
15.54
14.72
14.06
13.50
12.97
12.42
11.83
11.17
10.42
9.51
8.46
7.27
6.02
4.80
3.66
2.58
1.48
0.26
-1.19
-2.86
-4.72
-6.68
-8.71
-10.88
-13.28
-16.08
-19.31
-22.86
-26.37
-29.32
-31.17
-31.47
-30.09
-27.22
-23.35
-19.10
-14.99
-11.30
-8.03
-4.93
-1.77
1.47
4.55
7.07
8.71
9.46
9.60
9.62
9.90
10.52
11.30
11.95
12.28
12.37
12.46
12.74
13.23
13.72
13.89
13.55
12.69
11.52
10.33
9.33
8.59
8.02
7.43
6.56
5.30
3.58
1.51
-0.71
-2.86
-4.76
-6.38
-7.81
-9.22
-10.79
-12.60
-14.66
-16.83
-19.07
-21.36
-23.78
-26.30
-28.79
-30.80
-31.85
-31.49
-29.55
-26.21
-21.92
-17.19
-12.38
-7.70
-3.21
0.99
4.73
7.79
9.96
11.18
11.61
11.55
11.35
11.28
11.47
11.83
12.18
12.32
12.16
11.74
11.25
10.95
10.99
11.40
11.97
12.49
12.77
12.72
12.39
11.83
11.03
9.92
8.40
6.38
3.93
1.23
-1.45
-3.81
-5.72
-7.22
-8.52
-9.90
-11.61
-13.80
-16.45
-19.39
-22.32
-24.87
-26.61
-27.18
-26.26
-23.78
-19.91
-15.08
-9.83
-4.71
-0.14
3.69
6.72
9.03
10.76
12.06
13.06
13.86
14.55
15.18
15.78
16.37
16.96
17.48
17.92
18.22
18.37
18.41
18.41
18.43
18.46
18.39
18.05
17.28
16.00
14.27
12.23
10.09
8.01
6.05
4.14
2.20
0.12
-2.06
-4.23
-6.24
-7.93
-9.31
-10.47
-11.66
-13.12
-15.06
-17.58
-20.70
-24.20
-27.77
-30.87
-32.89
-33.32
-31.93
-28.91
-24.75
-20.14
-15.66
-11.61
-8.00
-4.65
-1.33
1.98
5.12
7.85
9.97
11.43
12.40
13.07
13.59
14.03
14.33
14.52
14.72
15.17
16.00
17.25
18.69
19.96
20.78
21.04
20.77
20.06
18.94
17.40
15.45
13.22
10.93
8.86
7.13
5.64
4.17
2.53
0.63
-1.43
-3.48
-5.39
-7.10
-8.68
-10.22
-11.88
-13.78
-16.04
-18.69
-21.69
-24.80
-27.65
-29.77
-30.79
-30.47
-28.81
-26.02
-22.44
-18.43
-14.34
-10.44
-6.93
-3.93
-1.43
0.70
2.69
4.69
6.72
8.55
9.88
10.46
10.31
9.76
9.25
9.10
9.40
9.92
10.35
10.46
10.23
9.84
9.47
9.22
8.99
8.64
8.01
7.13
6.12
5.10
4.20
3.39
2.59
1.65
0.46
-0.94
-2.43
-3.81
-4.99
-5.99
-7.05
-8.51
-10.62
-13.49
-17.04
-21.03
-25.07
-28.73
-31.51
-32.92
-32.54
-30.26
-26.36
-21.50
-16.47
-11.92
-8.10
-4.89
-1.96
1.01
4.07
7.09
9.82
12.06
13.77
14.97
15.72
16.02
15.86
15.29
14.49
13.70
13.17
13.00
13.09
13.28
13.33
13.09
12.52
11.70
10.68
9.47
8.05
6.39
4.55
2.66
0.85
-0.83
-2.48
-4.26
-6.26
-8.40
-10.48
-12.25
-13.67
-14.90
-16.36
-18.41
-21.11
-24.07
-26.46
-27.46
-26.50
-23.61
-19.29
-14.30
-9.31
-4.72
-0.63
2.98
6.15
8.86
11.13
12.97
14.48
15.68
16.57
17.06
17.17
16.97
16.72
16.68
16.97
17.54
18.19
18.71
19.00
19.06
18.89
18.45
17.64
16.37
14.75
13.03
11.58
10.60
10.08
9.67
8.90
7.39
5.08
2.23
-0.68
-3.25
-5.32
-6.99
-8.54
-10.34
-12.69
-15.76
-19.55
-23.86
-28.32
-32.36
-35.32
-36.60
-35.84
-33.10
-28.80
-23.70
-18.56
-13.92
-9.97
-6.52
-3.22
0.25
3.95
7.65
10.92
13.37
14.76
15.16
14.86
14.24
13.64
13.27
13.26
13.61
14.25
15.13
16.10
17.00
17.62
17.78
17.34
16.31
14.80
13.01
11.17
9.46
7.95
6.59
5.21
3.57
1.50
-1.04
-3.99
-7.13
-10.24
-13.15
-15.75
-18.04
-20.15
-22.30
-24.79
-27.82
-31.41
-35.15
-38.29
-39.91
-39.30
-36.25
-31.17
-24.91
-18.42
-12.46
-7.41
-3.30
0.06
2.95
5.68
8.43
11.24
13.96
16.33
18.04
18.92
19.00
18.56
17.92
17.33
16.82
16.28
15.52
14.44
13.11
11.74
10.55
9.65
8.99
8.36
7.53
6.38
4.93
3.29
1.59
-0.15
-2.02
-4.10
-6.41
-8.81
-11.11
-13.26
-15.40
-17.87
-21.00
-24.85
-29.07
-32.90
-35.41
-35.77
-33.62
-29.14
-23.05
-16.31
-9.79
-4.02
0.89
5.13
8.90
12.19
14.76
16.27
16.57
15.93
14.96
14.33
14.45
15.31
16.49
17.51
18.03
17.96
17.46
16.69
15.74
14.66
13.51
12.39
11.43
10.65
9.86
8.75
7.07
4.76
2.03
-0.81
-3.50
-5.98
-8.41
-11.01
-13.95
-17.28
-20.93
-24.70
-28.34
-31.48
-33.67
-34.46
-33.48
-30.58
-25.93
-20.02
-13.52
-7.07
-1.15
4.02
8.47
12.35
15.82
18.96
21.69
23.85
25.25
25.85
25.76
25.23
24.56
23.98
23.63
23.49
23.50
23.53
23.49
23.19
22.46
21.16
19.25
16.89
14.37
11.96
9.78
7.70
5.46
2.87
-0.04
-2.99
-5.58
-7.64
-9.30
-11.00
-13.24
-16.33
-20.27
-24.73
-29.21
-33.08
-35.81
-36.93
-36.14
-33.46
-29.19
-23.98
-18.52
-13.36
-8.75
-4.60
-0.71
3.15
6.98
10.61
13.73
16.12
17.69
18.55
18.97
19.27
19.74
20.50
21.54
22.64
23.55
23.99
23.76
22.83
21.31
19.43
17.41
15.42
13.47
11.49
9.36
7.04
4.61
2.17
-0.23
-2.66
-5.20
-7.92
-10.75
-13.51
-16.14
-18.72
-21.56
-24.98
-29.06
-33.36
-37.03
-39.10
-38.81
-35.98
-30.97
-24.60
-17.71
-10.97
-4.78
0.67
5.34
9.25
12.43
14.92
16.74
17.94
18.61
18.98
19.37
20.10
21.37
23.04
24.72
25.85
26.07
25.30
23.88
22.29
20.94
19.95
19.14
18.13
16.55
14.20
11.05
7.25
3.09
-1.02
-4.70
-7.63
-9.66
-10.97
-12.01
-13.39
-15.67
-19.13
-23.62
-28.50
-32.84
-35.63
-36.12
-34.03
-29.63
-23.65
-17.05
-10.70
-5.11
-0.40
3.61
7.18
10.50
13.56
16.21
18.27
19.66
20.44
20.74
20.72
20.47
20.03
19.46
18.84
18.36
18.14
18.23
18.49
18.67
18.44
17.57
16.02
13.89
11.45
9.02
6.85
5.06
3.57
2.17
0.58
-1.43
-3.91
-6.76
-9.83
-12.99
-16.29
-19.86
-23.85
-28.19
-32.50
-36.17
-38.42
-38.68
-36.64
-32.43
-26.60
-19.94
-13.34
-7.44
-2.58
1.32
4.50
7.35
10.09
12.77
15.24
17.34
18.93
19.96
20.53
20.73
20.68
20.46
20.15
19.82
19.42
18.89
18.11
17.02
15.69
14.28
12.97
11.80
10.66
9.29
7.46
5.08
2.24
-0.80
-3.83
-6.73
-9.50
-12.26
-15.12
-18.15
-21.40
-24.90
-28.59
-32.28
-35.58
-37.94
-38.75
-37.62
-34.42
-29.39
-23.10
-16.27
-9.62
-3.71
1.15
4.86
7.55
9.43
10.70
11.56
12.17
12.72
13.36
14.26
15.51
16.99
18.46
19.55
19.98
19.63
18.63
17.34
16.12
15.19
14.48
13.68
12.41
10.43
7.78
4.75
1.72
-0.97
-3.21
-5.11
-7.02
-9.36
-12.44
-16.31
-20.67
-24.94
-28.40
-30.42
-30.59
-28.80
-25.24
-20.30
-14.55
-8.58
-2.94
1.96
5.97
9.18
11.82
14.10
16.10
17.80
19.13
20.16
21.02
21.86
22.66
23.26
23.43
23.03
22.17
21.11
20.25
19.81
19.79
19.88
19.63
18.67
16.82
14.20
11.10
7.88
4.80
1.98
-0.61
-3.09
-5.62
-8.40
-11.67
-15.62
-20.27
-25.39
-30.43
-34.58
-37.02
-37.12
-34.67
-29.96
-23.67
-16.71
-9.94
-3.99
0.89
4.72
7.75
10.25
12.46
14.46
16.24
17.73
18.81
19.46
19.69
19.63
19.41
19.17
18.94
18.64
18.17
17.49
16.65
15.74
14.82
13.86
12.68
11.07
8.93
6.32
3.47
0.65
-1.97
-4.36
-6.59
-8.75
-10.87
-13.02
-15.37
-18.21
-21.78
-26.07
-30.63
-34.57
-37.00
-37.26
-35.29
-31.61
-27.08
-22.48
-18.24
-14.39
-10.73
-7.12
-3.55
-0.18
2.80
5.29
7.29
8.89
10.16
11.15
11.93
12.56
13.17
13.90
14.85
16.03
17.29
18.43
19.21
19.47
19.15
18.33
17.19
15.94
14.71
13.46
12.00
10.03
7.37
4.09
0.45
-3.12
-6.27
-8.87
-11.04
-13.04
-15.13
-17.50
-20.17
-23.09
-26.05
-28.75
-30.75
-31.59
-30.89
-28.56
-24.75
-19.86
-14.32
-8.55
-2.86
2.50
7.27
11.16
13.97
15.61
16.21
16.06
15.56
15.06
14.74
14.70
14.87
15.13
15.30
15.29
15.05
14.67
14.30
14.10
14.07
14.01
13.54
12.32
10.14
7.19
3.86
0.70
-1.96
-4.04
-5.74
-7.33
-9.06
-11.04
-13.34
-16.02
-19.15
-22.65
-26.20
-29.17
-30.82
-30.47
-27.85
-23.21
-17.22
-10.78
-4.72
0.43
4.52
7.65
10.07
12.00
13.52
14.59
15.11
15.10
14.71
14.22
13.93
13.97
14.27
14.59
14.69
14.44
13.95
13.42
13.06
12.83
12.51
11.80
10.51
8.68
6.59
4.53
2.71
1.12
-0.40
-2.03
-3.87
-6.03
-8.57
-11.61
-15.21
-19.30
-23.47
-27.04
-29.21
-29.37
-27.31
-23.32
-18.01
-12.12
-6.27
-0.90
3.80
7.74
10.97
13.62
15.85
17.84
19.65
21.18
22.24
22.68
22.48
21.83
21.00
20.26
19.71
19.30
18.92
18.48
17.94
17.33
16.63
15.81
14.78
13.46
11.75
9.60
7.05
4.25
1.39
-1.31
-3.77
-6.11
-8.53
-11.25
-14.33
-17.73
-21.30
-24.97
-28.66
-32.14
-34.96
-36.40
-35.82
-32.95
-28.20
-22.50
-16.88
-12.08
-8.22
-4.96
-1.81
1.44
4.66
7.51
9.67
11.10
12.00
12.69
13.40
14.24
15.13
16.01
16.81
17.53
18.20
18.78
19.19
19.28
18.89
17.92
16.39
14.38
12.11
9.77
7.57
5.58
3.86
2.39
1.12
-0.03
-1.21
-2.63
-4.48
-6.83
-9.57
-12.45
-15.21
-17.68
-20.00
-22.40
-25.17
-28.38
-31.72
-34.52
-35.91
-35.20
-32.12
-27.00
-20.65
-14.08
-8.17
-3.41
0.19
2.94
5.23
7.33
9.36
11.22
12.81
14.01
14.82
15.29
15.51
15.58
15.61
15.72
15.99
16.45
16.94
17.22
17.04
16.24
14.89
13.23
11.57
10.14
8.99
7.98
6.87
5.47
3.73
1.68
-0.54
-2.84
-5.18
-7.54
-9.88
-12.17
-14.39
-16.63
-19.07
-21.87
-25.06
-28.36
-31.21
-32.92
-32.88
-30.83
-26.99
-21.90
-16.32
-10.91
-6.04
-1.78
2.00
5.43
8.55
11.21
13.26
14.62
15.38
15.81
16.16
16.57
16.94
17.14
17.00
16.60
16.12
15.83
15.90
16.31
16.82
17.09
16.77
15.70
13.92
11.66
9.27
7.05
5.12
3.44
1.84
0.17
-1.62
-3.48
-5.29
-6.99
-8.66
-10.58
-13.05
-16.27
-20.22
-24.55
-28.60
-31.58
-32.86
-32.09
-29.39
-25.23
-20.24
-14.98
-9.78
-4.80
-0.10
4.19
7.91
10.91
13.21
14.98
16.50
17.97
19.38
20.54
21.11
20.94
20.07
18.85
17.78
17.25
17.39
18.03
18.78
19.28
19.28
18.73
17.71
16.30
14.53
12.43
10.09
7.69
5.50
3.70
2.29
1.04
-0.36
-2.11
-4.21
-6.40
-8.37
-9.94
-11.22
-12.62
-14.61
-17.52
-21.28
-25.48
-29.44
-32.49
-34.17
-34.28
-32.88
-30.18
-26.43
-21.94
-17.00
-11.93
-7.05
-2.65
1.10
4.07
6.25
7.67
8.43
8.66
8.65
8.61
8.74
9.09
9.56
9.99
10.24
10.29
10.22
10.15
10.22
10.48
10.89
11.33
11.63
11.65
11.24
10.44
9.33
8.12
7.03
6.19
5.63
5.17
4.58
3.65
2.29
0.55
-1.41
-3.42
-5.36
-7.20
-9.04
-11.05
-13.43
-16.34
-19.86
-23.90
-28.17
-32.19
-35.38
-37.16
-37.15
-35.26
-31.74
-27.07
-21.83
-16.59
-11.78
-7.61
-4.08
-1.02
1.76
4.36
6.76
8.79
10.29
11.20
11.66
11.86
12.04
12.31
12.66
13.07
13.48
13.97
14.58
15.30
15.99
16.42
16.35
15.70
14.52
12.95
11.20
9.40
7.62
5.82
3.94
1.94
-0.23
-2.50
-4.78
-6.95
-8.96
-10.85
-12.73
-14.82
-17.30
-20.25
-23.54
-26.83
-29.58
-31.16
-31.13
-29.28
-25.80
-21.14
-15.90
-10.69
-5.91
-1.72
1.92
5.24
8.40
11.39
13.95
15.76
16.61
16.55
15.98
15.40
15.19
15.43
15.90
16.30
16.46
16.43
16.39
16.45
16.56
16.47
15.99
15.06
13.83
12.52
11.26
10.07
8.90
7.64
6.24
4.67
2.84
0.69
-1.78
-4.46
-7.16
-9.74
-12.23
-14.85
-17.96
-21.76
-26.13
-30.54
-34.21
-36.30
-36.28
-34.06
-30.09
-25.14
-20.06
-15.47
-11.63
-8.43
-5.55
-2.76
-0.04
2.44
4.45
5.89
6.88
7.69
8.54
9.52
10.50
11.30
11.81
12.08
12.30
12.67
13.27
13.98
14.57
14.81
14.62
14.08
13.37
12.64
11.94
11.25
10.48
9.54
8.35
6.94
5.33
3.59
1.82
0.10
-1.57
-3.34
-5.43
-8.08
-11.41
-15.29
-19.41
-23.30
-26.53
-28.65
-29.32
-28.32
-25.62
-21.50
-16.53
-11.46
-6.94
-3.33
-0.60
1.62
3.73
6.02
8.50
11.02
13.31
15.18
16.51
17.30
17.65
17.72
17.65
17.55
17.51
17.58
17.73
17.92
18.03
17.88
17.25
15.97
14.04
11.68
9.28
7.28
5.85
4.83
3.81
2.34
0.21
-2.46
-5.28
-7.83
-9.91
-11.60
-13.26
-15.33
-18.14
-21.82
-26.17
-30.70
-34.75
-37.68
-39.00
-38.56
-36.55
-33.38
-29.49
-25.19
-20.64
-15.92
-11.11
-6.40
-2.00
1.95
5.33
8.10
10.27
11.88
13.01
13.81
14.48
15.15
15.89
16.66
17.34
17.83
18.08
18.06
17.84
17.44
16.91
16.24
15.43
14.39
13.05
11.36
9.40
7.32
5.29
3.40
1.66
-0.09
-2.01
-4.18
-6.56
-8.96
-11.24
-13.38
-15.60
-18.10
-20.99
-24.00
-26.50
-27.73
-27.05
-24.27
-19.74
-14.23
-8.60
-3.58
0.50
3.64
6.02
7.90
9.45
10.76
11.87
12.78
13.49
14.04
14.46
14.81
15.15
15.53
15.99
16.50
16.93
17.20
17.16
16.80
16.10
15.16
14.05
12.79
11.40
9.90
8.34
6.78
5.30
3.95
2.70
1.45
0.13
-1.23
-2.57
-3.78
-4.92
-6.22
-8.06
-10.80
-14.51
-18.87
-23.09
-26.20
-27.35
-26.18
-22.89
-18.20
-12.94
-7.81
-3.16
0.94
4.54
7.70
10.38
12.51
14.09
15.17
15.89
16.37
16.71
16.95
17.14
17.28
17.37
17.41
17.35
17.20
16.97
16.77
16.62
16.43
16.04
15.30
14.16
12.74
11.28
9.96
8.84
7.80
6.65
5.19
3.41
1.42
-0.57
-2.37
-3.81
-4.83
-5.52
-6.08
-6.87
-8.36
-10.93
-14.70
-19.34
-24.05
-27.84
-29.82
-29.59
-27.38
-23.91
-20.04
-16.39
-13.21
-10.39
-7.66
-4.92
-2.23
0.20
2.18
3.66
4.72
5.48
6.06
6.50
6.84
7.19
7.66
8.32
9.15
9.96
10.53
10.80
10.87
10.98
11.39
12.15
13.05
13.70
13.67
12.77
11.09
8.91
6.57
4.31
2.16
0.00
-2.26
-4.61
-6.86
-8.70
-9.91
-10.41
-10.37
-10.12
-10.07
-10.48
-11.53
-13.19
-15.36
-17.79
-20.15
-22.03
-22.94
-22.52
-20.60
-17.35
-13.16
-8.59
-4.08
0.04
3.63
6.61
8.88
10.40
11.21
11.43
11.38
11.32
11.45
11.80
12.24
12.61
12.73
12.64
12.42
12.32
12.52
13.14
14.09
15.07
15.70
15.67
14.84
13.34
11.51
9.70
8.11
6.70
5.30
3.69
1.77
-0.41
-2.64
-4.65
-6.26
-7.39
-8.13
-8.71
-9.47
-10.72
-12.67
-15.19
-17.94
-20.36
-21.90
-22.21
-21.15
-18.85
-15.59
-11.68
-7.47
-3.31
0.43
3.47
5.70
7.21
8.23
9.01
9.70
10.32
10.81
11.14
11.31
11.39
11.42
11.39
11.35
11.37
11.65
12.34
13.48
14.86
16.07
16.70
16.53
15.64
14.30
12.85
11.48
10.26
9.13
7.98
6.77
5.44
3.96
2.28
0.37
-1.74
-3.93
-6.07
-8.01
-9.64
-10.96
-12.08
-13.20
-14.58
-16.44
-18.81
-21.35
-23.46
-24.40
-23.70
-21.26
-17.55
-13.26
-9.11
-5.55
-2.72
-0.48
1.39
3.09
4.74
6.37
7.90
9.15
9.96
10.28
10.17
9.87
9.64
9.70
10.12
10.84
11.71
12.61
13.44
14.07
14.41
14.33
13.79
12.82
11.58
10.21
8.81
7.43
6.10
4.87
3.80
2.94
2.16
1.31
0.20
-1.26
-2.94
-4.58
-5.93
-6.90
-7.63
-8.41
-9.57
-11.31
-13.62
-16.25
-18.85
-21.05
-22.54
-23.12
-22.70
-21.32
-19.13
-16.36
-13.23
-9.95
-6.68
-3.60
-0.90
1.22
2.64
3.38
3.58
3.53
3.48
3.65
4.08
4.69
5.29
5.68
5.80
5.69
5.52
5.42
5.50
5.70
5.87
5.82
5.43
4.67
3.62
2.41
1.22
0.14
-0.76
-1.45
-1.95
-2.37
-2.83
-3.48
-4.34
-5.33
-6.27
-6.94
-7.25
-7.26
-7.22
-7.44
-8.22
-9.65
-11.58
-13.70
-15.54
-16.76
-17.12
-16.57
-15.18
-13.11
-10.55
-7.72
-4.81
-2.04
0.45
2.52
4.14
5.31
6.11
6.67
7.13
7.56
7.99
8.38
8.66
8.83
8.95
9.09
9.30
9.50
9.55
9.28
8.63
7.67
6.62
5.69
5.03
4.67
4.49
4.32
4.07
3.69
3.26
2.86
2.52
2.19
1.72
0.88
-0.38
-2.01
-3.86
-5.76
-7.70
-9.78
-12.15
-14.81
-17.49
-19.75
-21.09
-21.22
-20.11
-18.01
-15.32
-12.37
-9.38
-6.42
-3.52
-0.66
2.13
4.84
7.40
9.68
11.52
12.74
13.24
13.08
12.50
11.79
11.31
11.27
11.76
12.69
13.82
14.83
15.39
15.39
14.90
14.17
13.52
13.08
12.78
12.41
11.80
10.94
10.02
9.27
8.70
8.10
7.13
5.55
3.44
1.12
-0.96
-2.56
-3.68
-4.50
-5.23
-6.00
-6.85
-7.83
-9.10
-10.87
-13.28
-16.26
-19.47
-22.33
-24.29
-24.95
-24.20
-22.23
-19.41
-16.22
-13.09
-10.25
-7.76
-5.51
-3.39
-1.33
0.57
2.15
3.33
4.14
4.77
5.46
6.36
7.46
8.59
9.53
10.15
10.42
10.39
10.17
9.81
9.38
8.96
8.68
8.63
8.82
9.08
9.17
8.86
8.10
7.08
6.13
5.54
5.37
5.37
5.10
4.18
2.44
0.07
-2.54
-4.96
-6.85
-8.11
-8.81
-9.22
-9.73
-10.69
-12.34
-14.62
-17.24
-19.72
-21.66
-22.79
-23.09
-22.64
-21.55
-19.76
-17.24
-14.05
-10.47
-6.95
-3.94
-1.69
-0.18
0.84
1.67
2.56
3.57
4.66
5.74
6.80
7.76
8.58
9.20
9.50
9.45
9.16
8.82
8.70
8.89
9.32
9.69
9.66
8.99
7.69
6.07
4.55
3.54
3.14
3.15
3.13
2.66
1.51
-0.23
-2.20
-4.04
-5.54
-6.72
-7.74
-8.72
-9.64
-10.44
-11.04
-11.54
-12.10
-12.79
-13.39
-13.47
-12.65
-10.81
-8.24
-5.44
-2.81
-0.46
1.83
4.31
7.03
9.75
12.01
13.45
14.01
13.93
13.59
13.28
13.09
12.92
12.66
12.25
11.80
11.47
11.40
11.64
12.13
12.73
13.23
13.44
13.31
12.84
12.21
11.64
11.28
11.07
10.76
10.03
8.62
6.53
4.04
1.52
-0.69
-2.51
-4.05
-5.51
-6.98
-8.43
-9.73
-10.82
-11.84
-13.02
-14.59
-16.57
-18.66
-20.40
-21.30
-21.07
-19.74
-17.62
-15.12
-12.65
-10.37
-8.24
-6.09
-3.73
-1.11
1.67
4.35
6.70
8.57
9.92
10.81
11.26
11.34
11.08
10.63
10.17
9.92
9.99
10.30
10.68
10.93
10.99
11.00
11.13
11.46
11.86
12.00
11.56
10.37
8.53
6.34
4.21
2.38
0.89
-0.40
-1.65
-2.94
-4.16
-5.18
-5.89
-6.40
-6.96
-7.85
-9.25
-11.08
-13.13
-15.12
-16.97
-18.68
-20.30
-21.72
-22.59
-22.54
-21.37
-19.18
-16.41
-13.53
-10.86
-8.46
-6.21
-4.00
-1.90
-0.13
1.12
1.83
2.16
2.38
2.74
3.32
4.17
5.21
6.38
7.60
8.70
9.53
9.97
10.02
9.79
9.45
9.10
8.74
8.32
7.78
7.09
6.30
5.45
4.61
3.79
3.01
2.28
1.60
0.87
0.02
-1.06
-2.40
-3.93
-5.54
-7.12
-8.62
-10.10
-11.62
-13.21
-14.90
-16.61
-18.24
-19.65
-20.67
-21.10
-20.71
-19.36
-17.00
-13.73
-9.88
-5.89
-2.23
0.80
3.10
4.82
6.14
7.21
8.00
8.39
8.29
7.78
7.10
6.61
6.57
7.03
7.81
8.60
9.14
9.35
9.33
9.25
9.24
9.25
9.14
8.75
8.06
7.19
6.40
5.86
5.59
5.42
5.12
4.60
3.95
3.40
3.10
3.01
2.87
2.37
1.32
-0.28
-2.29
-4.55
-6.99
-9.63
-12.43
-15.19
-17.46
-18.77
-18.71
-17.19
-14.46
-10.99
-7.28
-3.79
-0.77
1.74
3.79
5.47
6.89
8.10
9.07
9.80
10.25
10.46
10.54
10.64
10.89
11.33
11.94
12.58
13.21
13.78
14.32
14.83
15.22
15.30
14.91
13.99
12.67
11.19
9.83
8.71
7.84
7.06
6.23
5.18
3.91
2.45
0.93
-0.53
-1.84
-2.95
-3.89
-4.74
-5.61
-6.61
-7.82
-9.27
-10.93
-12.79
-14.79
-16.81
-18.59
-19.75
-19.95
-18.95
-16.85
-14.00
-10.88
-7.90
-5.33
-3.14
-1.16
0.83
2.91
5.05
7.05
8.63
9.55
9.76
9.42
8.85
8.41
8.29
8.41
8.47
8.17
7.38
6.28
5.30
4.82
4.99
5.60
6.24
6.50
6.16
5.37
4.45
3.73
3.31
3.01
2.47
1.42
-0.12
-1.79
-3.08
-3.62
-3.44
-2.92
-2.57
-2.74
-3.50
-4.66
-6.01
-7.45
-9.07
-11.05
-13.38
-15.82
-17.94
-19.34
-19.76
-19.23
-17.94
-16.12
-13.98
-11.61
-9.13
-6.62
-4.26
-2.21
-0.60
0.60
1.53
2.43
3.49
4.74
5.98
6.94
7.39
7.33
6.94
6.57
6.52
6.92
7.63
8.36
8.75
8.54
7.69
6.38
4.92
3.64
2.76
2.27
2.02
1.79
1.40
0.83
0.17
-0.46
-0.95
-1.31
-1.60
-1.93
-2.41
-3.14
-4.16
-5.47
-7.07
-8.89
-10.84
-12.81
-14.56
-15.81
-16.26
-15.71
-14.15
-11.79
-9.00
-6.15
-3.50
-1.14
0.97
2.91
4.75
6.49
8.10
9.51
10.67
11.52
12.05
12.27
12.23
11.98
11.60
11.23
10.96
10.90
11.12
11.56
12.04
12.32
12.21
11.61
10.58
9.26
7.83
6.40
5.08
3.90
2.88
1.99
1.19
0.44
-0.29
-0.99
-1.68
-2.51
-3.56
-4.88
-6.33
-7.63
-8.50
-8.88
-9.02
-9.39
-10.41
-12.18
-14.41
-16.56
-18.12
-18.84
-18.72
-17.90
-16.45
-14.35
-11.55
-8.23
-4.78
-1.73
0.51
1.86
2.60
3.16
3.91
4.96
6.14
7.15
7.76
7.94
7.87
7.84
8.11
8.82
9.93
11.28
12.57
13.54
14.06
14.14
13.98
13.79
13.66
13.53
13.17
12.38
11.15
9.69
8.27
7.13
6.24
5.33
4.11
2.42
0.39
-1.65
-3.32
-4.43
-5.04
-5.42
-5.84
-6.50
-7.44
-8.58
-9.90
-11.42
-13.27
-15.49
-18.02
-20.57
-22.68
-23.94
-24.05
-22.97
-20.88
-18.10
-14.98
-11.77
-8.64
-5.67
-2.95
-0.53
1.52
3.18
4.46
5.49
6.35
7.16
7.94
8.64
9.16
9.46
9.51
9.37
9.18
9.04
9.06
9.25
9.54
9.78
9.78
9.36
8.49
7.29
6.05
5.02
4.36
4.01
3.75
3.37
2.74
1.91
0.99
0.04
-1.00
-2.24
-3.72
-5.29
-6.71
-7.75
-8.35
-8.67
-9.07
-9.88
-11.30
-13.36
-15.89
-18.66
-21.35
-23.56
-24.86
-24.89
-23.49
-20.81
-17.27
-13.45
-9.86
-6.82
-4.39
-2.47
-0.90
0.45
1.64
2.68
3.55
4.26
4.84
5.34
5.89
6.62
7.59
8.75
9.85
10.62
10.83
10.45
9.72
8.98
8.53
8.46
8.62
8.78
8.76
8.55
8.27
8.02
7.78
7.40
6.74
5.68
4.28
2.64
0.84
-1.12
-3.30
-5.65
-7.99
-9.94
-11.24
-11.91
-12.30
-13.02
-14.54
-16.95
-19.82
-22.40
-23.88
-23.76
-21.97
-18.76
-14.62
-10.05
-5.49
-1.31
2.21
4.93
6.88
8.22
9.21
10.01
10.71
11.28
11.67
11.90
12.11
12.44
12.98
13.72
14.48
15.10
15.49
15.60
15.47
15.16
14.75
14.34
14.02
13.82
13.68
13.41
12.81
11.79
10.45
9.01
7.68
6.53
5.41
4.13
2.56
0.76
-1.13
-3.00
-4.89
-6.91
-9.10
-11.35
-13.36
-14.93
-16.17
-17.47
-19.33
-21.99
-25.19
-28.23
-30.24
-30.60
-29.19
-26.34
-22.62
-18.55
-14.42
-10.30
-6.23
-2.29
1.32
4.45
7.02
9.12
10.94
12.63
14.30
15.89
17.29
18.33
18.87
18.80
18.15
17.09
15.95
15.17
15.07
15.71
16.82
17.85
18.19
17.48
15.72
13.30
10.78
8.70
7.37
6.73
6.48
6.22
5.65
4.69
3.41
1.96
0.46
-1.09
-2.70
-4.41
-6.15
-7.81
-9.34
-10.73
-12.11
-13.68
-15.61
-18.06
-21.05
-24.41
-27.78
-30.53
-31.98
-31.60
-29.20
-25.10
-20.06
-14.91
-10.36
-6.69
-3.82
-1.47
0.63
2.60
4.41
5.97
7.19
8.08
8.69
9.09
9.35
9.58
9.91
10.46
11.25
12.21
13.18
13.97
14.50
14.78
14.92
14.94
14.83
14.46
13.75
12.68
11.33
9.82
8.29
6.89
5.66
4.62
3.67
2.68
1.44
-0.16
-2.14
-4.35
-6.46
-8.21
-9.47
-10.39
-11.35
-12.78
-14.90
-17.59
-20.43
-22.87
-24.46
-24.95
-24.38
-22.91
-20.72
-17.91
-14.54
-10.76
-6.77
-2.87
0.69
3.74
6.21
8.07
9.33
10.03
10.27
10.24
10.17
10.31
10.76
11.48
12.35
13.24
14.07
14.82
15.49
16.04
16.39
16.47
16.22
15.66
14.82
13.82
12.75
11.72
10.78
9.97
9.23
8.42
7.41
6.08
4.50
2.78
1.08
-0.57
-2.24
-4.08
-6.23
-8.73
-11.53
-14.59
-17.86
-21.25
-24.50
-27.21
-28.85
-28.99
-27.51
-24.69
-21.01
-16.97
-12.88
-8.80
-4.71
-0.62
3.34
6.96
10.14
12.83
15.12
17.08
18.68
19.84
20.51
20.72
20.60
20.38
20.25
20.29
20.45
20.62
20.66
20.52
20.16
19.63
18.96
18.16
17.25
16.22
15.08
13.77
12.21
10.38
8.25
5.96
3.68
1.65
0.02
-1.15
-2.03
-2.89
-3.98
-5.48
-7.41
-9.66
-12.08
-14.55
-17.05
-19.59
-22.22
-24.93
-27.59
-29.90
-31.45
-31.82
-30.73
-28.23
-24.68
-20.61
-16.56
-12.77
-9.16
-5.40
-1.25
3.22
7.58
11.17
13.53
14.62
14.80
14.69
14.78
15.22
15.82
16.23
16.22
15.76
15.05
14.38
13.93
13.74
13.70
13.73
13.76
13.74
13.60
13.24
12.56
11.52
10.24
8.88
7.60
6.49
5.42
4.22
2.68
0.75
-1.46
-3.66
-5.61
-7.19
-8.45
-9.56
-10.71
-12.01
-13.54
-15.36
-17.58
-20.29
-23.50
-27.00
-30.31
-32.77
-33.77
-32.92
-30.26
-26.20
-21.37
-16.47
-12.02
-8.24
-5.05
-2.22
0.48
3.09
5.39
7.11
8.04
8.29
8.19
8.15
8.48
9.22
10.27
11.46
12.71
14.06
15.53
17.06
18.46
19.50
19.97
19.69
18.60
16.69
14.10
11.16
8.35
6.06
4.43
3.21
1.96
0.30
-1.82
-4.07
-6.03
-7.46
-8.43
-9.26
-10.29
-11.74
-13.67
-16.07
-18.96
-22.29
-25.81
-28.93
-30.89
-30.98
-28.96
-25.08
-20.05
-14.59
-9.31
-4.48
-0.17
3.58
6.73
9.20
10.98
12.19
13.00
13.64
14.19
14.71
15.18
15.64
16.14
16.79
17.64
18.65
19.69
20.58
21.12
21.25
20.97
20.44
19.85
19.32
18.90
18.45
17.78
16.76
15.33
13.56
11.59
9.49
7.27
4.88
2.33
-0.34
-2.97
-5.43
-7.64
-9.62
-11.53
-13.61
-16.11
-19.23
-23.05
-27.32
-31.57
-35.10
-37.21
-37.37
-35.41
-31.56
-26.34
-20.42
-14.41
-8.79
-3.86
0.27
3.67
6.49
8.91
11.05
12.96
14.60
15.95
17.01
17.88
18.65
19.35
19.95
20.36
20.52
20.48
20.40
20.42
20.58
20.76
20.71
20.15
18.91
16.98
14.58
12.05
9.77
7.99
6.77
5.97
5.29
4.46
3.30
1.82
0.18
-1.47
-3.03
-4.56
-6.16
-7.95
-9.98
-12.27
-14.83
-17.73
-21.08
-24.90
-28.96
-32.77
-35.60
-36.70
-35.58
-32.19
-26.99
-20.85
-14.71
-9.37
-5.19
-2.09
0.34
2.56
4.90
7.43
9.96
12.26
14.11
15.42
16.26
16.77
17.06
17.22
17.28
17.24
17.07
16.77
16.34
15.80
15.18
14.53
13.86
13.16
12.33
11.30
10.06
8.68
7.37
6.35
5.73
5.39
5.05
4.30
2.84
0.58
-2.25
-5.26
-8.08
-10.45
-12.39
-14.07
-15.75
-17.69
-20.04
-22.86
-26.07
-29.43
-32.51
-34.72
-35.46
-34.28
-31.09
-26.20
-20.30
-14.19
-8.62
-4.02
-0.52
2.08
4.01
5.57
6.91
8.14
9.38
10.71
12.19
13.77
15.31
16.60
17.55
18.18
18.63
19.12
19.73
20.43
21.08
21.46
21.42
20.84
19.72
18.09
16.10
13.91
11.77
9.77
7.90
5.98
3.78
1.21
-1.64
-4.48
-6.96
-8.87
-10.25
-11.37
-12.60
-14.36
-16.92
-20.40
-24.61
-29.07
-33.01
-35.55
-35.97
-33.87
-29.40
-23.17
-16.08
-9.08
-2.87
2.26
6.32
9.61
12.40
14.85
16.96
18.62
19.75
20.42
20.80
21.04
21.24
21.33
21.22
20.90
20.51
20.26
20.35
20.80
21.46
22.06
22.32
22.01
20.98
19.24
16.90
14.24
11.65
9.51
8.00
7.03
6.26
5.23
3.61
1.36
-1.38
-4.27
-6.96
-9.23
-11.00
-12.37
-13.56
-14.98
-17.04
-20.08
-24.15
-28.85
-33.41
-36.86
-38.32
-37.34
-33.99
-28.81
-22.66
-16.41
-10.73
-5.95
-2.11
0.98
3.63
6.07
8.46
10.78
12.95
14.86
16.41
17.58
18.38
18.83
18.93
18.70
18.21
17.62
17.16
17.02
17.28
17.87
18.52
18.93
18.83
18.10
16.77
15.04
13.10
11.21
9.56
8.16
6.95
5.71
4.19
2.22
-0.16
-2.78
-5.35
-7.69
-9.81
-11.89
-14.15
-16.73
-19.63
-22.77
-26.09
-29.52
-32.95
-36.08
-38.38
-39.32
-38.46
-35.78
-31.58
-26.44
-20.96
-15.60
-10.62
-6.12
-2.13
1.36
4.36
6.87
8.94
10.60
11.94
12.98
13.83
14.55
15.23
15.90
16.57
17.20
17.74
18.15
18.39
18.46
18.34
18.07
17.63
17.02
16.22
15.12
13.70
11.90
9.79
7.47
5.11
2.81
0.69
-1.24
-2.97
-4.54
-6.03
-7.49
-9.01
-10.65
-12.53
-14.74
-17.39
-20.49
-23.93
-27.38
-30.32
-32.11
-32.20
-30.30
-26.58
-21.58
-16.01
-10.54
-5.56
-1.21
2.60
5.95
8.85
11.27
13.15
14.48
15.39
16.08
16.71
17.42
18.18
18.91
19.54
20.04
20.48
20.94
21.44
21.91
22.20
22.16
21.75
21.05
20.21
19.29
18.24
16.88
15.06
12.82
10.36
7.99
5.89
4.02
2.17
0.08
-2.32
-4.85
-7.16
-8.93
-10.10
-10.88
-11.71
-13.02
-15.13
-18.12
-21.89
-26.14
-30.42
-34.14
-36.60
-37.19
-35.56
-31.81
-26.45
-20.28
-14.11
-8.55
-3.91
-0.22
2.67
4.98
6.92
8.65
10.28
11.84
13.27
14.44
15.27
15.72
15.86
15.84
15.87
16.12
16.68
17.53
18.50
19.38
19.97
20.16
20.00
19.59
19.05
18.39
17.59
16.53
15.18
13.56
11.78
9.97
8.16
6.31
4.31
2.07
-0.41
-3.02
-5.58
-7.89
-9.85
-11.43
-12.80
-14.19
-15.89
-18.11
-20.97
-24.43
-28.30
-32.16
-35.41
-37.46
-37.77
-36.15
-32.75
-28.04
-22.62
-17.08
-11.80
-7.05
-2.96
0.45
3.23
5.57
7.73
9.89
12.02
13.93
15.33
15.98
15.93
15.47
14.94
14.66
14.71
14.98
15.28
15.48
15.51
15.43
15.31
15.17
14.93
14.48
13.65
12.39
10.81
9.12
7.60
6.43
5.58
4.84
3.86
2.36
0.25
-2.37
-5.18
-7.89
-10.30
-12.39
-14.31
-16.27
-18.39
-20.69
-23.05
-25.35
-27.53
-29.58
-31.42
-32.74
-33.01
-31.62
-28.22
-22.99
-16.64
-10.23
-4.72
-0.61
2.16
4.11
5.76
7.41
9.01
10.29
11.08
11.43
11.66
12.10
12.91
13.96
14.92
15.49
15.61
15.45
15.33
15.47
15.86
16.29
16.42
16.04
15.17
13.97
12.70
11.53
10.46
9.36
8.05
6.36
4.20
1.71
-0.88
-3.17
-4.94
-6.14
-7.05
-8.13
-9.80
-12.27
-15.49
-19.18
-23.01
-26.62
-29.67
-31.75
-32.39
-31.16
-27.85
-22.71
-16.37
-9.69
-3.40
2.08
6.74
10.75
14.23
17.16
19.34
20.62
21.07
21.00
20.84
20.94
21.40
22.07
22.67
22.97
22.89
22.44
21.71
20.76
19.71
18.66
17.72
16.92
16.26
15.64
14.93
14.03
12.91
11.57
10.04
8.37
6.63
4.91
3.26
1.66
0.01
-1.80
-3.81
-5.94
-8.03
-9.94
-11.67
-13.37
-15.21
-17.37
-19.94
-22.93
-26.28
-29.85
-33.31
-36.19
-37.86
-37.82
-35.80
-31.94
-26.76
-20.99
-15.37
-10.44
-6.44
-3.33
-0.86
1.26
3.27
5.27
7.27
9.22
11.08
12.78
14.25
15.37
16.06
16.29
16.23
16.13
16.28
16.83
17.75
18.81
19.69
20.12
19.93
19.12
17.77
16.10
14.27
12.47
10.77
9.20
7.69
6.17
4.56
2.80
0.92
-1.06
-3.03
-4.88
-6.50
-7.83
-8.94
-10.02
-11.27
-12.86
-14.89
-17.38
-20.32
-23.76
-27.63
-31.66
-35.33
-37.91
-38.66
-37.13
-33.40
-28.06
-22.02
-16.18
-11.19
-7.25
-4.25
-1.82
0.33
2.40
4.38
6.18
7.72
8.97
10.04
11.00
11.91
12.71
13.38
13.96
14.58
15.42
16.52
17.76
18.82
19.33
19.05
18.01
16.46
14.73
13.07
11.56
10.11
8.60
7.04
5.51
4.14
2.97
1.90
0.71
-0.77
-2.57
-4.53
-6.41
-7.96
-9.17
-10.24
-11.51
-13.31
-15.83
-19.06
-22.80
-26.63
-30.02
-32.37
-33.15
-31.99
-28.90
-24.17
-18.39
-12.27
-6.45
-1.34
2.85
6.17
8.81
11.00
12.94
14.71
16.27
17.50
18.33
18.77
18.98
19.15
19.39
19.74
20.09
20.28
20.20
19.84
19.28
18.61
17.90
17.20
16.48
15.73
14.91
13.97
12.86
11.54
10.05
8.46
6.90
5.46
4.16
2.91
1.54
-0.14
-2.23
-4.74
-7.50
-10.27
-12.77
-14.89
-16.69
-18.44
-20.56
-23.40
-27.07
-31.33
-35.60
-39.05
-40.91
-40.55
-37.83
-33.03
-26.82
-20.03
-13.44
-7.55
-2.61
1.34
4.41
6.68
8.32
9.51
10.56
11.71
13.14
14.81
16.52
18.03
19.06
19.42
19.17
18.50
17.70
17.09
16.87
17.08
17.55
17.97
18.08
17.76
17.01
15.99
14.84
13.64
12.40
11.15
9.97
9.00
8.31
7.85
7.37
6.59
5.24
3.24
0.67
-2.20
-5.05
-7.58
-9.59
-11.06
-12.12
-13.08
-14.34
-16.27
-19.11
-22.86
-27.25
-31.78
-35.84
-38.75
-39.98
-39.23
-36.56
-32.35
-27.22
-21.85
-16.75
-12.22
-8.24
-4.61
-1.16
2.15
5.20
7.75
9.62
10.83
11.60
12.27
13.11
14.20
15.44
16.67
17.77
18.71
19.54
20.26
20.76
20.89
20.58
19.86
18.91
17.91
16.94
15.94
14.80
13.48
12.05
10.65
9.37
8.20
7.04
5.79
4.35
2.68
0.75
-1.51
-4.09
-6.94
-9.85
-12.55
-14.82
-16.68
-18.42
-20.44
-23.07
-26.39
-30.15
-33.84
-36.87
-38.65
-38.77
-37.02
-33.54
-28.70
-23.13
-17.45
-12.16
-7.54
-3.63
-0.36
2.34
4.56
6.36
7.88
9.29
10.71
12.14
13.40
14.27
14.60
14.44
14.08
13.86
14.06
14.74
15.75
16.76
17.44
17.53
16.90
15.58
13.74
11.64
9.59
7.89
6.74
6.15
5.97
5.91
5.60
4.81
3.43
1.58
-0.50
-2.58
-4.53
-6.38
-8.28
-10.42
-13.02
-16.15
-19.79
-23.71
-27.54
-30.71
-32.63
-32.81
-31.00
-27.25
-21.98
-15.80
-9.41
-3.47
1.63
5.70
8.84
11.28
13.34
15.18
16.85
18.23
19.18
19.62
19.64
19.45
19.30
19.39
19.78
20.44
21.19
21.84
22.26
22.42
22.34
22.10
21.72
21.19
20.45
19.41
18.03
16.34
14.43
12.43
10.51
8.77
7.25
5.86
4.43
2.78
0.78
-1.56
-4.14
-6.72
-9.10
-11.20
-13.07
-14.90
-16.89
-19.25
-22.08
-25.41
-29.08
-32.81
-36.10
-38.31
-38.86
-37.36
-33.79
-28.55
-22.31
-15.86
-9.83
-4.62
-0.38
2.95
5.53
7.55
9.21
10.64
11.89
12.94
13.71
14.15
14.28
14.20
14.06
14.01
14.18
14.65
15.39
16.28
17.07
17.53
17.51
17.04
16.25
15.36
14.41
13.34
12.03
10.42
8.66
6.98
5.63
4.67
3.99
3.32
2.38
1.01
-0.85
-3.14
-5.74
-8.45
-11.07
-13.39
-15.27
-16.73
-17.98
-19.34
-21.19
-23.74
-26.99
-30.60
-34.01
-36.50
-37.41
-36.27
-33.02
-27.98
-21.80
-15.29
-9.16
-3.83
0.59
4.25
7.29
9.81
11.72
12.96
13.57
13.85
14.16
14.74
15.55
16.32
16.76
16.75
16.44
16.11
15.97
16.01
16.06
15.91
15.51
14.90
14.19
13.45
12.57
11.47
10.08
8.48
6.79
5.14
3.56
1.97
0.25
-1.65
-3.74
-5.89
-8.00
-9.95
-11.72
-13.33
-14.88
-16.56
-18.54
-20.93
-23.70
-26.63
-29.29
-31.18
-31.74
-30.66
-27.88
-23.71
-18.63
-13.22
-7.98
-3.24
0.80
4.11
6.73
8.85
10.65
12.32
13.93
15.42
16.70
17.66
18.29
18.68
18.94
19.12
19.14
18.96
18.56
18.04
17.57
17.27
17.07
16.79
16.20
15.13
13.62
11.86
10.06
8.35
6.81
5.39
4.07
2.91
1.94
1.12
0.27
-0.91
-2.68
-5.09
-7.95
-10.90
-13.58
-15.89
-18.01
-20.31
-23.17
-26.62
-30.37
-33.72
-35.87
-36.15
-34.29
-30.50
-25.36
-19.60
-13.82
-8.43
-3.58
0.70
4.33
7.27
9.52
11.22
12.58
13.87
15.22
16.55
17.66
18.35
18.60
18.59
18.62
18.87
19.31
19.69
19.76
19.42
18.72
17.84
16.96
16.09
15.19
14.21
13.14
12.08
11.06
10.10
9.09
7.94
6.71
5.55
4.63
3.97
3.44
2.72
1.56
-0.17
-2.36
-4.85
-7.42
-9.98
-12.55
-15.20
-18.01
-21.11
-24.46
-27.93
-31.13
-33.50
-34.48
-33.66
-31.01
-26.93
-22.07
-17.12
-12.60
-8.71
-5.42
-2.58
-0.11
1.96
3.55
4.62
5.26
5.66
6.08
6.70
7.58
8.63
9.67
10.53
11.08
11.34
11.43
11.55
11.87
12.43
13.12
13.72
14.02
13.88
13.32
12.42
11.25
9.80
8.02
5.94
3.65
1.36
-0.77
-2.72
-4.53
-6.31
-8.02
-9.58
-10.85
-11.83
-12.64
-13.49
-14.61
-16.10
-18.03
-20.35
-22.93
-25.46
-27.50
-28.49
-27.95
-25.77
-22.19
-17.76
-13.07
-8.59
-4.54
-1.00
1.94
4.24
5.83
6.83
7.50
8.16
9.04
10.18
11.45
12.64
13.60
14.31
14.82
15.19
15.44
15.52
15.42
15.18
14.81
14.36
13.82
13.18
12.45
11.62
10.69
9.59
8.29
6.78
5.09
3.31
1.53
-0.23
-1.97
-3.70
-5.41
-7.05
-8.67
-10.43
-12.60
-15.46
-19.05
-23.09
-26.89
-29.58
-30.41
-28.99
-25.48
-20.46
-14.74
-9.08
-4.01
0.25
3.70
6.50
8.77
10.55
11.88
12.74
13.17
13.28
13.24
13.17
13.20
13.38
13.69
14.11
14.56
15.01
15.47
15.95
16.48
17.06
17.55
17.75
17.44
16.52
15.04
13.23
11.35
9.65
8.17
6.79
5.27
3.35
0.88
-2.05
-5.23
-8.36
-11.21
-13.69
-15.96
-18.31
-21.05
-24.28
-27.76
-30.90
-32.93
-33.26
-31.68
-28.50
-24.37
-20.01
-15.93
-12.31
-9.03
-5.82
-2.51
0.91
4.23
7.21
9.62
11.34
12.37
12.76
12.61
12.07
11.33
10.64
10.29
10.55
11.49
13.02
14.83
16.52
17.68
18.06
17.59
16.38
14.70
12.84
11.07
9.51
8.19
7.01
5.78
4.34
2.58
0.48
-1.86
-4.27
-6.59
-8.68
-10.44
-11.90
-13.20
-14.62
-16.54
-19.25
-22.75
-26.70
-30.39
-32.96
-33.69
-32.30
-29.03
-24.47
-19.37
-14.30
-9.53
-5.03
-0.64
3.82
8.37
12.86
16.96
20.23
22.33
23.09
22.66
21.42
19.90
18.52
17.52
16.91
16.54
16.23
15.83
15.22
14.34
13.14
11.64
9.94
8.24
6.78
5.70
5.05
4.70
4.40
3.91
3.06
1.81
0.29
-1.27
-2.62
-3.62
-4.30
-4.96
-6.02
-7.92
-10.88
-14.71
-18.83
-22.34
-24.37
-24.38
-22.40
-18.97
-14.97
-11.13
-7.88
-5.16
-2.68
-0.18
2.38
4.78
6.73
8.08
8.86
9.33
9.73
10.24
10.83
11.40
11.85
12.19
12.51
12.93
13.50
14.14
14.62
14.71
14.17
12.94
11.14
9.04
6.91
4.95
3.23
1.71
0.31
-1.00
-2.20
-3.29
-4.35
-5.53
-7.07
-9.13
-11.74
-14.76
-17.90
-20.80
-23.08
-24.33
-24.22
-22.60
-19.63
-15.69
-11.36
-7.18
-3.44
-0.20
2.70
5.42
8.00
10.27
12.00
13.06
13.47
13.48
13.42
13.56
14.08
14.98
16.18
17.46
18.62
19.45
19.85
19.83
19.45
18.77
17.84
16.67
15.30
13.85
12.46
11.28
10.27
9.21
7.79
5.81
3.28
0.43
-2.35
-4.80
-6.85
-8.67
-10.55
-12.73
-15.40
-18.51
-21.86
-25.02
-27.47
-28.62
-28.09
-25.85
-22.25
-17.91
-13.46
-9.35
-5.70
-2.43
0.60
3.49
6.18
8.54
10.50
12.03
13.24
14.23
15.11
15.89
16.55
17.01
17.16
16.97
16.49
15.88
15.34
15.06
15.04
15.09
14.91
14.19
12.82
10.89
8.70
6.64
4.99
3.91
3.33
3.06
2.83
2.36
1.45
0.01
-1.87
-3.94
-5.85
-7.31
-8.21
-8.73
-9.25
-10.20
-11.94
-14.59
-18.06
-22.01
-25.95
-29.26
-31.30
-31.60
-29.96
-26.61
-22.09
-17.09
-12.27
-8.01
-4.43
-1.41
1.21
3.50
5.42
6.84
7.70
8.11
8.34
8.69
9.34
10.24
11.11
11.61
11.63
11.33
11.12
11.42
12.33
13.51
14.35
14.26
13.00
10.81
8.27
6.03
4.44
3.50
2.88
2.14
0.95
-0.75
-2.79
-4.87
-6.67
-8.08
-9.09
-9.91
-10.80
-12.05
-13.91
-16.53
-19.88
-23.57
-26.99
-29.31
-29.76
-27.95
-24.05
-18.65
-12.65
-6.88
-1.90
2.09
5.14
7.48
9.28
10.65
11.60
12.14
12.29
12.14
11.86
11.65
11.67
12.02
12.70
13.61
14.63
15.66
16.59
17.33
17.78
17.88
17.59
16.91
15.94
14.78
13.61
12.60
11.82
11.32
10.93
10.46
9.63
8.25
6.27
3.84
1.28
-1.07
-2.99
-4.48
-5.71
-6.93
-8.33
-10.00
-11.97
-14.32
-17.11
-20.36
-23.91
-27.32
-29.97
-31.28
-30.88
-28.78
-25.26
-20.83
-16.01
-11.29
-6.97
-3.22
-0.06
2.63
5.03
7.23
9.23
10.95
12.29
13.23
13.84
14.29
14.73
15.24
15.81
16.38
16.86
17.12
17.16
16.99
16.71
16.44
16.25
16.13
16.00
15.73
15.17
14.25
12.96
11.37
9.61
7.85
6.25
4.91
3.80
2.74
1.54
-0.01
-1.89
-3.91
-5.77
-7.22
-8.20
-8.89
-9.64
-10.82
-12.72
-15.39
-18.67
-22.18
-25.38
-27.67
-28.60
-27.94
-25.82
-22.64
-18.92
-15.08
-11.43
-8.14
-5.31
-3.02
-1.30
-0.06
0.95
2.09
3.63
5.63
7.83
9.80
11.13
11.68
11.58
11.17
10.84
10.84
11.18
11.73
12.27
12.63
12.73
12.59
12.26
11.81
11.20
10.42
9.41
8.18
6.72
5.05
3.23
1.35
-0.48
-2.17
-3.62
-4.86
-5.99
-7.16
-8.51
-10.06
-11.77
-13.53
-15.29
-17.04
-18.87
-20.88
-23.17
-25.76
-28.55
-31.27
-33.47
-34.59
-34.15
-31.91
-28.12
-23.39
-18.49
-14.03
-10.31
-7.18
-4.37
-1.65
0.97
3.32
5.17
6.47
7.38
8.18
9.06
10.09
11.12
12.01
12.58
12.80
12.70
12.36
11.86
11.27
10.69
10.20
9.84
9.58
9.34
8.97
8.39
7.64
6.84
6.17
5.68
5.30
4.76
3.76
2.15
-0.06
-2.59
-5.02
-7.04
-8.66
-10.17
-12.06
-14.71
-18.09
-21.71
-24.72
-26.35
-26.16
-24.21
-20.95
-16.89
-12.45
-7.77
-2.91
1.97
6.53
10.32
13.02
14.63
15.46
15.94
16.41
17.00
17.56
17.93
17.93
17.63
17.16
16.74
16.52
16.52
16.67
16.87
16.98
16.86
16.44
15.66
14.54
13.18
11.71
10.26
8.97
7.89
6.95
5.95
4.63
2.71
0.14
-2.91
-6.08
-8.88
-10.88
-11.93
-12.19
-12.11
-12.30
-13.32
-15.48
-18.78
-22.82
-26.87
-30.03
-31.56
-31.05
-28.59
-24.72
-20.20
-15.82
-12.02
-8.87
-6.15
-3.55
-0.88
1.86
4.48
6.78
8.61
10.00
11.06
11.88
12.57
13.13
13.57
13.90
14.17
14.44
14.80
15.30
15.87
16.42
16.73
16.59
15.82
14.42
12.51
10.27
7.95
5.75
3.83
2.25
1.01
-0.00
-0.97
-2.15
-3.74
-5.79
-8.17
-10.62
-12.86
-14.69
-16.08
-17.18
-18.32
-19.90
-22.25
-25.50
-29.34
-33.08
-35.78
-36.52
-34.91
-31.16
-26.10
-20.74
-15.94
-12.08
-9.09
-6.66
-4.41
-2.11
0.34
2.88
5.38
7.66
9.55
10.93
11.79
12.28
12.58
12.94
13.47
14.21
15.11
16.04
16.88
17.46
17.62
17.20
16.12
14.43
12.38
10.33
8.53
7.12
6.01
5.00
3.84
2.36
0.55
-1.55
-3.79
-5.99
-7.99
-9.68
-11.04
-12.24
-13.60
-15.56
-18.43
-22.25
-26.59
-30.67
-33.57
-34.54
-33.25
-29.92
-25.12
-19.58
-13.94
-8.67
-4.09
-0.34
2.52
4.53
5.82
6.61
7.22
7.88
8.76
9.93
11.35
12.90
14.44
15.79
16.81
17.46
17.78
17.85
17.74
17.39
16.64
15.38
13.71
11.95
10.57
9.87
9.89
10.32
10.66
10.48
9.62
8.23
6.61
4.99
3.51
2.08
0.56
-1.13
-3.04
-5.19
-7.55
-10.06
-12.58
-14.86
-16.55
-17.31
-16.95
-15.41
-12.87
-9.62
-6.02
-2.44
0.87
3.85
6.52
9.01
11.47
13.89
16.14
17.98
19.11
19.39
18.84
17.75
16.46
15.27
14.39
13.85
13.55
13.34
13.06
12.58
11.75
10.47
8.68
6.40
3.75
0.93
-1.80
-4.24
-6.27
-7.89
-9.24
-10.51
-11.91
-13.54
-15.36
-17.24
-18.99
-20.51
-21.85
-23.23
-24.93
-27.25
-30.39
-34.32
-38.78
-43.24
-46.99
-49.31
-49.69
-47.99
-44.44
-39.59
-34.10
-28.56
-23.44
-19.00
-15.32
-12.30
-9.70
-7.21
-4.56
-1.71
1.14
3.66
5.55
6.69
7.19
7.38
7.54
7.82
8.29
8.85
9.44
10.04
10.64
11.18
11.59
11.75
11.56
11.05
10.29
9.46
8.67
7.96
7.29
6.50
5.46
4.02
2.19
-0.02
-2.54
-5.30
-8.26
-11.45
-14.88
-18.48
-22.08
-25.31
-27.77
-29.02
-28.76
-26.88
-23.48
-18.80
-13.23
-7.23
-1.28
4.15
8.72
12.32
15.07
17.24
19.05
20.61
21.86
22.72
23.19
23.38
23.51
23.71
23.99
24.14
23.95
23.26
22.11
20.65
19.10
17.65
16.36
15.27
14.33
13.49
12.66
11.75
10.70
9.49
8.16
6.75
5.26
3.62
1.67
-0.66
-3.34
-6.19
-8.81
-10.75
-11.56
-10.90
-8.62
-4.86
-0.00
5.39
10.69
15.41
19.30
22.32
24.67
26.47
27.78
28.52
28.61
28.06
27.04
25.79
24.56
23.50
22.60
21.81
21.05
20.31
19.59
18.88
18.12
17.21
16.08
14.75
13.25
11.63
9.89
7.97
5.82
3.46
0.98
-1.43
-3.60
-5.48
-7.17
-8.94
-11.04
-13.69
-16.80
-20.05
-22.93
-24.90
-25.61
-24.90
-22.81
-19.50
-15.23
-10.22
-4.79
0.66
5.73
10.09
13.57
16.25
18.34
20.06
21.59
22.88
23.82
24.34
24.39
24.03
23.38
22.53
21.57
20.56
19.58
18.75
18.19
17.95
17.95
17.95
17.66
16.79
15.23
13.05
10.47
7.78
5.18
2.78
0.54
-1.62
-3.79
-5.98
-8.15
-10.27
-12.39
-14.70
-17.39
-20.53
-23.90
-26.95
-28.95
-29.29
-27.70
-24.37
-19.81
-14.66
-9.40
-4.32
0.41
4.70
8.43
11.49
13.90
15.78
17.31
18.61
19.73
20.57
21.05
21.14
20.89
20.35
19.61
18.73
17.77
16.86
16.14
15.75
15.61
15.56
15.28
14.54
13.29
11.72
10.13
8.87
8.09
7.71
7.45
6.94
5.88
4.14
1.86
-0.66
-3.10
-5.28
-7.22
-9.16
-11.46
-14.44
-18.22
-22.62
-27.19
-31.36
-34.58
-36.53
-37.10
-36.41
-34.60
-31.83
-28.24
-24.00
-19.41
-14.87
-10.77
-7.46
-5.07
-3.54
-2.66
-2.17
-1.83
-1.42
-0.80
0.14
1.44
3.00
4.63
6.09
7.18
7.78
7.93
7.73
7.33
6.80
6.11
5.23
4.10
2.81
1.53
0.40
-0.47
-1.12
-1.76
-2.63
-3.91
-5.66
-7.73
-9.82
-11.61
-12.86
-13.54
-13.87
-14.25
-15.16
-16.89
-19.46
-22.57
-25.68
-28.18
-29.53
-29.45
-27.86
-24.93
-20.96
-16.34
-11.45
-6.69
-2.32
1.45
4.58
7.13
9.18
10.83
12.12
13.06
13.63
