1520870261.00
64.000000
-0.00
-0.00
-0.00
-0.00
-0.00
-0.00
-0.00
-0.00
-0.00
-0.00
0.00
0.01
0.01
-0.00
-0.03
-0.05
-0.05
0.00
0.13
0.36
0.66
1.01
1.37
1.72
2.06
2.40
2.79
3.24
3.80
4.42
5.06
5.66
6.20
6.68
7.15
7.68
8.31
9.14
10.09
11.04
11.88
12.56
13.14
13.76
14.65
15.96
17.91
20.32
22.90
25.38
27.58
29.57
31.68
34.32
37.81
42.54
48.15
54.10
59.83
64.97
69.58
74.14
79.34
85.71
93.76
103.00
112.62
121.73
129.77
136.75
143.30
150.75
157.77
166.64
177.95
191.79
206.97
220.57
228.25
225.36
208.53
176.87
132.76
80.05
23.07
-34.94
-92.44
-149.16
-205.23
-260.37
-313.74
-363.87
-409.83
-450.91
-486.50
-515.74
-537.23
-549.22
-549.96
-538.37
-514.21
-478.67
-433.88
-382.45
-327.02
-269.84
-212.63
-156.66
-102.95
-52.37
-5.90
35.58
71.43
101.35
125.50
144.38
158.69
169.15
176.37
180.75
182.57
182.07
179.51
175.23
169.65
163.18
156.15
148.81
141.30
133.69
126.02
118.33
110.69
103.16
95.80
88.68
81.83
75.25
68.95
62.95
57.25
51.86
46.78
42.03
37.59
33.45
29.61
26.07
22.81
19.83
17.11
14.67
12.48
10.54
8.83
7.35
6.07
4.97
4.05
3.27
2.62
2.09
1.65
1.30
1.01
0.79
0.61
0.48
0.37
0.29
0.23
0.19
0.16
0.14
0.13
0.13
0.13
0.14
0.16
0.19
0.22
0.25
0.29
0.33
0.37
0.42
0.46
0.51
0.57
0.62
0.67
0.73
0.80
0.87
0.95
1.03
1.12
1.22
1.34
1.46
1.60
1.76
1.94
2.16
2.39
2.64
2.89
3.12
3.34
3.56
3.83
4.16
4.57
5.06
5.60
6.16
6.72
7.27
7.84
8.46
9.16
9.97
10.88
11.82
12.75
13.61
14.41
15.17
15.98
16.88
17.89
18.92
19.79
20.30
20.24
19.55
18.24
16.50
14.48
12.24
9.70
6.61
2.72
-2.09
-7.68
-13.62
-19.32
-24.17
-27.84
-30.40
-32.26
-33.96
-35.97
-38.37
-40.85
-42.84
-43.86
-43.70
-42.62
-41.20
-40.10
-39.90
-41.02
-43.65
-47.63
-52.23
-55.84
-56.29
-51.47
-40.38
-23.93
-4.82
13.29
27.23
35.47
38.42
37.76
35.35
32.37
29.14
25.57
21.82
18.47
16.28
15.66
16.27
17.27
17.61
16.55
14.02
10.60
7.17
4.53
3.11
2.74
2.88
2.88
2.13
0.39
-2.17
-5.11
-7.88
-10.09
-11.73
-13.14
-14.67
-16.70
-19.24
-21.90
-23.95
-24.48
-22.85
-18.88
-12.95
-5.82
1.62
8.65
14.89
20.23
24.76
28.57
31.65
33.93
35.29
35.67
35.16
33.96
32.37
30.70
29.22
28.09
27.41
27.20
27.42
27.95
28.67
29.40
30.05
30.55
30.89
31.03
30.86
30.28
29.29
28.01
26.69
25.47
24.31
22.95
21.12
18.66
15.71
12.64
9.81
7.40
5.30
3.19
0.80
-1.95
-4.96
-8.02
-11.01
-13.94
-16.92
-20.00
-23.22
-26.59
-30.20
-34.16
-38.44
-42.69
-46.16
-47.90
-47.21
-43.98
-38.81
-32.72
-26.72
-21.35
-16.63
-12.19
-7.71
-3.16
1.18
4.82
7.42
8.87
9.43
9.54
9.68
10.25
11.37
12.92
14.58
16.01
17.03
17.70
18.23
18.81
19.42
19.87
19.96
19.64
19.07
18.54
18.22
18.00
17.58
16.63
15.04
13.02
10.90
9.00
7.39
5.86
4.08
1.79
-0.98
-4.00
-6.88
-9.31
-11.18
-12.66
-14.10
-15.89
-18.32
-21.46
-25.18
-29.13
-32.81
-35.72
-37.37
-37.38
-35.57
-31.98
-26.88
-20.75
-14.18
-7.77
-2.07
2.53
5.88
8.06
9.33
10.08
10.59
10.99
11.20
11.07
10.53
9.74
8.95
8.47
8.41
8.65
8.92
8.94
8.61
8.01
7.38
6.90
6.63
6.43
6.08
5.37
4.21
2.66
0.89
-0.88
-2.50
-3.92
-5.18
-6.37
-7.59
-8.92
-10.35
-11.90
-13.47
-15.01
-16.52
-18.08
-19.91
-22.25
-25.35
-29.22
-33.53
-37.61
-40.61
-41.79
-40.81
-37.81
-33.30
-27.87
-21.99
-16.00
-10.18
-4.86
-0.38
2.98
5.16
6.40
7.12
7.71
8.37
9.05
9.60
9.92
10.08
10.22
10.52
11.05
11.78
12.63
13.54
14.42
15.14
15.56
15.53
14.97
13.92
12.55
11.11
9.81
8.71
7.69
6.51
4.85
2.53
-0.47
-3.95
-7.62
-11.18
-14.41
-17.27
-19.87
-22.51
-25.53
-29.25
-33.77
-38.79
-43.68
-47.50
-49.35
-48.64
-45.32
-39.84
-32.94
-25.46
-18.07
-11.19
-5.09
0.12
4.35
7.62
9.95
11.43
12.24
12.54
12.44
12.04
11.40
10.62
9.83
9.18
8.79
8.73
8.93
9.27
9.56
9.68
9.47
8.86
7.70
5.95
3.68
1.07
-1.57
-4.02
-6.23
-8.33
-10.52
-12.90
-15.38
-17.63
-19.25
-20.00
-19.89
-19.26
-18.58
-18.37
-19.00
-20.64
-23.23
-26.58
-30.31
-33.94
-36.91
-38.59
-38.44
-36.16
-31.83
-25.87
-19.03
-12.01
-5.35
0.71
6.17
11.03
15.28
18.79
21.45
23.22
24.18
24.50
24.36
23.93
23.36
22.84
22.55
22.65
23.14
23.90
24.71
25.32
25.64
25.68
25.51
25.18
24.69
23.90
22.67
20.85
18.38
15.36
12.00
8.59
5.37
2.50
-0.07
-2.54
-5.11
-7.92
-10.85
-13.59
-15.76
-17.09
-17.56
-17.44
-17.24
-17.41
-18.30
-20.00
-22.47
-25.54
-28.94
-32.27
-34.88
-36.02
-35.00
-31.51
-25.79
-18.58
-10.89
-3.58
2.79
8.14
12.57
16.26
19.30
21.74
23.60
24.98
26.00
26.73
27.11
27.01
26.32
25.08
23.55
22.06
21.00
20.59
20.79
21.37
22.03
22.49
22.58
22.18
21.22
19.64
17.46
14.86
12.18
9.78
7.91
6.54
5.34
3.90
1.92
-0.62
-3.48
-6.26
-8.70
-10.74
-12.58
-14.46
-16.56
-18.84
-21.13
-23.23
-25.05
-26.66
-28.15
-29.47
-30.32
-30.21
-28.73
-25.68
-21.22
-15.78
-9.86
-3.87
1.92
7.29
12.03
15.89
18.69
20.44
21.32
21.63
21.61
21.37
20.95
20.36
19.70
19.10
18.65
18.39
18.34
18.52
19.03
19.92
21.13
22.40
23.33
23.56
22.97
21.70
20.12
18.65
17.53
16.77
16.16
15.40
14.29
12.82
11.13
9.44
7.86
6.30
4.52
2.27
-0.58
-3.92
-7.46
-10.90
-14.11
-17.14
-20.26
-23.74
-27.76
-32.21
-36.73
-40.72
-43.46
-44.34
-43.00
-39.46
-34.17
-27.76
-20.91
-14.13
-7.78
-2.17
2.43
5.80
7.90
9.07
9.91
11.13
13.21
16.13
19.44
22.44
24.62
25.85
26.43
26.84
27.41
28.25
29.23
30.18
31.05
31.94
32.91
33.88
34.56
34.55
33.58
31.69
29.26
26.84
24.92
23.73
23.16
22.86
22.36
21.30
19.51
17.08
14.37
11.78
9.64
8.04
6.81
5.66
4.30
2.60
0.60
-1.52
-3.64
-5.80
-8.10
-10.61
-13.21
-15.56
-17.11
-17.34
-15.92
-12.82
-8.28
-2.74
3.36
9.62
15.77
21.65
27.10
31.99
36.18
39.57
42.14
44.01
45.35
46.42
47.44
48.51
49.61
50.59
51.18
51.16
50.42
48.99
47.03
44.71
42.09
39.09
35.49
31.01
25.46
18.80
11.22
3.11
-5.04
-12.70
-19.50
-25.27
-30.19
-34.67
-39.32
-44.71
-51.06
-58.14
-65.20
-71.24
-75.34
-77.03
-76.47
-74.43
-71.96
-70.07
-69.44
-70.25
-72.22
-74.62
-76.43
-76.49
-73.80
-67.80
-58.71
-47.49
-35.62
-24.64
-15.71
-9.31
-5.35
-3.30
-2.48
-2.16
-1.66
-0.38
2.13
6.00
10.90
16.13
20.78
24.09
25.69
25.76
24.94
23.97
23.54
24.03
25.50
27.75
30.37
32.90
34.82
35.78
35.60
34.34
32.24
29.60
26.69
23.65
20.54
17.39
14.24
11.17
8.23
5.40
2.59
-0.32
-3.41
-6.68
-10.10
-13.60
-17.11
-20.59
-24.02
-27.36
-30.49
-33.16
-35.02
-35.66
-34.70
-31.95
-27.47
-21.53
-14.62
-7.24
0.11
7.11
13.54
19.33
24.45
28.95
32.89
36.30
39.24
41.79
44.08
46.37
48.92
51.92
55.35
58.92
62.15
64.59
65.98
66.37
66.02
65.26
64.26
62.95
61.11
58.54
55.19
51.23
46.97
42.69
38.59
34.74
31.10
27.56
24.04
20.46
16.77
12.97
9.04
5.00
0.89
-3.23
-7.23
-10.92
-14.12
-16.85
-19.30
-21.86
-24.93
-28.71
-32.95
-37.02
-40.09
-41.41
-40.65
-37.94
-33.76
-28.80
-23.66
-18.82
-14.47
-10.70
-7.47
-4.72
-2.47
-0.70
0.53
1.19
1.28
0.87
0.04
-1.04
-2.22
-3.34
-4.27
-4.90
-5.20
-5.19
-5.01
-4.84
-4.98
-5.63
-6.91
-8.72
-10.75
-12.56
-13.79
-14.41
-14.72
-15.25
-16.44
-18.38
-20.76
-23.07
-24.89
-26.16
-27.24
-28.65
-30.82
-33.81
-37.38
-41.05
-44.38
-47.07
-48.90
-49.72
-49.32
-47.53
-44.25
-39.62
-33.94
-27.73
-21.59
-16.00
-11.27
-7.45
-4.45
-2.06
-0.08
1.62
3.14
4.49
5.74
6.90
7.93
8.78
9.36
9.67
9.81
9.94
10.24
10.77
11.50
12.30
12.94
13.14
12.60
11.13
8.77
5.87
2.99
0.62
-0.97
-1.98
-2.89
-4.19
-6.05
-8.35
-10.71
-12.87
-14.85
-16.98
-19.66
-23.16
-27.34
-31.71
-35.64
-38.46
-39.73
-39.26
-37.16
-33.71
-29.29
-24.34
-19.27
-14.45
-10.13
-6.51
-3.61
-1.32
0.59
2.37
4.14
5.95
7.69
9.26
10.51
11.40
11.98
12.38
12.71
13.07
13.44
13.71
13.77
13.48
12.84
11.99
11.14
10.48
10.10
9.91
9.70
9.26
8.50
7.41
6.10
4.65
3.13
1.49
-0.28
-2.18
-4.16
-6.12
-7.99
-9.74
-11.41
-13.02
-14.60
-16.23
-17.99
-20.02
-22.51
-25.47
-28.73
-31.86
-34.24
-35.31
-34.74
-32.52
-28.94
-24.48
-19.57
-14.54
-9.62
-4.95
-0.70
2.96
5.89
7.99
9.33
10.04
10.42
10.76
11.26
11.98
12.76
13.33
13.44
13.00
12.15
11.18
10.36
9.79
9.38
8.87
8.03
6.72
5.03
3.11
1.19
-0.54
-1.92
-2.88
-3.42
-3.65
-3.76
-3.90
-4.16
-4.54
-5.07
-5.94
-7.47
-10.08
-14.13
-19.72
-26.62
-34.36
-42.21
-49.41
-55.21
-59.03
-60.59
-60.00
-57.76
-54.54
-50.98
-47.33
-43.43
-38.85
-33.15
-26.19
-18.32
-10.22
-2.72
3.47
7.96
10.75
12.16
12.66
12.80
13.01
13.65
14.89
16.85
19.50
22.77
26.43
30.17
33.67
36.59
38.76
40.05
40.48
40.08
38.96
37.27
35.34
33.53
32.26
31.83
32.28
33.36
34.62
35.64
36.15
36.09
35.50
34.33
32.37
29.39
25.36
20.63
15.95
12.16
9.84
9.02
9.24
9.77
9.93
9.36
7.99
5.90
3.19
-0.04
-3.67
-7.46
-11.20
-14.78
-18.24
-21.77
-25.44
-29.12
-32.40
-34.80
-35.96
-35.83
-34.52
-32.25
-29.14
-25.19
-20.37
-14.83
-8.94
-3.21
1.93
6.37
10.23
13.72
16.88
19.50
21.24
21.79
21.17
19.74
18.05
16.61
15.74
15.51
15.81
16.55
17.59
18.80
19.93
20.63
20.59
19.71
18.09
15.99
13.73
11.56
9.61
7.94
6.59
5.60
4.93
4.40
3.73
2.59
0.78
-1.71
-4.68
-7.80
-10.75
-13.24
-15.07
-16.08
-16.19
-15.48
-14.30
-13.21
-12.92
-13.94
-16.40
-19.89
-23.60
-26.69
-28.61
-29.35
-29.40
-29.42
-29.89
-30.99
-32.52
-34.31
-36.33
-38.81
-41.99
-45.79
-49.67
-52.72
-53.98
-52.95
-49.69
-44.77
-38.90
-32.61
-26.05
-19.24
-12.24
-5.31
1.15
6.75
11.31
14.91
17.74
19.98
21.77
23.26
24.61
26.04
27.65
29.34
30.76
31.48
31.22
30.11
28.61
27.40
27.02
27.69
29.14
30.82
32.11
32.54
32.01
30.73
29.15
27.77
26.99
26.99
27.76
29.06
30.61
32.06
33.18
33.82
33.92
33.41
32.22
30.34
27.86
25.01
22.11
19.43
17.11
15.11
13.23
11.28
9.12
6.77
4.36
2.11
0.18
-1.32
-2.47
-3.52
-4.90
-7.11
-10.50
-15.08
-20.41
-25.74
-30.12
-32.73
-33.11
-31.25
-27.53
-22.57
-17.01
-11.30
-5.64
0.04
5.82
11.70
17.44
22.50
26.12
27.49
26.00
21.39
13.94
4.44
-5.91
-15.73
-23.78
-29.19
-31.60
-31.23
-28.69
-24.87
-20.75
-17.19
-14.74
-13.55
-13.42
-13.84
-14.37
-14.70
-14.83
-14.86
-14.91
-14.96
-14.80
-14.17
-12.95
-11.22
-9.22
-7.21
-5.34
-3.68
-2.20
-0.98
-0.15
0.12
-0.22
-1.07
-2.20
-3.39
-4.55
-5.73
-7.05
-8.62
-10.44
-12.45
-14.62
-17.01
-19.74
-22.92
-26.51
-30.25
-33.77
-36.58
-38.24
-38.41
-36.90
-33.71
-29.05
-23.28
-16.89
-10.37
-4.13
1.53
6.40
10.34
13.26
15.14
16.08
16.37
16.39
16.50
16.93
17.77
19.08
20.83
22.94
25.25
27.39
28.90
29.44
28.99
27.86
26.65
25.85
25.62
25.72
25.70
25.20
24.25
23.23
22.68
22.94
23.93
25.21
26.22
26.54
26.05
24.97
23.55
22.03
20.51
19.01
17.54
16.20
15.03
14.00
12.99
11.78
10.27
8.48
6.55
4.63
2.82
1.08
-0.65
-2.48
-4.48
-6.66
-8.90
-10.94
-12.30
-12.42
-10.78
-7.11
-1.58
5.35
13.01
20.86
28.60
36.10
43.27
49.89
55.57
59.97
62.93
64.70
65.79
66.76
67.96
69.35
70.58
71.16
70.65
68.85
65.78
61.59
56.37
50.15
42.82
34.36
24.83
14.49
3.76
-6.93
-17.26
-27.08
-36.30
-44.87
-52.58
-59.11
-64.16
-67.60
-69.56
-70.36
-70.44
-70.17
-69.80
-69.44
-69.05
-68.53
-67.72
-66.47
-64.64
-62.17
-59.15
-55.75
-52.27
-49.01
-46.29
-44.32
-43.12
-42.43
-41.77
-40.50
-38.05
-34.17
-29.01
-23.07
-16.98
-11.20
-5.78
-0.43
5.35
11.88
19.11
26.59
33.64
39.61
44.10
47.03
48.58
49.06
48.77
47.95
46.73
45.14
43.14
40.58
37.31
33.25
28.47
23.19
17.73
12.47
7.69
3.59
0.23
-2.43
-4.49
-6.12
-7.51
-8.93
-10.55
-12.45
-14.48
-16.33
-17.69
-18.39
-18.53
-18.43
-18.45
-18.81
-19.46
-20.16
-20.66
-20.95
-21.25
-21.91
-23.17
-25.04
-27.18
-29.04
-30.01
-29.53
-27.25
-23.03
-17.02
-9.58
-1.30
7.13
15.16
22.37
28.62
34.05
38.89
43.37
47.48
51.02
53.63
55.00
55.01
53.84
51.80
49.23
46.32
43.10
39.47
35.38
30.87
26.10
21.31
16.72
12.48
8.65
5.17
1.96
-1.04
-3.80
-6.20
-8.07
-9.31
-9.98
-10.33
-10.68
-11.29
-12.25
-13.45
-14.72
-15.91
-16.96
-17.91
-18.86
-20.02
-21.63
-23.96
-27.20
-31.31
-35.92
-40.38
-43.94
-45.90
-45.83
-43.58
-39.22
-32.98
-25.17
-16.20
-6.68
2.66
11.07
18.02
23.35
27.29
30.34
33.03
35.75
38.70
41.89
45.27
48.76
52.29
55.67
58.65
60.96
62.45
63.19
63.37
63.21
62.80
62.02
60.69
58.67
55.95
52.70
49.09
45.27
41.30
37.17
32.91
28.54
24.05
19.44
14.73
10.09
5.72
1.78
-1.78
-5.37
-9.59
-14.94
-21.41
-28.48
-35.18
-40.53
-43.93
-45.26
-44.84
-43.13
-40.52
-37.32
-33.75
-30.10
-26.64
-23.58
-21.03
-18.92
-17.18
-15.80
-14.84
-14.36
-14.32
-14.54
-14.78
-14.83
-14.61
-14.24
-13.94
-13.90
-14.18
-14.65
-15.07
-15.19
-14.89
-14.21
-13.40
-12.72
-12.41
-12.60
-13.35
-14.68
-16.58
-18.97
-21.66
-24.35
-26.77
-28.78
-30.51
-32.30
-34.44
-37.11
-40.14
-43.15
-45.57
-46.86
-46.66
-44.87
-41.63
-37.33
-32.44
-27.43
-22.63
-18.19
-14.13
-10.43
-7.11
-4.26
-2.02
-0.52
0.23
0.35
0.12
-0.13
-0.09
0.41
1.25
2.16
2.85
3.17
3.23
3.30
3.62
4.22
4.89
5.20
4.77
3.44
1.33
-1.23
-3.87
-6.31
-8.46
-10.44
-12.48
-14.89
-17.83
-21.31
-25.15
-28.99
-32.43
-35.06
-36.67
-37.18
-36.65
-35.20
-32.91
-29.77
-25.80
-21.13
-16.04
-10.90
-6.03
-1.64
2.27
5.77
8.95
11.83
14.26
16.11
17.24
17.69
17.63
17.33
17.05
17.01
17.30
17.89
18.69
19.60
20.55
21.43
22.13
22.42
22.07
20.98
19.24
17.18
15.20
13.61
12.41
11.36
10.06
8.19
5.69
2.73
-0.41
-3.43
-6.20
-8.70
-11.04
-13.37
-15.88
-18.77
-22.19
-26.11
-30.21
-33.91
-36.46
-37.20
-35.79
-32.33
-27.30
-21.37
-15.22
-9.32
-3.90
0.94
5.30
9.22
12.76
15.94
18.71
20.98
22.65
23.63
23.94
23.78
23.49
23.48
24.09
25.42
27.28
29.22
30.79
31.73
32.03
31.90
31.56
31.05
30.26
29.04
27.36
25.44
23.59
22.13
21.05
20.14
18.94
17.06
14.37
11.01
7.43
4.15
1.62
0.03
-0.64
-0.63
-0.26
0.16
0.37
0.19
-0.57
-2.11
-4.65
-8.32
-13.15
-19.06
-25.96
-33.69
-42.11
-50.96
-59.79
-68.00
-74.86
-79.72
-82.13
-81.96
-79.43
-75.02
-69.36
-63.08
-56.73
-50.63
-44.88
-39.38
-33.94
-28.46
-23.01
-17.88
-13.44
-9.92
-7.29
-5.21
-3.16
-0.69
2.34
5.73
9.03
11.83
13.93
15.44
16.64
17.79
19.00
20.21
21.22
21.92
22.26
22.31
22.18
21.88
21.33
20.43
19.18
17.71
16.29
15.17
14.48
14.12
13.85
13.39
12.48
10.99
8.95
6.44
3.64
0.72
-2.17
-4.99
-7.79
-10.67
-13.66
-16.70
-19.64
-22.40
-25.07
-27.92
-31.29
-35.24
-39.46
-43.22
-45.59
-45.81
-43.50
-38.85
-32.39
-24.87
-17.05
-9.51
-2.61
3.51
8.87
13.56
17.65
21.06
23.70
25.47
26.40
26.74
26.79
26.85
27.07
27.50
28.14
29.01
30.15
31.54
33.07
34.47
35.47
35.90
35.78
35.37
34.92
34.66
34.54
34.33
33.78
32.73
31.21
29.41
27.58
25.87
24.30
22.78
21.27
19.73
18.24
16.85
15.56
14.29
12.85
11.06
8.76
5.89
2.47
-1.44
-5.76
-10.43
-15.35
-20.44
-25.58
-30.64
-35.53
-40.20
-44.65
-48.82
-52.56
-55.57
-57.41
-57.63
-55.92
-52.23
-46.80
-40.11
-32.69
-25.09
-17.73
-10.97
-4.97
0.22
4.64
8.41
11.62
14.30
16.50
18.28
19.70
20.90
22.00
23.12
24.33
25.69
27.24
28.98
30.87
32.78
34.56
36.08
37.31
38.28
39.06
39.65
40.01
40.04
39.66
38.89
37.89
36.85
35.97
35.27
34.65
33.95
33.07
31.96
30.73
29.46
28.18
26.83
25.26
23.33
20.92
18.04
14.72
11.08
7.27
3.48
-0.09
-3.33
-6.29
-9.27
-12.67
-16.88
-22.05
-28.07
-34.42
-40.39
-45.16
-48.05
-48.69
-47.12
-43.79
-39.39
-34.57
-29.72
-24.84
-19.73
-14.19
-8.29
-2.37
3.03
7.54
11.12
14.08
16.89
19.98
23.47
27.29
31.28
35.34
39.46
43.65
47.82
51.70
54.90
57.07
58.08
58.00
57.12
55.75
54.12
52.35
50.44
48.36
46.05
43.48
40.68
37.70
34.63
31.53
28.43
25.29
22.07
18.77
15.39
11.99
8.56
5.07
1.51
-2.08
-5.54
-8.64
-11.25
-13.44
-15.46
-17.68
-20.40
-23.76
-27.65
-31.85
-36.14
-40.40
-44.56
-48.47
-51.92
-54.54
-55.92
-55.70
-53.74
-50.16
-45.32
-39.71
-33.85
-28.11
-22.69
-17.69
-13.05
-8.77
-4.83
-1.21
2.07
5.03
7.69
10.17
12.57
15.03
17.63
20.41
23.36
26.40
29.38
32.12
34.46
36.27
37.53
38.32
38.76
38.98
39.02
38.88
38.47
37.71
36.56
35.03
33.12
30.83
28.09
24.89
21.26
17.29
13.22
9.21
5.39
1.77
-1.74
-5.20
-8.58
-11.80
-14.75
-17.40
-19.91
-22.53
-25.56
-29.18
-33.36
-37.88
-42.32
-46.18
-48.98
-50.38
-50.20
-48.42
-45.21
-40.90
-35.97
-30.95
-26.31
-22.35
-19.21
-16.77
-14.83
-13.20
-11.80
-10.65
-9.77
-9.09
-8.48
-7.76
-6.86
-5.85
-4.94
-4.31
-3.92
-3.57
-2.99
-1.99
-0.60
0.88
2.05
2.60
2.39
1.56
0.33
-1.02
-2.34
-3.61
-4.91
-6.38
-8.13
-10.19
-12.49
-14.91
-17.25
-19.33
-21.04
-22.37
-23.40
-24.32
-25.40
-26.98
-29.40
-32.81
-37.09
-41.77
-46.03
-48.90
-49.56
-47.58
-43.07
-36.69
-29.37
-22.02
-15.24
-9.27
-3.99
0.75
4.99
8.50
11.04
12.59
13.61
15.03
17.90
22.94
30.20
39.12
48.79
58.43
67.63
76.30
84.57
92.61
100.54
108.50
116.57
124.71
132.49
139.19
143.96
146.16
145.67
142.94
138.62
133.26
126.84
118.78
108.21
94.27
76.52
55.08
30.59
3.93
-24.09
-53.00
-82.69
-113.27
-144.68
-176.39
-207.23
-235.37
-258.74
-275.42
-284.06
-284.17
-276.00
-260.28
-237.79
-209.25
-175.45
-137.79
-98.60
-61.07
-28.57
-3.62
12.96
22.24
26.64
28.80
30.75
33.54
37.45
42.44
48.50
55.69
63.92
72.82
81.70
89.68
96.01
100.08
101.40
99.52
93.90
84.11
70.08
52.45
32.66
12.75
-5.07
-19.05
-28.22
-32.51
-32.50
-29.02
-22.86
-14.67
-4.97
5.66
16.69
27.66
38.32
48.48
57.91
65.97
71.57
73.40
70.38
62.21
49.45
33.27
14.84
-5.15
-26.45
-48.78
-71.22
-92.07
-109.33
-121.71
-129.43
-134.12
-137.89
-141.87
-145.22
-145.25
-138.68
-123.29
-99.15
-68.67
-35.66
-3.96
23.62
45.63
61.73
72.25
77.95
79.96
79.79
79.11
79.24
80.62
82.66
84.00
83.18
79.29
72.29
62.88
52.11
40.92
29.89
19.39
9.65
0.94
-6.54
-12.73
-17.86
-22.42
-26.98
-32.05
-37.86
-44.40
-51.45
-58.73
-65.98
-73.05
-79.78
-85.97
-91.15
-94.60
-95.53
-93.29
-87.88
-80.07
-71.27
-63.11
-56.76
-52.54
-49.88
-47.61
-44.48
-39.57
-32.54
-23.44
-12.61
-0.47
12.39
25.30
37.39
47.86
56.09
61.68
64.59
64.91
62.85
58.65
52.69
45.49
37.74
30.16
23.40
17.85
13.54
10.21
7.40
4.72
1.96
-0.85
-3.55
-5.93
-7.89
-9.49
-10.84
-12.04
-13.04
-13.73
-13.98
-13.79
-13.41
-13.15
-13.28
-13.80
-14.39
-14.55
-13.80
-11.88
-8.87
-5.21
-1.60
1.08
1.80
-0.44
-6.34
-16.02
-28.67
-42.60
-55.57
-65.35
-70.28
-69.61
-63.35
-51.98
-36.22
-16.77
5.46
29.27
53.18
75.60
95.16
110.88
122.22
128.86
130.65
127.51
119.76
108.21
94.31
79.88
66.72
56.09
48.43
43.35
39.89
36.88
33.25
28.22
21.42
13.03
3.69
-5.59
-13.69
-19.79
-23.61
-25.49
-26.19
-26.55
-27.03
-27.60
-27.90
-27.50
-26.19
-24.08
-21.59
-19.17
-17.27
-16.16
-15.99
-16.83
-18.58
-21.09
-24.14
-27.49
-31.01
-34.71
-38.75
-43.37
-48.64
-54.36
-59.94
-64.53
-67.17
-67.14
-64.17
-58.45
-50.60
-41.41
-31.65
-22.00
-12.99
-5.07
1.41
6.35
9.93
12.80
15.79
19.66
24.76
30.83
37.08
42.57
46.58
48.92
49.96
50.33
50.74
51.55
52.76
54.08
55.08
55.42
54.96
53.74
51.92
49.71
47.25
44.68
42.15
39.87
38.11
37.06
36.69
36.76
36.86
36.73
36.45
36.55
37.90
41.29
47.07
54.94
63.93
72.78
80.22
85.38
87.76
87.28
84.11
78.59
71.21
62.63
53.67
45.14
37.70
31.63
26.87
23.06
19.77
16.68
13.64
10.64
7.73
4.95
2.26
-0.39
-3.16
-6.30
-10.08
-14.65
-19.96
-25.59
-30.92
-35.29
-38.28
-39.85
-40.36
-40.33
-40.26
-40.48
-41.19
-42.49
-44.37
-46.47
-47.83
-46.97
-42.19
-32.41
-17.85
-0.24
17.60
32.79
43.45
49.21
51.01
50.20
47.77
43.92
38.44
31.16
22.51
13.35
4.43
-4.06
-12.74
-22.59
-34.30
-47.64
-61.30
-73.36
-82.02
-86.30
-86.44
-83.67
-79.60
-75.52
-71.86
-68.19
-63.61
-57.35
-49.32
-40.14
-30.92
-22.77
-16.29
-11.52
-8.01
-5.23
-2.78
-0.45
1.99
4.82
8.47
13.31
19.35
26.13
32.76
38.31
42.10
43.95
44.25
43.71
43.02
42.67
42.84
43.46
44.28
45.00
45.39
45.34
44.94
44.27
43.32
41.81
39.17
34.77
28.17
19.40
8.89
-2.71
-14.81
-27.03
-39.05
-50.41
-60.40
-68.10
-72.65
-73.66
-71.30
-66.30
-59.71
-52.67
-46.13
-40.60
-36.17
-32.56
-29.40
-26.51
-24.09
-22.60
-22.49
-23.78
-25.98
-28.20
-29.53
-29.46
-28.00
-25.57
-22.65
-19.50
-16.13
-12.41
-8.30
-4.01
0.05
3.38
5.69
6.90
7.23
6.96
6.37
5.59
4.69
3.65
2.48
1.23
-0.01
-1.31
-2.74
-4.46
-6.51
-8.75
-10.95
-12.90
-14.59
-16.24
-18.13
-20.38
-22.90
-25.30
-27.14
-28.00
-27.65
-25.96
-22.87
-18.26
-12.09
-4.38
4.51
14.03
23.46
32.19
39.85
46.29
51.50
55.40
57.87
58.70
57.89
55.72
52.87
50.17
48.40
47.90
48.49
49.62
50.62
51.02
50.67
49.72
48.44
47.01
45.52
43.93
42.14
40.11
37.83
35.27
32.40
29.14
25.43
21.32
17.01
12.82
9.15
6.34
4.47
3.33
2.43
1.08
-1.24
-4.78
-9.30
-14.25
-18.92
-22.83
-25.89
-28.38
-30.77
-33.41
-36.31
-39.04
-40.93
-41.31
-39.74
-36.13
-30.76
-24.20
-17.16
-10.48
-5.02
-1.54
-0.51
-1.89
-5.05
-9.00
-12.65
-15.30
-16.83
-17.67
-18.41
-19.48
-20.91
-22.42
-23.61
-24.25
-24.39
-24.29
-24.26
-24.53
-25.22
-26.37
-27.98
-29.96
-32.07
-33.95
-35.19
-35.36
-34.18
-31.48
-27.32
-22.00
-16.07
-10.24
-5.16
-1.25
1.45
3.15
4.12
4.48
4.04
2.49
-0.45
-4.74
-9.99
-15.65
-21.15
-25.97
-29.69
-31.86
-32.04
-29.92
-25.54
-19.36
-12.24
-5.13
1.20
6.37
10.50
13.89
16.96
19.93
22.82
25.38
27.38
28.67
29.37
29.92
30.91
32.83
35.89
39.90
44.36
48.65
52.22
54.72
55.99
55.93
54.52
51.75
47.75
42.79
37.27
31.61
26.06
20.74
15.67
10.83
6.28
2.14
-1.49
-4.49
-6.77
-8.24
-8.91
-8.85
-8.32
-7.78
-7.80
-8.93
-11.53
-15.62
-20.84
-26.53
-31.93
-36.44
-39.83
-42.35
-44.59
-47.27
-50.79
-55.06
-59.45
-63.10
-65.31
-65.85
-64.96
-63.22
-61.14
-58.99
-56.66
-53.94
-50.66
-46.77
-42.32
-37.32
-31.76
-25.56
-18.90
-12.15
-5.90
-0.63
3.52
6.79
9.62
12.38
15.17
17.85
20.20
22.23
24.19
26.49
29.42
32.98
36.73
40.07
42.40
43.36
42.95
41.43
39.24
36.80
34.48
32.48
30.95
29.94
29.54
29.83
30.75
32.13
33.60
34.65
34.87
34.05
32.26
29.84
27.10
24.22
21.17
17.75
13.68
8.76
2.86
-4.00
-11.67
-19.88
-28.20
-36.05
-42.79
-47.87
-50.94
-51.88
-50.83
-48.04
-43.90
-38.80
-33.18
-27.49
-22.18
-17.59
-13.98
-11.43
-9.84
-9.01
-8.66
-8.56
-8.51
-8.40
-8.04
-7.20
-5.53
-2.69
1.44
6.80
12.97
19.41
25.62
31.21
36.01
40.00
43.27
45.97
48.33
50.47
52.33
53.60
53.73
52.05
48.11
41.81
33.53
24.02
14.12
4.60
-4.00
-11.37
-17.43
-22.35
-26.60
-31.02
-36.61
-44.22
-54.08
-65.46
-76.89
-86.49
-92.70
-94.74
-92.77
-87.62
-80.33
-71.76
-62.43
-52.63
-42.53
-32.23
-21.86
-11.50
-1.24
8.67
17.89
25.98
32.61
37.73
41.55
44.39
46.60
48.45
50.10
51.71
53.38
55.11
56.71
57.84
58.10
57.20
55.03
51.71
47.53
42.92
38.21
33.66
29.28
24.90
20.32
15.44
10.45
5.71
1.57
-1.93
-5.13
-8.70
-13.25
-18.98
-25.59
-32.29
-38.23
-42.65
-45.06
-45.25
-43.15
-38.93
-32.96
-25.91
-18.62
-11.94
-6.46
-2.44
0.27
1.97
2.96
3.54
3.92
4.42
5.41
7.22
9.96
13.45
17.23
20.80
23.79
26.02
27.53
28.34
28.45
27.83
26.49
24.62
22.47
20.29
18.20
16.14
13.89
11.26
8.20
4.82
1.35
-2.02
-5.26
-8.53
-12.08
-16.16
-20.80
-25.78
-30.65
-34.82
-37.66
-38.71
-37.65
-34.44
-29.30
-22.75
-15.51
-8.35
-1.92
3.49
7.86
11.41
14.36
16.76
18.50
19.46
19.61
19.15
18.42
17.80
17.57
17.84
18.57
19.65
20.96
22.32
23.52
24.33
24.52
23.91
22.43
20.21
17.49
14.63
12.01
9.87
8.19
6.64
4.74
2.11
-1.30
-5.07
-8.52
-11.07
-12.51
-13.23
-13.97
-15.58
-18.59
-23.10
-28.75
-34.89
-40.70
-45.34
-48.14
-48.73
-47.08
-43.53
-38.59
-32.76
-26.32
-19.35
-11.85
-3.93
4.09
11.77
18.72
24.61
29.29
32.60
34.43
34.73
33.56
31.30
28.55
25.98
24.16
23.40
23.71
24.81
26.31
27.74
28.76
29.08
28.56
27.16
24.91
21.91
18.26
14.11
9.69
5.29
1.25
-2.23
-5.05
-7.37
-9.50
-11.85
-14.85
-18.84
-24.00
-30.25
-37.16
-43.92
-49.61
-53.41
-54.93
-54.29
-51.98
-48.47
-44.09
-38.93
-33.05
-26.82
-20.90
-16.09
-12.85
-11.12
-10.26
-9.47
-8.10
-5.93
-3.06
0.31
4.14
8.49
13.44
18.98
24.93
31.18
37.83
45.36
54.41
65.25
77.37
89.33
99.12
104.84
105.43
100.94
92.40
81.25
68.79
55.93
43.27
31.39
21.03
13.00
7.95
6.10
7.19
10.60
15.67
21.75
28.30
34.80
40.73
45.69
49.34
51.54
52.23
51.53
49.67
47.02
44.09
41.46
39.59
38.66
38.51
38.66
38.69
38.43
38.10
38.15
38.82
39.87
40.44
39.33
35.47
28.40
18.46
6.66
-5.83
-18.13
-29.90
-41.36
-52.96
-65.04
-77.59
-90.24
-102.40
-113.41
-122.76
-130.03
-134.85
-136.88
-135.96
-132.21
-126.21
-118.92
-111.36
-104.23
-97.64
-91.11
-83.93
-75.56
-66.05
-55.97
-46.22
-37.50
-29.98
-23.29
-16.82
-10.05
-2.96
4.03
10.28
15.26
18.83
21.17
22.62
23.36
23.38
22.51
20.64
17.94
14.82
11.77
9.15
6.99
5.01
2.80
0.02
-3.37
-7.05
-10.40
-12.65
-13.17
-11.68
-8.26
-3.27
2.80
9.46
16.22
22.55
27.89
31.70
33.66
33.80
32.56
30.62
28.60
26.88
25.52
24.38
23.28
22.17
21.06
19.98
18.89
17.70
16.39
15.02
13.73
12.64
11.71
10.72
9.38
7.45
4.97
2.24
-0.29
-2.28
-3.63
-4.63
-5.76
-7.53
-10.20
-13.74
-17.79
-21.86
-25.46
-28.18
-29.68
-29.70
-28.05
-24.66
-19.75
-13.79
-7.44
-1.39
3.85
8.06
11.23
13.43
14.66
14.90
14.15
12.58
10.56
8.54
6.92
5.88
5.41
5.36
5.59
6.02
6.68
7.57
8.61
9.54
10.06
9.85
8.76
6.88
4.50
2.00
-0.23
-1.96
-3.21
-4.21
-5.31
-6.83
-8.82
-11.11
-13.34
-15.10
-16.22
-16.83
-17.35
-18.29
-20.06
-22.70
-25.83
-28.77
-30.80
-31.37
-30.24
-27.47
-23.30
-18.05
-12.16
-6.13
-0.55
3.95
6.88
8.09
7.79
6.61
5.23
4.20
3.71
3.60
3.56
3.34
2.92
2.46
2.17
2.18
2.48
2.94
3.39
3.63
3.53
2.99
2.03
0.80
-0.50
-1.61
-2.45
-3.12
-3.88
-5.05
-6.76
-8.91
-11.26
-13.50
-15.52
-17.40
-19.36
-21.64
-24.39
-27.53
-30.78
-33.62
-35.35
-35.28
-32.92
-28.19
-21.55
-13.77
-5.84
1.45
7.51
12.01
14.83
16.00
15.71
14.32
12.30
10.21
8.42
7.17
6.47
6.25
6.38
6.78
7.36
8.03
8.67
9.16
9.42
9.36
8.96
8.29
7.47
6.71
6.16
5.84
5.58
5.05
3.96
2.16
-0.26
-3.03
-5.86
-8.57
-11.22
-14.06
-17.36
-21.26
-25.58
-29.78
-33.03
-34.52
-33.67
-30.37
-25.06
-18.52
-11.66
-5.24
0.33
4.95
8.76
11.97
14.67
16.85
18.36
19.03
18.78
17.72
16.19
14.62
13.47
13.05
13.40
14.34
15.53
16.69
17.65
18.33
18.74
18.85
18.64
18.15
17.51
16.88
16.34
15.76
14.80
13.12
10.57
7.33
3.87
0.68
-1.98
-4.17
-6.18
-8.28
-10.56
-12.92
-15.11
-17.03
-18.72
-20.44
-22.43
-24.88
-27.88
-31.40
-35.41
-39.84
-44.46
-48.87
-52.47
-54.58
-54.71
-52.64
-48.51
-42.76
-35.95
-28.65
-21.34
-14.43
-8.25
-3.11
0.71
3.04
3.84
3.31
1.82
-0.14
-2.04
-3.40
-3.86
-3.21
-1.48
1.17
4.36
7.57
10.24
11.86
12.08
10.71
7.73
3.29
-2.27
-8.39
-14.27
-18.90
-21.31
-20.81
-17.16
-10.62
-1.81
8.57
19.97
32.11
44.89
58.12
71.36
83.84
94.76
103.53
110.05
114.67
117.82
119.59
119.33
115.76
107.20
92.33
70.81
43.75
13.63
-16.09
-41.64
-59.73
-68.15
-66.35
-55.44
-38.04
-17.63
2.29
18.98
30.96
38.09
41.19
41.45
39.94
37.54
35.14
33.94
35.15
39.39
45.84
51.93
53.97
48.72
34.89
13.89
-10.65
-34.50
-54.60
-70.05
-81.93
-92.09
-101.86
-111.30
-119.42
-124.95
-127.14
-126.12
-122.66
-117.70
-111.88
-105.39
-98.10
-89.83
-80.63
-70.81
-60.87
-51.33
-42.57
-34.70
-27.70
-21.46
-15.97
-11.29
-7.54
-4.86
-3.29
-2.87
-3.61
-5.58
-8.87
-13.43
-19.01
-25.08
-30.80
-35.22
-37.47
-36.97
-33.52
-27.42
-19.36
-10.28
-1.14
7.31
14.69
20.88
26.00
30.18
33.42
35.66
36.86
37.08
36.57
35.65
34.63
33.74
33.10
32.84
33.11
34.10
35.84
38.17
40.66
42.76
44.00
44.18
43.38
41.93
40.25
38.64
37.19
35.84
34.39
32.69
30.64
28.32
25.92
23.61
21.53
19.57
17.53
15.13
12.30
9.16
6.05
3.28
0.93
-1.15
-3.28
-5.67
-8.33
-11.08
-13.80
-16.53
-19.50
-22.90
-26.67
-30.34
-33.17
-34.38
-33.41
-30.13
-24.78
-17.93
-10.22
-2.32
5.19
11.87
17.42
21.74
24.91
27.17
28.77
29.91
30.64
30.93
30.70
29.99
28.96
27.98
27.51
27.91
29.26
31.28
33.45
35.16
36.01
35.87
34.91
33.49
31.93
30.45
29.07
27.72
26.27
24.63
22.84
20.94
18.96
16.90
14.69
12.27
9.63
6.81
3.90
0.99
-1.81
-4.46
-6.90
-9.11
-11.04
-12.65
-14.05
-15.47
-17.30
-19.91
-23.48
-27.77
-32.18
-35.86
-37.98
-37.96
-35.63
-31.19
-25.12
-17.98
-10.30
-2.58
4.77
11.37
16.92
21.24
24.26
26.10
26.90
26.88
26.25
25.22
24.05
22.98
22.23
21.95
22.16
22.70
23.37
23.94
24.35
24.61
24.80
24.93
24.97
24.80
24.35
23.58
22.55
21.36
20.05
18.61
17.00
15.17
13.14
11.00
8.90
6.95
5.23
3.68
2.20
0.61
-1.22
-3.34
-5.64
-7.95
-10.08
-11.92
-13.55
-15.20
-17.12
-19.54
-22.53
-26.06
-30.01
-34.22
-38.39
-42.07
-44.63
-45.34
-43.61
-39.22
-32.56
-24.50
-16.15
-8.46
-2.02
3.11
7.17
10.50
13.23
15.27
16.43
16.64
16.03
15.03
14.16
13.83
14.20
15.14
16.41
17.77
19.08
20.34
21.57
22.72
23.65
24.15
24.08
23.44
22.31
20.88
19.28
17.62
15.96
14.35
12.80
11.33
9.90
8.47
6.98
5.42
3.79
2.13
0.43
-1.24
-2.89
-4.51
-6.07
-7.56
-8.98
-10.43
-11.99
-13.80
-15.94
-18.43
-21.14
-23.94
-26.67
-29.36
-32.12
-35.08
-38.22
-41.22
-43.49
-44.33
-43.18
-39.88
-34.70
-28.22
-21.17
-14.21
-7.75
-2.03
2.94
7.16
10.64
13.38
15.37
16.63
17.19
17.14
16.59
15.69
14.64
13.72
13.25
13.50
14.54
16.18
18.06
19.76
21.06
21.89
22.34
22.50
22.37
21.88
20.97
19.71
18.32
17.08
16.15
15.47
14.78
13.83
12.49
10.83
9.08
7.47
6.12
4.95
3.76
2.28
0.34
-2.10
-4.86
-7.68
-10.29
-12.53
-14.40
-16.03
-17.65
-19.50
-21.71
-24.26
-26.93
-29.28
-30.74
-30.75
-28.91
-25.15
-19.76
-13.33
-6.61
-0.28
5.12
9.28
12.07
13.54
13.90
13.52
12.81
12.09
11.58
11.27
11.09
10.92
10.73
10.57
10.52
10.65
11.02
11.57
12.19
12.73
13.00
12.81
12.08
10.79
8.98
6.78
4.34
1.82
-0.63
-2.98
-5.26
-7.65
-10.33
-13.41
-16.76
-20.11
-23.08
-25.38
-26.92
-27.89
-28.72
-29.97
-32.19
-35.67
-40.33
-45.66
-50.72
-54.49
-56.08
-55.07
-51.53
-45.98
-39.13
-31.73
-24.35
-17.45
-11.40
-6.42
-2.59
0.17
2.08
3.44
4.54
5.59
6.75
8.10
9.66
11.41
13.29
15.21
17.09
18.94
20.76
22.61
24.45
26.21
27.75
28.93
29.63
29.80
29.44
28.63
27.48
26.13
24.70
23.33
22.08
20.90
19.67
18.19
16.25
13.71
10.58
7.00
3.28
-0.25
-3.35
-5.95
-8.25
-10.71
-13.86
-18.18
-23.86
-30.71
-38.04
-44.76
-49.60
-51.55
-50.19
-45.89
-39.79
-33.43
-28.14
-24.59
-22.50
-20.85
-18.42
-14.34
-8.58
-1.90
4.57
9.83
13.45
15.54
16.58
17.07
17.29
17.39
17.43
17.57
18.09
19.19
20.86
22.85
24.74
26.15
26.89
26.95
26.48
25.67
24.72
23.79
23.04
22.48
21.99
21.34
20.33
18.88
17.13
15.30
13.62
12.17
10.89
9.66
8.36
6.96
5.44
3.81
2.06
0.18
-1.76
-3.71
-5.63
-7.65
-10.06
-13.19
-17.22
-22.02
-27.05
-31.48
-34.45
-35.27
-33.70
-29.94
-24.54
-18.20
-11.54
-5.03
1.06
6.50
11.04
14.46
16.65
17.74
18.06
18.05
18.06
18.25
18.58
18.89
19.06
19.04
18.92
18.80
18.76
18.81
18.90
18.94
18.79
18.31
17.41
16.12
14.59
13.05
11.66
10.43
9.10
7.38
5.04
2.13
-1.05
-4.08
-6.61
-8.56
-10.06
-11.48
-13.18
-15.43
-18.38
-22.01
-26.11
-30.29
-33.99
-36.56
-37.43
-36.25
-33.04
-28.17
-22.26
-15.99
-9.94
-4.51
0.18
4.12
7.30
9.70
11.28
12.13
12.48
12.70
13.20
14.16
15.48
16.86
17.93
18.50
18.65
18.61
18.60
18.70
18.81
18.76
18.41
17.78
16.97
16.10
15.24
14.34
13.32
12.13
10.75
9.25
7.69
6.12
4.50
2.77
0.87
-1.18
-3.32
-5.37
-7.18
-8.69
-10.00
-11.31
-12.88
-14.89
-17.42
-20.39
-23.65
-27.06
-30.53
-34.03
-37.55
-40.93
-43.92
-46.03
-46.70
-45.41
-41.96
-36.52
-29.67
-22.17
-14.78
-8.00
-2.11
2.82
6.81
9.87
12.06
13.54
14.57
15.44
16.37
17.46
18.63
19.69
20.48
20.90
21.00
20.96
21.05
21.46
22.28
23.36
24.37
24.97
24.89
24.08
22.69
21.01
19.32
17.86
16.71
15.86
15.17
14.42
13.42
12.03
10.28
8.31
6.35
4.51
2.77
1.04
-0.82
-2.81
-4.92
-7.09
-9.36
-11.79
-14.49
-17.40
-20.39
-23.31
-26.17
-29.15
-32.48
-36.19
-39.90
-42.82
-44.00
-42.75
-38.94
-33.08
-26.10
-18.97
-12.39
-6.66
-1.78
2.36
5.90
8.91
11.49
13.73
15.71
17.46
18.95
20.11
20.95
21.55
22.12
22.82
23.73
24.78
25.82
26.66
27.20
27.36
27.09
26.37
25.20
23.69
22.04
20.48
19.21
18.27
17.50
16.70
15.63
14.17
12.37
10.35
8.31
6.30
4.27
2.11
-0.25
-2.78
-5.30
-7.54
-9.28
-10.51
-11.44
-12.47
-14.05
-16.50
-19.89
-24.10
-28.71
-33.20
-36.99
-39.47
-40.20
-38.92
-35.79
-31.25
-25.95
-20.51
-15.35
-10.60
-6.17
-2.00
1.87
5.21
7.75
9.30
9.92
9.86
9.57
9.38
9.46
9.79
10.24
10.71
11.19
11.78
12.54
13.44
14.33
14.95
15.07
14.56
13.43
11.90
10.23
8.70
7.50
6.66
6.12
5.67
5.15
4.36
3.27
1.82
0.05
-2.03
-4.37
-6.86
-9.27
-11.33
-12.89
-14.01
-14.93
-16.01
-17.49
-19.42
-21.68
-24.10
-26.70
-29.56
-32.78
-36.23
-39.52
-41.99
-43.03
-42.23
-39.58
-35.43
-30.30
-24.69
-18.95
-13.27
-7.84
-2.85
1.41
4.72
6.99
8.42
9.45
10.48
11.84
13.51
15.27
16.83
18.02
18.84
19.45
19.97
20.43
20.80
21.04
21.13
21.08
20.86
20.33
19.38
18.03
16.44
14.96
13.90
13.37
13.16
12.88
12.16
10.87
9.24
7.62
6.34
5.42
4.64
3.74
2.58
1.30
0.13
-0.82
-1.77
-3.11
-5.22
-8.09
-11.35
-14.43
-16.86
-18.64
-20.16
-22.02
-24.67
-28.21
-32.41
-36.75
-40.64
-43.46
-44.61
-43.59
-40.24
-34.84
-28.10
-21.01
-14.39
-8.74
-4.12
-0.35
2.76
5.29
7.24
8.69
9.77
10.72
11.72
12.83
14.04
15.37
16.82
18.37
19.94
21.37
22.47
23.16
23.52
23.74
23.94
24.12
24.16
23.97
23.48
22.74
21.85
20.90
19.95
19.08
18.36
17.85
17.53
17.31
17.02
16.43
15.37
13.72
11.50
8.85
6.00
3.23
0.80
-1.13
-2.54
-3.56
-4.44
-5.44
-6.84
-8.83
-11.48
-14.65
-18.07
-21.40
-24.41
-27.10
-29.61
-32.11
-34.46
-36.23
-36.76
-35.43
-32.02
-26.81
-20.51
-13.91
-7.71
-2.25
2.39
6.22
9.31
11.67
13.21
13.92
13.90
13.38
12.75
12.36
12.45
13.01
13.90
14.90
15.84
16.72
17.61
18.53
19.39
20.02
20.19
19.85
19.08
18.09
17.08
16.11
15.14
14.03
12.64
10.94
9.01
7.04
5.24
3.75
2.52
1.39
0.17
-1.27
-2.87
-4.49
-6.06
-7.59
-9.23
-11.14
-13.37
-15.80
-18.20
-20.37
-22.21
-23.85
-25.62
-27.92
-31.12
-35.30
-40.11
-44.76
-48.20
-49.47
-48.04
-43.99
-37.93
-30.78
-23.40
-16.47
-10.46
-5.63
-2.09
0.23
1.57
2.31
2.89
3.62
4.66
5.95
7.37
8.79
10.10
11.26
12.28
13.17
13.97
14.70
15.38
16.02
16.62
17.16
17.63
18.02
18.22
18.09
17.53
16.50
15.17
13.83
12.72
11.96
11.43
10.77
9.69
8.05
6.00
3.86
1.98
0.52
-0.59
-1.61
-2.82
-4.38
-6.25
-8.29
-10.33
-12.31
-14.34
-16.63
-19.42
-22.89
-27.00
-31.49
-35.90
-39.66
-42.23
-43.20
-42.37
-39.80
-35.78
-30.78
-25.28
-19.70
-14.28
-9.11
-4.22
0.37
4.44
7.73
10.03
11.31
11.81
11.96
12.20
12.78
13.76
15.00
16.35
17.75
19.20
20.69
22.12
23.31
24.03
24.19
23.91
23.39
22.82
22.28
21.68
20.91
19.90
18.70
17.46
16.32
15.30
14.29
13.10
11.59
9.74
7.68
5.63
3.76
2.17
0.78
-0.60
-2.20
-4.19
-6.61
-9.34
-12.15
-14.87
-17.47
-20.12
-23.12
-26.74
-31.04
-35.73
-40.22
-43.79
-45.83
-45.97
-44.16
-40.68
-35.91
-30.27
-24.13
-17.80
-11.48
-5.36
0.41
5.58
9.92
13.24
15.43
16.61
17.09
17.28
17.56
18.17
19.15
20.38
21.67
22.83
23.76
24.46
25.05
25.66
26.39
27.16
27.75
27.85
27.24
25.97
24.32
22.67
21.30
20.24
19.28
18.09
16.51
14.62
12.69
10.99
9.63
8.43
7.10
5.32
2.99
0.21
-2.75
-5.66
-8.39
-10.93
-13.38
-15.87
-18.51
-21.45
-24.85
-28.82
-33.30
-37.88
-41.88
-44.40
-44.72
-42.50
-37.93
-31.68
-24.69
-17.79
-11.49
-5.97
-1.06
3.52
7.88
11.91
15.30
17.72
19.08
19.57
19.67
19.93
20.68
21.96
23.52
25.01
26.20
27.10
27.84
28.57
29.25
29.70
29.62
28.85
27.36
25.40
23.28
21.31
19.68
18.38
17.25
16.05
14.60
12.82
10.75
8.56
6.44
4.56
2.98
1.61
0.24
-1.33
-3.26
-5.56
-8.10
-10.67
-13.05
-15.13
-16.98
-18.78
-20.83
-23.42
-26.75
-30.87
-35.61
-40.55
-44.99
-48.05
-48.96
-47.25
-42.92
-36.54
-28.99
-21.23
-13.98
-7.59
-2.12
2.54
6.51
9.87
12.63
14.85
16.64
18.09
19.22
19.98
20.27
20.09
19.57
19.02
18.77
19.08
19.92
21.02
21.93
22.28
21.93
21.00
19.79
18.58
17.46
16.31
14.95
13.25
11.22
9.06
7.02
5.27
3.82
2.54
1.22
-0.28
-2.02
-3.94
-5.88
-7.76
-9.57
-11.37
-13.34
-15.66
-18.44
-21.81
-25.80
-30.31
-35.09
-39.58
-43.06
-44.82
-44.33
-41.52
-36.83
-30.96
-24.69
-18.58
-12.83
-7.38
-2.14
2.87
7.45
11.29
14.16
16.02
17.08
17.73
18.34
19.14
20.21
21.47
22.86
24.35
25.97
27.74
29.53
31.16
32.40
33.18
33.55
33.72
33.93
34.22
34.52
34.67
34.56
34.23
33.77
33.19
32.35
31.00
28.96
26.33
23.56
21.15
19.42
18.27
17.21
15.71
13.43
10.45
7.07
3.66
0.40
-2.79
-6.11
-9.76
-13.93
-18.81
-24.52
-31.04
-38.07
-44.95
-50.72
-54.41
-55.32
-53.36
-49.01
-43.16
-36.80
-30.71
-25.31
-20.58
-16.36
-12.43
-8.79
-5.62
-3.22
-1.90
-1.81
-2.93
-5.01
-7.67
-10.43
-12.79
-14.36
-14.90
-14.42
-13.14
-11.38
-9.40
-7.38
-5.34
-3.25
-1.17
0.76
2.40
3.74
4.89
6.08
7.41
8.88
10.31
11.50
12.41
13.17
14.04
15.20
16.66
18.12
19.12
19.24
18.28
16.35
13.84
11.24
8.94
7.10
5.56
3.96
1.87
-0.98
-4.62
-8.81
-13.13
-17.10
-20.19
-21.95
-22.00
-20.12
-16.32
-10.92
-4.55
2.01
7.99
12.73
15.87
17.32
17.25
16.07
14.28
12.40
10.83
9.79
9.28
9.12
9.10
9.05
8.96
8.89
8.91
9.00
8.97
8.66
7.91
6.78
5.43
4.07
2.83
1.65
0.42
-0.91
-2.29
-3.59
-4.73
-5.75
-6.83
-8.13
-9.73
-11.52
-13.41
-15.27
-17.11
-19.05
-21.25
-23.86
-26.98
-30.66
-34.71
-38.73
-42.02
-43.81
-43.43
-40.64
-35.75
-29.47
-22.77
-16.46
-10.98
-6.34
-2.29
1.51
5.16
8.52
11.27
13.12
14.09
14.50
14.91
15.74
17.14
18.90
20.54
21.69
22.21
22.28
22.19
22.20
22.33
22.43
22.28
21.74
20.83
19.71
18.57
17.49
16.41
15.12
13.46
11.41
9.11
6.92
5.17
3.99
3.23
2.46
1.20
-0.87
-3.76
-7.10
-10.38
-13.18
-15.40
-17.28
-19.30
-21.93
-25.42
-29.68
-34.31
-38.73
-42.26
-44.28
-44.34
-42.23
-38.05
-32.24
-25.54
-18.75
-12.58
-7.42
-3.27
0.14
3.13
5.89
8.46
10.65
12.33
13.41
14.02
14.34
14.57
14.84
15.17
15.56
16.08
16.86
18.04
19.59
21.27
22.61
23.16
22.62
21.10
19.06
17.07
15.62
14.81
14.38
13.86
12.82
11.08
8.78
6.20
3.70
1.45
-0.55
-2.47
-4.59
-7.17
-10.37
-14.19
-18.45
-22.89
-27.21
-31.15
-34.46
-36.83
-37.95
-37.48
-35.33
-31.71
-27.20
-22.48
-18.13
-14.34
-10.96
-7.72
-4.45
-1.35
1.23
2.88
3.44
3.11
2.38
1.83
1.97
3.08
5.07
7.63
10.26
12.41
13.73
14.16
13.94
13.47
13.05
12.79
12.50
11.88
10.75
9.14
7.24
5.29
3.44
1.62
-0.30
-2.46
-4.80
-7.20
-9.52
-11.79
-14.17
-16.82
-19.71
-22.52
-24.61
-25.33
-24.24
-21.36
-17.12
-12.19
-7.19
-2.52
1.72
5.66
9.43
13.06
16.43
19.32
21.56
23.11
24.09
24.71
25.24
25.86
26.68
27.70
28.86
30.13
31.49
32.91
34.30
35.48
36.16
36.08
35.09
33.24
30.83
28.23
25.84
23.79
21.97
20.04
17.64
14.51
10.62
6.10
1.22
-3.74
-8.52
-12.91
-16.67
-19.59
-21.43
-22.00
-21.25
-19.28
-16.31
-12.72
-8.93
-5.35
-2.20
0.45
2.70
4.76
6.71
8.50
9.94
10.86
11.20
11.14
11.09
11.44
12.43
13.98
15.74
17.30
18.40
19.01
19.32
19.59
19.94
20.29
20.41
20.03
19.03
17.58
15.95
14.43
13.12
11.93
10.61
8.91
6.74
4.15
1.31
-1.61
-4.50
-7.35
-10.21
-13.06
-15.88
-18.65
-21.46
-24.53
-28.09
-32.21
-36.66
-40.86
-44.03
-45.44
-44.66
-41.73
-37.06
-31.22
-24.88
-18.52
-12.55
-7.23
-2.67
1.06
3.95
6.02
7.29
7.79
7.64
7.11
6.61
6.58
7.37
9.03
11.29
13.71
15.82
17.36
18.29
18.75
18.84
18.60
17.92
16.71
15.01
13.06
11.21
9.72
8.66
7.79
6.76
5.29
3.28
0.87
-1.69
-4.16
-6.45
-8.63
-10.85
-13.33
-16.23
-19.66
-23.64
-28.10
-32.81
-37.39
-41.35
-44.13
-45.21
-44.28
-41.32
-36.59
-30.63
-24.06
-17.45
-11.23
-5.59
-0.64
3.57
6.97
9.53
11.25
12.29
12.86
13.25
13.76
14.56
15.68
17.03
18.47
19.83
21.04
22.07
22.96
23.72
24.26
24.43
24.14
23.45
22.59
21.88
21.51
21.40
21.22
20.58
19.22
17.16
14.73
12.32
10.24
8.59
7.22
5.91
4.49
2.89
1.14
-0.78
-2.94
-5.41
-8.26
-11.45
-14.83
-18.17
-21.26
-23.90
-26.09
-28.02
-30.10
-32.80
-36.49
-41.15
-46.20
-50.64
-53.30
-53.29
-50.36
-44.95
-37.95
-30.35
-22.85
-15.84
-9.48
-3.82
1.02
4.98
8.04
10.31
12.01
13.34
14.43
15.33
16.10
16.76
17.44
18.25
19.32
20.71
22.39
24.18
25.82
27.05
27.70
27.71
27.21
26.40
25.45
24.53
23.73
23.07
22.52
21.90
21.03
19.71
17.91
15.72
13.46
11.40
9.69
8.28
6.96
5.42
3.45
0.98
-1.88
-4.95
-7.99
-10.81
-13.36
-15.72
-18.10
-20.73
-23.80
-27.36
-31.32
-35.39
-39.15
-42.06
-43.59
-43.32
-41.07
-36.94
-31.30
-24.73
-17.83
-11.20
-5.20
-0.07
4.17
7.58
10.28
12.34
13.82
14.77
15.27
15.46
15.57
15.84
16.50
17.61
19.12
20.85
22.53
23.98
25.14
26.09
26.95
27.72
28.17
27.98
26.78
24.51
21.46
18.23
15.44
13.47
12.33
11.62
10.90
9.78
8.16
6.14
3.89
1.52
-0.93
-3.41
-5.82
-7.99
-9.81
-11.36
-12.95
-14.98
-17.73
-21.24
-25.31
-29.63
-33.91
-37.86
-41.16
-43.27
-43.56
-41.44
-36.80
-30.16
-22.61
-15.41
-9.46
-5.06
-1.82
0.86
3.45
6.03
8.29
9.91
10.72
10.92
10.92
11.16
11.87
13.03
14.43
15.87
17.20
18.34
19.28
19.93
20.26
20.27
19.99
19.56
19.11
18.72
18.31
17.75
16.86
15.54
13.83
11.94
10.11
8.55
7.34
6.31
5.25
3.94
2.24
0.25
-1.88
-4.01
-6.02
-7.88
-9.61
-11.27
-12.96
-14.83
-17.06
-19.88
-23.38
-27.42
-31.55
-35.05
-37.22
-37.50
-35.71
-32.08
-27.12
-21.44
-15.64
-10.20
-5.41
-1.44
1.64
3.84
5.22
5.91
6.03
5.73
5.15
4.44
3.71
3.07
2.56
2.16
1.86
1.59
1.42
1.44
1.82
2.61
3.77
5.04
6.05
6.44
5.99
4.74
2.98
1.12
-0.49
-1.66
-2.44
-3.08
-3.86
-5.01
-6.64
-8.75
-11.15
-13.62
-15.88
-17.73
-19.10
-20.11
-21.14
-22.58
-24.74
-27.70
-31.19
-34.69
-37.60
-39.41
-39.80
-38.59
-35.73
-31.24
-25.28
-18.20
-10.65
-3.41
2.75
7.32
10.22
11.77
12.58
13.33
14.57
16.63
19.54
23.12
27.02
30.81
34.14
36.78
38.76
40.33
41.80
43.42
45.14
46.65
47.43
47.09
45.47
42.77
39.36
35.56
31.51
27.20
22.49
17.35
11.88
6.27
0.76
-4.51
-9.44
-13.94
-17.89
-21.19
-23.84
-25.99
-28.00
-30.26
-33.05
-36.48
-40.41
-44.54
-48.49
-51.84
-54.15
-54.94
-53.82
-50.55
-45.29
-38.59
-31.36
-24.55
-18.84
-14.46
-11.17
-8.56
-6.26
-4.17
-2.29
-0.70
0.74
2.29
4.26
6.83
9.93
13.29
16.55
19.43
21.82
23.73
25.27
26.51
27.53
28.35
29.03
29.62
30.12
30.50
30.71
30.68
30.36
29.81
29.14
28.51
28.00
27.59
27.07
26.12
24.50
22.12
19.12
15.79
12.48
9.41
6.57
3.80
0.85
-2.51
-6.43
-10.91
-15.79
-20.67
-25.00
-28.12
-29.43
-28.60
-25.64
-20.96
-15.25
-9.29
-3.80
0.72
4.05
6.23
7.44
7.91
7.82
7.28
6.37
5.28
4.31
3.79
3.95
4.80
6.14
7.63
9.01
10.18
11.14
11.97
12.62
12.94
12.70
11.78
10.22
8.22
6.06
3.95
1.99
0.13
-1.70
-3.60
-5.61
-7.76
-10.04
-12.35
-14.56
-16.51
-18.15
-19.61
-21.15
-23.06
-25.45
-28.09
-30.48
-31.99
-32.12
-30.63
-27.60
-23.31
-18.22
-12.79
-7.55
-2.92
0.80
3.55
5.53
7.03
8.33
9.63
10.93
12.12
13.13
13.91
14.50
15.00
15.52
16.14
16.87
17.68
18.46
19.02
19.20
18.85
18.00
16.78
15.42
14.12
12.98
11.92
10.79
9.42
7.72
5.80
3.78
1.76
-0.36
-2.71
-5.42
-8.40
-11.37
-13.97
-16.07
-17.86
-19.85
-22.57
-26.26
-30.79
-35.64
-40.23
-44.09
-46.91
-48.49
-48.59
-46.94
-43.44
-38.25
-31.92
-25.23
-18.96
-13.55
-9.04
-5.22
-1.79
1.39
4.26
6.63
8.32
9.28
9.69
9.88
10.21
10.98
12.35
14.25
16.58
19.14
21.69
24.01
25.82
26.89
27.13
26.63
25.69
24.62
23.66
22.81
21.93
20.84
19.50
18.04
16.65
15.49
14.58
13.83
13.05
12.15
11.05
9.74
8.19
6.34
4.13
1.58
-1.24
-4.19
-7.12
-9.92
-12.54
-15.01
-17.49
-20.21
-23.43
-27.33
-31.84
-36.61
-40.98
-44.16
-45.45
-44.44
-41.13
-35.91
-29.43
-22.42
-15.50
-9.15
-3.67
0.82
4.35
7.07
9.18
10.87
12.30
13.58
14.75
15.84
16.91
18.00
19.16
20.37
21.59
22.82
24.00
25.10
26.04
26.75
27.13
27.15
26.84
26.20
25.22
23.90
22.32
20.61
19.00
17.67
16.64
15.73
14.65
13.16
11.15
8.74
6.18
3.73
1.52
-0.42
-2.17
-3.84
-5.65
-7.77
-10.39
-13.64
-17.55
-22.05
-26.98
-32.07
-36.94
-41.05
-43.78
-44.52
-42.91
-39.02
-33.36
-26.74
-19.98
-13.64
-7.91
-2.70
2.12
6.47
10.05
12.49
13.61
13.58
13.03
12.73
13.28
14.87
17.22
19.74
21.86
23.22
23.83
23.96
23.98
24.16
24.60
25.23
25.87
26.32
26.46
26.20
25.54
24.54
23.34
22.07
20.78
19.44
17.92
16.09
13.95
11.70
9.60
7.88
6.57
5.45
4.20
2.57
0.51
-1.86
-4.35
-6.83
-9.34
-12.03
-15.02
-18.40
-22.18
-26.35
-30.93
-35.86
-40.88
-45.43
-48.66
-49.69
-48.01
-43.64
-37.25
-29.85
-22.42
-15.63
-9.66
-4.48
-0.02
3.63
6.28
7.81
8.43
8.56
8.79
9.51
10.84
12.54
14.25
15.73
16.90
17.89
18.90
20.01
21.20
22.34
23.25
23.79
23.90
23.55
22.79
21.73
20.49
19.29
18.31
17.66
17.28
16.98
16.50
15.62
14.29
12.65
10.92
9.31
7.87
6.45
4.83
2.83
0.44
-2.12
-4.57
-6.77
-8.83
-11.18
-14.25
-18.31
-23.29
-28.73
-34.00
-38.46
-41.62
-43.14
-42.79
-40.39
-35.98
-29.88
-22.70
-15.30
-8.53
-2.90
1.49
4.95
7.90
10.63
13.12
15.09
16.19
16.29
15.58
14.66
14.17
14.64
16.15
18.43
21.00
23.41
25.43
27.01
28.08
28.51
28.12
26.86
24.90
22.60
20.34
18.31
16.41
14.37
11.94
9.17
6.26
3.54
1.12
-1.10
-3.33
-5.69
-8.14
-10.47
-12.49
-14.22
-15.90
-17.84
-20.34
-23.53
-27.34
-31.60
-36.02
-40.17
-43.52
-45.45
-45.41
-43.15
-38.83
-32.96
-26.28
-19.49
-13.10
-7.41
-2.52
1.57
4.91
7.56
9.59
11.15
12.34
13.31
14.13
14.85
15.46
15.94
16.29
16.55
16.80
17.15
17.69
18.44
19.34
20.25
21.05
21.59
21.78
21.56
20.85
19.65
18.01
16.10
14.11
12.17
10.36
8.63
6.92
5.18
3.37
1.51
-0.44
-2.51
-4.75
-7.18
-9.75
-12.37
-14.90
-17.22
-19.31
-21.29
-23.44
-26.10
-29.58
-33.96
-38.96
-43.88
-47.83
-49.89
-49.51
-46.61
-41.63
-35.34
-28.63
-22.17
-16.33
-11.19
-6.64
-2.54
1.16
4.37
6.92
8.71
9.76
10.32
10.80
11.59
12.90
14.74
16.87
19.09
21.22
23.23
25.12
26.80
28.08
28.71
28.58
27.79
26.69
25.69
25.05
24.82
24.75
24.50
23.74
22.37
20.46
18.28
16.13
14.22
12.67
11.40
10.24
8.97
7.38
5.35
2.85
-0.02
-3.06
-6.01
-8.71
-11.18
-13.57
-16.19
-19.29
-22.99
-27.14
-31.43
-35.39
-38.48
-40.20
-40.12
-38.07
-34.18
-28.97
-23.14
-17.40
-12.20
-7.69
-3.73
-0.16
3.09
5.92
8.19
9.89
11.13
12.23
13.47
15.04
16.89
18.81
20.53
21.85
22.73
23.29
23.80
24.48
25.41
26.41
27.17
27.36
26.79
25.58
24.04
22.53
21.29
20.38
19.69
19.07
18.39
17.63
16.76
15.81
14.75
13.57
12.26
10.81
9.18
7.32
5.18
2.81
0.37
-1.96
-4.08
-6.05
-8.07
-10.44
-13.31
-16.71
-20.53
-24.61
-28.86
-33.18
-37.39
-41.15
-43.91
-45.05
-44.12
-41.02
-36.14
-30.15
-23.88
-17.96
-12.75
-8.27
-4.32
-0.67
2.82
6.05
8.81
10.90
12.24
13.04
13.67
14.50
15.70
17.20
18.70
19.91
20.72
21.26
21.73
22.26
22.73
22.84
22.30
21.08
19.46
17.92
16.90
16.47
16.36
16.09
15.19
13.50
11.16
8.52
5.95
3.72
1.91
0.44
-0.85
-2.11
-3.44
-4.90
-6.53
-8.37
-10.45
-12.81
-15.43
-18.27
-21.30
-24.44
-27.76
-31.35
-35.25
-39.30
-43.02
-45.74
-46.75
-45.64
-42.41
-37.54
-31.79
-25.92
-20.44
-15.56
-11.23
-7.30
-3.74
-0.65
1.82
3.56
4.63
5.29
5.90
6.73
7.95
9.49
11.23
13.03
14.84
16.69
18.61
20.54
22.34
23.83
24.90
25.56
25.89
25.93
25.69
25.12
24.21
23.08
21.97
21.10
20.56
20.20
19.70
18.77
17.31
15.53
13.74
12.20
11.00
9.98
8.92
7.62
5.98
3.98
1.68
-0.85
-3.51
-6.14
-8.60
-10.81
-12.81
-14.77
-16.94
-19.64
-23.08
-27.30
-32.10
-37.01
-41.34
-44.36
-45.50
-44.50
-41.56
-37.23
-32.23
-27.15
-22.39
-18.05
-14.08
-10.44
-7.15
-4.36
-2.14
-0.46
0.90
2.23
3.79
5.70
7.87
10.15
12.37
14.53
16.62
18.65
20.59
22.29
23.63
24.56
25.13
25.43
25.52
25.40
25.05
24.48
23.77
23.04
22.41
21.94
21.62
21.32
20.99
20.57
20.02
19.26
18.20
16.75
14.90
12.75
10.47
8.19
5.93
3.57
1.01
-1.76
-4.67
-7.59
-10.51
-13.56
-16.93
-20.83
-25.25
-29.99
-34.65
-38.70
-41.55
-42.74
-41.97
-39.24
-34.84
-29.35
-23.43
-17.73
-12.65
-8.33
-4.66
-1.43
1.56
4.33
6.79
8.74
10.09
10.93
11.49
12.02
12.68
13.48
14.29
15.04
15.76
16.60
17.63
18.75
19.63
19.94
19.48
18.37
16.99
15.73
14.83
14.23
13.66
12.82
11.52
9.76
7.66
5.43
3.23
1.24
-0.44
-1.81
-2.96
-4.05
-5.27
-6.72
-8.38
-10.19
-12.10
-14.09
-16.22
-18.53
-21.02
-23.59
-26.17
-28.83
-31.79
-35.28
-39.34
-43.66
-47.59
-50.30
-51.09
-49.63
-46.09
-41.02
-35.15
-29.19
-23.61
-18.63
-14.27
-10.44
-7.00
-3.81
-0.73
2.35
5.47
8.54
11.36
13.71
15.46
16.66
17.57
18.44
19.47
20.65
21.83
22.92
23.88
24.86
25.95
27.10
28.08
28.59
28.50
27.91
27.14
26.56
26.33
26.34
26.31
25.87
24.88
23.36
21.56
19.71
17.97
16.39
14.91
13.52
12.21
11.00
9.85
8.59
6.99
4.85
2.16
-0.84
-3.81
-6.47
-8.76
-10.87
-13.16
-15.97
-19.45
-23.57
-28.13
-32.84
-37.38
-41.26
-43.98
-45.03
-44.09
-41.20
-36.73
-31.32
-25.57
-19.98
-14.82
-10.15
-5.95
-2.19
1.15
4.06
6.60
8.79
10.68
12.25
13.49
14.41
15.14
15.86
16.79
18.08
19.68
21.35
22.78
23.68
23.95
23.71
23.23
22.81
22.57
22.44
22.19
21.58
20.49
19.02
17.40
15.86
14.49
13.21
11.82
10.14
8.16
6.11
4.30
2.99
2.21
1.67
0.90
-0.52
-2.74
-5.60
-8.71
-11.65
-14.17
-16.29
-18.22
-20.25
-22.64
-25.52
-28.92
-32.71
-36.64
-40.29
-43.12
-44.62
-44.38
-42.25
-38.36
-33.10
-27.01
-20.67
-14.61
-9.23
-4.74
-1.15
1.66
3.84
5.50
6.66
7.36
7.76
8.13
8.78
9.93
11.49
13.15
14.51
15.36
15.77
16.08
16.63
17.53
18.61
19.55
20.07
20.14
19.88
19.49
19.08
18.66
18.20
17.68
17.12
16.42
15.39
13.74
11.36
8.41
5.40
2.91
1.31
0.53
0.10
-0.60
-2.10
-4.51
-7.60
-10.94
-14.08
-16.72
-18.85
-20.64
-22.37
-24.33
-26.72
-29.63
-33.02
-36.77
-40.67
-44.41
-47.55
-49.52
-49.77
-47.96
-44.08
-38.55
-32.04
-25.30
-18.91
-13.19
-8.19
-3.82
-0.01
3.26
5.96
8.12
9.88
11.50
13.22
15.17
17.22
19.13
20.65
21.71
22.48
23.24
24.25
25.62
27.15
28.60
29.68
30.28
30.46
30.39
30.23
30.05
29.80
29.36
28.61
27.46
25.88
23.98
21.94
19.93
18.16
16.69
15.46
14.28
12.95
11.30
9.26
6.89
4.28
1.48
-1.43
-4.40
-7.27
-9.86
-12.03
-13.71
-15.07
-16.47
-18.33
-21.07
-24.91
-29.76
-35.11
-40.18
-44.07
-46.09
-45.93
-43.75
-40.01
-35.25
-29.90
-24.26
-18.55
-13.09
-8.23
-4.33
-1.50
0.40
1.68
2.73
3.79
5.02
6.46
8.17
10.16
12.41
14.74
16.94
18.84
20.42
21.79
23.09
24.32
25.38
26.06
26.25
25.99
25.51
25.02
24.66
24.42
24.14
23.69
22.97
22.00
20.80
19.41
17.84
16.18
14.56
13.07
11.70
10.36
8.81
6.84
4.42
1.66
-1.13
-3.65
-5.75
-7.50
-9.11
-10.92
-13.22
-16.21
-19.93
-24.29
-29.03
-33.63
-37.48
-39.88
-40.30
-38.58
-34.96
-30.05
-24.57
-19.16
-14.20
-9.82
-5.98
-2.60
0.38
3.03
5.44
7.71
9.91
12.00
13.82
15.17
15.92
16.12
15.96
15.77
15.79
16.20
16.99
18.01
19.03
19.80
20.10
19.84
19.05
17.94
16.78
15.78
15.00
14.29
13.38
12.02
10.13
7.86
5.50
3.35
1.56
0.07
-1.32
-2.86
-4.68
-6.74
-8.89
-10.95
-12.88
-14.77
-16.86
-19.35
-22.37
-25.89
-29.76
-33.67
-37.19
-39.80
-40.97
-40.25
-37.49
-32.91
-27.07
-20.70
-14.59
-9.29
-5.06
-1.87
0.53
2.40
4.01
5.52
7.05
8.65
10.35
12.08
13.70
15.01
15.83
16.13
16.06
15.98
16.27
17.22
18.87
21.01
23.32
25.49
27.33
28.76
29.78
30.41
30.65
30.52
30.12
29.58
29.05
28.57
27.99
26.92
24.82
21.33
16.40
10.43
4.12
-1.85
-7.11
-11.76
-16.11
-20.45
-24.73
-28.60
-31.67
-33.74
-35.01
-35.98
-37.21
-39.06
-41.55
-44.37
-46.98
-48.77
-49.23
-48.03
-45.14
-40.86
-35.68
-30.19
-24.90
-20.12
-16.02
-12.63
-9.89
-7.63
-5.57
-3.42
-1.02
1.58
4.18
6.55
8.58
10.37
12.12
13.98
15.90
17.73
19.26
20.44
21.35
22.09
22.69
23.02
22.90
22.22
21.06
19.59
18.06
16.71
15.70
15.22
15.35
16.11
17.23
18.16
18.16
16.52
12.92
7.54
1.00
-5.84
-12.24
-17.73
-22.19
-25.68
-28.33
-30.16
-31.16
-31.38
-31.10
-30.81
-31.10
-32.35
-34.58
-37.29
-39.64
-40.67
-39.62
-36.19
-30.59
-23.44
-15.62
-7.97
-1.18
4.32
8.47
11.42
13.52
15.16
16.74
18.56
20.81
23.58
26.77
30.26
33.86
37.44
40.95
44.39
47.74
50.95
53.80
55.95
56.96
56.46
54.30
50.57
45.68
40.19
34.67
29.53
24.98
21.01
17.43
14.04
10.62
7.08
3.46
-0.19
-3.82
-7.48
-11.39
-15.80
-20.91
-26.66
-32.70
-38.39
-42.97
-45.73
-46.29
-44.69
-41.39
-37.13
-32.76
-28.92
-25.92
-23.75
-22.19
-20.96
-19.86
-18.81
-17.73
-16.45
-14.74
-12.35
-9.11
-5.12
-0.72
3.65
7.57
10.85
13.50
15.65
17.30
18.40
18.78
18.34
17.19
15.62
13.96
12.43
11.08
9.79
8.44
6.94
5.22
3.20
0.71
-2.46
-6.36
-10.81
-15.40
-19.66
-23.25
-26.07
-28.27
-30.08
-31.64
-32.92
-33.74
-33.76
-32.70
-30.36
-26.74
-22.03
-16.55
-10.69
-4.78
0.94
6.31
11.21
15.47
18.92
21.48
23.21
24.34
25.18
25.94
26.70
27.42
28.06
28.68
29.42
30.38
31.56
32.76
33.79
34.53
35.07
35.55
36.08
36.63
36.97
36.89
36.23
34.95
33.12
30.85
28.24
25.34
22.23
19.01
15.78
12.59
9.44
6.23
2.83
-0.90
-5.02
-9.45
-13.93
-18.04
-21.24
-23.06
-23.23
-21.80
-19.12
-15.73
-12.15
-8.73
-5.60
-2.71
-0.04
2.41
4.56
6.33
7.75
8.93
10.05
11.23
12.44
13.58
14.58
15.51
16.60
18.12
20.24
22.92
25.85
28.52
30.39
31.05
30.31
28.25
25.11
21.18
16.69
11.83
6.76
1.75
-2.94
-7.09
-10.71
-13.93
-17.04
-20.23
-23.54
-26.84
-29.94
-32.74
-35.20
-37.25
-38.73
-39.30
-38.55
-36.17
-32.14
-26.74
-20.50
-14.03
-7.90
-2.57
1.67
4.68
6.52
7.38
7.53
7.29
6.94
6.71
6.72
7.07
7.75
8.70
9.77
10.88
11.96
13.06
14.28
15.62
16.91
17.77
17.76
16.53
14.10
10.76
7.06
3.59
0.73
-1.42
-2.98
-4.18
-5.25
-6.33
-7.53
-8.97
-10.80
-13.23
-16.41
-20.37
-24.95
-29.81
-34.44
-38.36
-41.17
-42.69
-42.86
-41.75
-39.44
-36.05
-31.69
-26.60
-21.07
-15.48
-10.18
-5.45
-1.47
1.62
3.78
5.05
5.61
5.83
6.16
6.99
8.47
10.44
12.54
14.39
15.81
16.79
17.43
17.91
18.33
18.80
19.45
20.38
21.63
23.05
24.36
25.21
25.38
24.81
23.70
22.32
20.87
19.47
18.13
16.82
15.54
14.32
13.17
11.98
10.57
8.66
6.11
2.96
-0.49
-3.80
-6.62
-8.86
-10.72
-12.60
-14.90
-17.79
-21.23
-25.11
-29.30
-33.70
-38.08
-41.96
-44.59
-45.20
-43.32
-39.09
-33.22
-26.80
-20.80
-15.78
-11.78
-8.45
-5.38
-2.31
0.72
3.50
5.81
7.48
8.53
9.05
9.20
9.10
8.92
8.78
8.84
9.26
10.15
11.51
13.21
15.02
16.68
17.96
18.75
19.08
19.07
18.80
18.28
17.47
16.32
14.84
13.14
11.41
9.83
8.51
7.47
6.62
5.79
4.76
3.34
1.38
-1.12
-4.03
-7.11
-10.07
-12.68
-14.91
-16.94
-19.13
-21.88
-25.35
-29.37
-33.38
-36.54
-37.99
-37.22
-34.23
-29.53
-23.99
-18.42
-13.33
-8.88
-4.95
-1.39
1.82
4.53
6.50
7.58
7.85
7.60
7.24
7.10
7.32
7.82
8.43
9.03
9.63
10.33
11.19
12.16
13.07
13.76
14.17
14.31
14.31
14.25
14.08
13.70
13.03
12.13
11.12
10.10
9.09
7.96
6.55
4.83
2.98
1.31
0.05
-0.71
-1.17
-1.69
-2.63
-4.29
-6.76
-9.91
-13.41
-16.84
-19.84
-22.23
-24.12
-25.82
-27.77
-30.33
-33.57
-37.31
-41.04
-44.05
-45.65
-45.31
-42.86
-38.53
-32.94
-26.85
-20.96
-15.69
-11.16
-7.27
-3.92
-1.01
1.42
3.28
4.55
5.32
5.79
6.24
6.88
7.82
8.97
10.15
11.16
11.90
12.38
12.79
13.32
14.11
15.19
16.46
17.77
18.97
19.94
20.64
20.99
20.92
20.38
19.36
17.96
16.35
14.73
13.27
12.00
10.88
9.76
8.48
6.94
5.10
2.97
0.60
-1.90
-4.39
-6.78
-9.05
-11.32
-13.81
-16.78
-20.36
-24.51
-29.02
-33.53
-37.64
-40.89
-42.89
-43.25
-41.76
-38.51
-33.93
-28.69
-23.49
-18.73
-14.38
-10.17
-5.80
-1.33
2.79
5.93
7.64
7.95
7.44
6.94
7.07
8.01
9.57
11.37
13.17
14.96
16.84
18.82
20.74
22.28
23.17
23.31
22.88
22.21
21.65
21.43
21.54
21.78
21.87
21.54
20.62
19.07
17.01
14.62
12.11
9.64
7.38
5.37
3.57
1.88
0.06
-2.08
-4.64
-7.51
-10.39
-13.00
-15.21
-17.21
-19.43
-22.35
-26.21
-30.94
-36.08
-40.92
-44.68
-46.68
-46.47
-43.95
-39.33
-33.19
-26.24
-19.18
-12.52
-6.54
-1.34
3.01
6.39
8.71
10.00
10.52
10.71
11.04
11.78
12.95
14.35
15.72
16.93
17.98
18.97
19.99
21.01
21.95
22.77
23.51
24.28
25.16
26.05
26.77
27.04
26.70
25.78
24.46
22.94
21.31
19.50
17.39
14.87
12.04
9.10
6.27
3.71
1.39
-0.82
-3.05
-5.33
-7.60
-9.75
-11.72
-13.58
-15.51
-17.79
-20.74
-24.58
-29.29
-34.61
-39.97
-44.62
-47.77
-48.83
-47.57
-44.14
-39.06
-32.95
-26.42
-19.93
-13.72
-7.90
-2.54
2.26
6.39
9.76
12.37
14.28
15.65
16.62
17.32
17.78
18.05
18.23
18.44
18.85
19.62
20.79
22.32
24.06
25.75
27.13
28.01
28.28
27.94
27.12
26.01
24.82
23.75
22.95
22.50
22.37
22.31
21.98
21.02
19.24
16.78
13.97
11.28
8.98
7.02
5.07
2.71
-0.29
-3.79
-7.33
-10.44
-12.87
-14.81
-16.81
-19.47
-23.19
-27.95
-33.25
-38.32
-42.25
-44.30
-43.97
-41.13
-36.03
-29.19
-21.37
-13.40
-6.03
0.31
5.48
9.59
12.91
15.61
17.74
19.25
20.16
20.56
20.69
20.85
21.25
21.96
22.97
24.18
25.58
27.09
28.62
29.94
30.75
30.83
30.11
28.82
27.30
25.94
24.99
24.49
24.21
23.81
22.94
21.41
19.20
16.53
13.75
11.15
8.88
6.91
5.13
3.34
1.42
-0.73
-3.17
-5.92
-8.94
-12.05
-15.09
-17.92
-20.58
-23.39
-26.69
-30.65
-35.07
-39.25
-42.17
-42.92
-40.95
-36.38
-29.86
-22.35
-14.75
-7.74
-1.69
3.27
7.09
9.80
11.44
12.19
12.39
12.41
12.62
13.22
14.21
15.39
16.53
17.50
18.30
19.14
20.16
21.39
22.64
23.55
23.82
23.32
22.27
21.03
19.97
19.18
18.51
17.68
16.54
15.19
13.87
12.80
12.00
11.28
10.37
9.13
7.62
6.04
4.61
3.36
2.07
0.44
-1.83
-4.76
-8.12
-11.49
-14.47
-16.79
-18.49
-19.85
-21.27
-23.14
-25.66
-28.84
-32.58
-36.69
-40.83
-44.52
-47.15
-48.06
-46.84
-43.48
-38.42
-32.39
-26.11
-20.08
-14.48
-9.38
-4.82
-0.93
2.11
4.23
5.47
6.07
6.31
6.53
6.94
7.72
8.93
10.54
12.38
14.24
15.94
17.37
18.52
19.45
20.20
20.72
20.96
20.87
20.50
20.01
19.59
19.38
19.37
19.47
19.50
19.32
18.87
18.12
17.08
15.76
14.18
12.43
10.68
9.14
7.86
6.73
5.47
3.82
1.75
-0.51
-2.61
-4.36
-5.85
-7.51
-9.76
-12.84
-16.62
-20.79
-24.95
-28.83
-32.20
-34.72
-35.95
-35.41
-32.85
-28.45
-22.82
-16.79
-11.09
-6.15
-2.04
1.34
4.18
6.58
8.58
10.21
11.48
12.35
12.78
12.76
12.42
12.02
11.94
12.46
13.70
15.52
17.65
19.68
21.29
22.23
22.37
21.70
20.33
18.49
16.48
14.62
13.19
12.32
11.96
11.80
11.47
10.53
8.73
6.06
2.83
-0.46
-3.32
-5.44
-6.83
-7.77
-8.63
-9.75
-11.29
-13.27
-15.58
-18.13
-20.83
-23.62
-26.46
-29.39
-32.46
-35.73
-39.13
-42.38
-45.00
-46.44
-46.26
-44.27
-40.63
-35.68
-29.87
-23.72
-17.63
-12.06
-7.42
-3.94
-1.62
-0.22
0.69
1.54
2.55
3.70
4.82
5.72
6.37
6.89
7.49
8.34
9.48
10.83
12.30
13.86
15.52
17.34
19.23
21.00
22.32
22.89
22.61
21.64
20.37
19.25
18.58
18.36
18.28
17.90
16.88
15.11
12.89
10.71
9.04
8.07
7.59
7.08
5.98
3.97
1.15
-2.08
-5.19
-7.83
-9.96
-11.83
-13.75
-15.98
-18.65
-21.71
-25.12
-28.89
-33.01
-37.37
-41.61
-45.10
-47.14
-47.13
-44.88
-40.65
-35.17
-29.29
-23.75
-18.94
-14.88
-11.34
-8.10
-5.06
-2.29
0.12
2.13
3.81
5.31
6.72
8.03
9.19
10.17
11.02
11.94
13.17
14.89
17.15
19.80
22.47
24.76
26.36
27.15
27.25
26.87
26.25
25.55
24.81
24.10
23.51
23.13
23.01
22.94
22.63
21.75
20.13
17.88
15.33
12.87
10.74
8.99
7.46
5.87
4.01
1.83
-0.65
-3.27
-5.93
-8.59
-11.28
-14.08
-17.09
-20.39
-24.07
-28.15
-32.59
-37.12
-41.27
-44.36
-45.76
-45.10
-42.42
-38.19
-33.08
-27.71
-22.46
-17.46
-12.68
-8.14
-3.97
-0.43
2.32
4.26
5.60
6.68
7.85
9.35
11.29
13.63
16.22
18.81
21.11
22.84
23.90
24.42
24.72
25.21
26.09
27.25
28.34
28.89
28.67
27.77
26.53
25.29
24.21
23.19
21.97
20.45
18.67
16.89
15.35
14.08
12.97
11.75
10.21
8.31
6.16
3.84
1.39
-1.26
-4.23
-7.55
-11.09
-14.57
-17.70
-20.27
-22.34
-24.20
-26.33
-29.16
-32.93
-37.45
-42.11
-46.02
-48.30
-48.36
-46.09
-41.86
-36.33
-30.24
-24.22
-18.67
-13.78
-9.53
-5.84
-2.54
0.46
3.23
5.72
7.89
9.65
10.99
11.98
12.78
13.58
14.63
16.06
17.85
19.83
21.68
23.13
24.06
24.60
25.06
25.78
26.88
28.28
29.70
30.85
31.52
31.69
31.40
30.68
29.55
28.03
26.28
24.59
23.24
22.39
21.90
21.41
20.54
19.05
17.01
14.67
12.31
10.09
8.00
5.92
3.72
1.31
-1.33
-4.16
-7.14
-10.19
-13.25
-16.24
-19.19
-22.19
-25.42
-29.09
-33.32
-38.01
-42.79
-47.00
-49.87
-50.71
-49.19
-45.51
-40.26
-34.30
-28.39
-22.96
-18.10
-13.68
-9.59
-5.80
-2.46
0.28
2.32
3.71
4.59
5.22
5.89
6.87
8.39
10.50
13.04
15.71
18.24
20.40
22.18
23.71
25.11
26.46
27.69
28.71
29.46
30.03
30.54
31.13
31.76
32.27
32.37
31.88
30.74
29.13
27.30
25.50
23.86
22.40
21.06
19.76
18.47
17.13
15.67
13.98
11.98
9.70
7.29
4.91
2.67
0.53
-1.74
-4.37
-7.50
-10.98
-14.48
-17.59
-20.06
-21.96
-23.69
-25.78
-28.64
-32.30
-36.31
-39.88
-42.16
-42.52
-40.76
-37.15
-32.24
-26.67
-20.98
-15.57
-10.65
-6.32
-2.59
0.56
3.19
5.33
7.06
8.43
9.57
10.67
11.97
13.58
15.51
17.54
19.32
20.54
21.03
20.90
20.47
20.10
20.04
20.31
20.68
20.89
20.71
20.11
19.17
18.01
16.75
15.37
13.86
12.25
10.61
9.09
7.73
6.52
5.36
4.11
2.71
1.18
-0.47
-2.25
-4.22
-6.41
-8.77
-11.21
-13.60
-15.87
-18.05
-20.23
-22.53
-25.04
-27.87
-31.07
-34.62
-38.42
-42.10
-45.16
-47.02
-47.21
-45.56
-42.27
-37.76
-32.51
-26.92
-21.34
-16.08
-11.44
-7.69
-4.94
-3.04
-1.65
-0.31
1.25
3.09
5.03
6.81
8.24
9.29
10.15
11.03
12.06
13.27
14.64
16.14
17.83
19.74
21.82
23.85
25.49
26.40
26.41
25.72
24.72
23.93
23.68
23.93
24.35
24.46
23.94
22.77
21.25
19.79
18.69
17.99
17.47
16.80
15.72
14.21
12.45
10.73
9.20
7.82
6.32
4.41
1.84
-1.40
-5.09
-8.92
-12.49
-15.56
-18.02
-19.99
-21.77
-23.71
-26.19
-29.41
-33.42
-38.09
-43.09
-47.88
-51.83
-54.23
-54.49
-52.43
-48.34
-43.02
-37.45
-32.40
-28.16
-24.51
-21.03
-17.40
-13.67
-10.14
-7.20
-4.91
-3.05
-1.20
0.88
3.17
5.35
7.11
8.40
9.49
10.74
12.41
14.44
16.51
18.23
19.40
20.03
20.36
20.67
21.16
21.86
22.73
23.65
24.56
25.38
26.00
26.32
26.16
25.40
24.02
22.13
19.98
17.86
16.04
14.66
13.69
12.94
12.15
11.10
9.57
7.47
4.83
1.76
-1.59
-5.00
-8.30
-11.36
-14.12
-16.59
-18.93
-21.38
-24.18
-27.48
-31.21
-34.97
-38.10
-39.91
-39.86
-37.84
-34.19
-29.55
-24.62
-19.87
-15.52
-11.55
-7.85
-4.43
-1.35
1.29
3.51
5.41
7.19
8.97
10.75
12.38
13.67
14.47
14.79
14.82
14.82
15.08
15.77
16.94
18.40
19.84
20.91
21.39
21.24
20.61
19.76
18.89
18.11
17.33
16.41
15.23
13.76
12.07
10.32
8.67
7.14
5.64
4.00
2.09
-0.09
-2.39
-4.62
-6.64
-8.46
-10.29
-12.40
-14.96
-17.92
-21.05
-24.11
-27.06
-30.17
-33.81
-38.18
-43.04
-47.58
-50.70
-51.45
-49.45
-45.09
-39.32
-33.25
-27.67
-22.84
-18.59
-14.62
-10.73
-6.95
-3.46
-0.47
1.96
3.84
5.24
6.31
7.20
8.13
9.35
11.01
13.17
15.64
18.18
20.59
22.83
24.94
26.91
28.64
29.92
30.58
30.63
30.28
29.86
29.60
29.53
29.49
29.23
28.54
27.37
25.86
24.19
22.60
21.19
19.96
18.85
17.69
16.32
14.64
12.68
10.53
8.31
6.05
3.71
1.20
-1.55
-4.49
-7.50
-10.40
-13.07
-15.50
-17.88
-20.56
-23.88
-28.09
-33.19
-38.87
-44.54
-49.47
-52.90
-54.24
-53.19
-49.81
-44.58
-38.24
-31.66
-25.52
-20.19
-15.68
-11.77
-8.15
-4.64
-1.24
1.96
4.80
7.23
9.24
10.95
12.50
14.07
15.87
18.09
20.76
23.76
26.77
29.44
31.47
32.72
33.25
33.23
32.87
32.40
32.04
31.98
32.27
32.79
33.24
33.21
32.45
31.03
29.31
27.69
26.41
25.36
24.22
22.64
20.49
17.90
15.11
12.27
9.39
6.43
3.37
0.33
-2.52
-5.06
-7.36
-9.58
-11.92
-14.48
-17.27
-20.32
-23.69
-27.47
-31.69
-36.20
-40.57
-44.21
-46.46
-46.87
-45.26
-41.81
-36.86
-30.90
-24.39
-17.79
-11.47
-5.76
-0.91
2.99
6.02
8.39
10.29
11.87
13.17
14.20
15.01
15.75
16.63
17.75
19.10
20.46
21.60
22.34
22.70
22.79
22.83
22.96
23.22
23.53
23.77
23.82
23.61
23.12
22.39
21.52
20.59
19.69
18.90
18.21
17.56
16.79
15.63
13.91
11.60
8.87
6.14
3.84
2.28
1.38
0.69
-0.37
-2.23
-4.98
-8.33
-11.85
-15.15
-18.15
-20.97
-23.85
-26.97
-30.40
-34.20
-38.34
-42.77
-47.28
-51.46
-54.70
-56.36
-55.96
-53.35
-48.71
-42.51
-35.41
-28.14
-21.38
-15.67
-11.21
-7.83
-5.11
-2.56
0.11
2.89
5.60
7.97
9.92
11.57
13.16
14.86
16.72
18.61
20.38
21.95
23.36
24.72
26.11
27.49
28.73
29.70
30.39
30.90
31.35
31.78
32.11
32.17
31.79
30.90
29.60
28.04
26.40
24.77
23.17
21.63
20.19
18.94
17.90
16.99
16.05
14.97
13.70
12.30
10.80
9.15
7.19
4.68
1.56
-2.09
-5.93
-9.56
-12.65
-15.13
-17.20
-19.28
-21.82
-25.15
-29.32
-34.07
-38.90
-43.12
-46.03
-47.05
-45.81
-42.37
-37.09
-30.66
-23.85
-17.37
-11.69
-6.97
-3.11
0.08
2.81
5.19
7.24
8.98
10.47
11.83
13.23
14.71
16.28
17.84
19.26
20.44
21.39
22.17
22.84
23.46
23.95
24.21
24.11
23.64
22.84
21.87
20.88
19.96
19.14
18.27
17.21
15.81
14.08
12.11
10.10
8.26
6.67
5.32
4.02
2.53
0.61
-1.84
-4.76
-7.88
-10.88
-13.51
-15.70
-17.64
-19.59
-21.79
-24.30
-27.12
-30.16
-33.46
-37.09
-41.00
-44.91
-48.21
-50.19
-50.26
-48.17
-44.11
-38.62
-32.36
-25.95
-19.86
-14.39
-9.72
-5.90
-2.90
-0.60
1.16
2.60
3.98
5.52
7.35
9.48
11.70
13.80
15.60
17.09
18.35
19.51
20.62
21.64
22.55
23.36
24.17
25.03
25.87
26.50
26.71
26.45
25.90
25.37
25.06
24.91
24.58
23.70
22.14
20.09
18.00
16.22
14.86
13.78
12.67
11.32
9.71
7.96
6.10
4.04
1.52
-1.65
-5.40
-9.44
-13.30
-16.67
-19.51
-22.03
-24.58
-27.51
-31.00
-35.10
-39.69
-44.44
-48.73
-51.79
-52.83
-51.38
-47.56
-42.04
-35.80
-29.70
-24.18
-19.24
-14.70
-10.41
-6.46
-3.02
-0.19
2.15
4.27
6.42
8.68
10.93
12.99
14.79
16.46
18.22
20.16
22.23
24.18
25.70
26.63
26.99
27.02
27.01
27.14
27.46
27.82
28.01
27.89
27.45
26.70
25.75
24.63
23.38
22.01
20.55
19.00
17.37
15.63
13.77
11.84
9.85
7.81
5.66
3.34
0.76
-2.02
-4.88
-7.69
-10.45
-13.32
-16.57
-20.43
-24.92
-29.83
-34.79
-39.38
-43.23
-46.06
-47.60
-47.61
-45.90
-42.40
-37.32
-31.15
-24.60
-18.36
-12.94
-8.46
-4.77
-1.53
1.52
4.38
6.89
8.84
10.23
11.26
12.34
13.75
15.61
17.70
19.60
20.99
21.75
22.08
22.31
22.74
23.44
24.19
24.67
24.56
23.80
22.58
21.21
19.94
18.85
17.83
16.75
15.46
13.93
12.20
10.37
8.51
6.72
5.05
3.52
2.10
0.63
-1.09
-3.20
-5.73
-8.53
-11.42
-14.20
-16.88
-19.55
-22.41
-25.61
-29.23
-33.21
-37.39
-41.51
-45.20
-48.05
-49.67
-49.81
-48.36
-45.38
-41.11
-35.87
-29.99
-23.85
-17.74
-11.92
-6.62
-2.02
1.76
4.63
6.61
7.82
8.52
9.03
9.68
10.71
12.25
14.23
16.46
18.76
20.93
22.93
24.76
26.45
27.97
29.23
30.10
30.48
30.42
30.04
29.55
29.06
28.53
27.86
26.95
25.81
24.57
23.39
22.42
21.65
20.99
20.27
19.35
18.09
16.39
14.18
11.49
8.45
5.36
2.53
0.21
-1.54
-2.91
-4.25
-5.98
-8.38
-11.54
-15.31
-19.31
-23.20
-26.68
-29.75
-32.65
-35.75
-39.37
-43.50
-47.69
-51.12
-52.94
-52.55
-49.85
-45.23
-39.31
-32.75
-25.97
-19.26
-12.83
-6.99
-2.07
1.67
4.21
5.92
7.31
8.87
10.75
12.75
14.48
15.65
16.28
16.73
17.49
18.94
21.07
23.59
26.05
28.09
29.53
30.40
30.77
30.68
30.09
29.03
27.61
26.10
24.78
23.82
23.18
22.69
22.17
21.45
20.43
19.08
17.33
15.15
12.52
9.52
6.32
3.15
0.13
-2.66
-5.29
-7.86
-10.43
-13.03
-15.65
-18.38
-21.36
-24.79
-28.77
-33.26
-37.97
-42.42
-45.96
-47.96
-47.98
-45.85
-41.74
-36.17
-29.82
-23.37
-17.37
-12.07
-7.50
-3.53
0.00
3.20
6.03
8.36
10.13
11.37
12.27
13.09
14.03
15.15
16.33
17.39
18.20
18.81
19.48
20.46
21.88
23.60
25.24
26.35
26.60
25.97
24.73
23.33
22.23
21.64
21.54
21.67
21.64
21.13
20.01
18.26
15.99
13.37
10.60
7.88
5.47
3.60
2.37
1.69
1.22
0.48
-0.99
-3.37
-6.51
-10.04
-13.49
-16.59
-19.30
-21.81
-24.42
-27.44
-31.08
-35.43
-40.34
-45.34
-49.72
-52.68
-53.57
-52.09
-48.42
-43.13
-36.92
-30.42
-24.09
-18.20
-12.94
-8.49
-4.96
-2.40
-0.68
0.51
1.53
2.72
4.23
6.05
8.07
10.14
12.20
14.26
16.34
18.41
20.41
22.18
23.63
24.81
25.77
26.62
27.32
27.75
27.71
27.09
25.97
24.65
23.53
22.89
22.81
23.03
23.16
22.76
21.72
20.15
18.42
16.81
15.32
13.67
11.42
8.37
4.69
0.87
-2.54
-5.23
-7.31
-9.17
-11.26
-13.88
-17.14
-21.00
-25.36
-30.10
-35.00
-39.65
-43.44
-45.73
-46.02
-44.10
-40.16
-34.66
-28.24
-21.49
-14.89
-8.75
-3.23
1.54
5.49
8.52
10.61
11.88
12.57
13.00
13.49
14.16
14.98
15.82
16.59
17.23
17.84
18.52
19.34
20.25
21.11
21.73
21.98
21.85
21.40
20.82
20.28
19.88
19.55
19.15
18.45
17.26
15.50
13.23
10.62
7.93
5.40
3.27
1.63
0.41
-0.69
-2.08
-4.12
-6.90
-10.20
-13.55
-16.52
-18.88
-20.75
-22.45
-24.41
-26.97
-30.34
-34.56
-39.45
-44.58
-49.28
-52.71
-54.08
-52.92
-49.23
-43.45
-36.34
-28.72
-21.33
-14.70
-9.11
-4.59
-1.01
1.93
4.46
6.74
8.75
10.47
11.91
13.16
14.48
16.02
17.81
19.75
21.64
23.33
24.83
26.22
27.61
28.98
30.25
31.24
31.83
31.98
31.69
31.02
30.04
28.82
27.47
26.11
24.87
23.80
22.88
21.96
20.94
19.81
18.61
17.36
16.01
14.37
12.23
9.47
6.15
2.51
-1.17
-4.63
-7.75
-10.52
-13.01
-15.37
-17.73
-20.26
-23.17
-26.69
-30.91
-35.71
-40.63
-44.92
-47.70
-48.26
-46.35
-42.24
-36.61
-30.31
-24.02
-18.12
-12.65
-7.55
-2.73
1.70
5.56
8.68
11.06
12.85
14.31
15.63
16.94
18.20
19.34
20.31
21.14
21.98
22.94
24.09
25.31
26.31
26.78
26.54
25.67
24.43
23.19
22.24
21.65
21.24
20.77
20.02
18.96
17.69
16.33
14.84
13.05
10.76
7.98
4.93
2.05
-0.32
-2.09
-3.49
-4.92
-6.77
-9.17
-12.08
-15.35
-18.94
-22.92
-27.41
-32.33
-37.42
-42.14
-45.90
-48.17
-48.72
-47.50
-44.72
-40.62
-35.52
-29.76
-23.67
-17.56
-11.74
-6.48
-1.98
1.59
4.20
5.93
7.01
7.70
8.32
9.08
10.15
11.61
13.41
15.46
17.63
19.75
21.66
23.22
24.40
25.22
25.79
26.25
26.75
27.26
27.62
27.58
26.92
25.60
23.90
22.23
21.03
20.45
20.30
20.13
19.45
18.00
15.90
13.49
11.17
9.07
7.11
5.02
2.53
-0.42
-3.66
-6.95
-10.04
-12.90
-15.68
-18.62
-21.89
-25.50
-29.34
-33.25
-37.19
-41.24
-45.43
-49.56
-53.10
-55.27
-55.32
-52.89
-48.21
-42.01
-35.28
-28.82
-23.03
-17.91
-13.17
-8.64
-4.36
-0.59
2.37
4.40
5.73
6.76
7.94
9.49
11.33
13.23
14.98
16.65
18.49
20.83
23.68
26.75
29.43
31.12
31.58
31.04
30.04
29.12
28.60
28.47
28.52
28.59
28.58
28.51
28.39
28.08
27.39
26.19
24.49
22.51
20.52
18.69
17.05
15.45
13.65
11.43
8.68
5.40
1.70
-2.27
-6.33
-10.29
-13.98
-17.29
-20.20
-22.81
-25.43
-28.45
-32.22
-36.81
-41.88
-46.77
-50.55
-52.42
-51.88
-48.87
-43.68
-36.89
-29.24
-21.52
-14.42
-8.40
-3.63
0.04
2.92
5.33
7.53
9.60
11.59
13.56
15.57
17.65
19.73
21.68
23.35
24.65
25.60
26.33
26.92
27.46
27.89
28.16
28.12
27.65
26.65
25.16
23.30
21.35
19.58
18.16
17.09
16.16
15.12
13.74
11.97
9.92
7.77
5.72
3.85
2.06
0.19
-1.97
-4.50
-7.31
-10.21
-12.98
-15.54
-17.99
-20.50
-23.28
-26.49
-30.14
-34.24
-38.71
-43.49
-48.30
-52.66
-55.82
-57.06
-55.87
-52.26
-46.75
-40.26
-33.67
-27.59
-22.25
-17.56
-13.30
-9.35
-5.64
-2.23
0.84
3.58
6.04
8.27
10.28
12.05
13.57
14.94
16.28
17.83
19.76
22.12
24.71
27.20
29.19
30.41
30.85
30.75
30.47
30.35
30.54
31.04
31.72
32.44
33.00
33.22
32.86
31.81
30.07
27.86
25.44
23.10
20.93
18.89
16.83
14.61
12.20
9.62
6.90
4.08
1.11
-1.98
-5.15
-8.33
-11.49
-14.70
-18.08
-21.74
-25.69
-29.90
-34.27
-38.73
-43.21
-47.60
-51.57
-54.62
-56.03
-55.23
-52.01
-46.75
-40.22
-33.33
-26.80
-20.84
-15.34
-10.03
-4.81
0.20
4.71
8.48
11.48
13.90
16.02
17.98
19.74
21.14
22.06
22.57
22.97
23.65
24.83
26.45
28.14
29.45
30.07
30.03
29.58
29.04
28.58
28.19
27.73
27.06
26.18
25.20
24.23
23.28
22.22
20.88
19.10
16.95
14.63
12.39
10.34
8.43
6.42
4.03
1.12
-2.27
-5.86
-9.32
-12.38
-15.00
-17.36
-19.80
-22.63
-26.07
-30.17
-34.80
-39.72
-44.55
-48.85
-52.17
-54.09
-54.31
-52.64
-49.15
-44.13
-38.12
-31.75
-25.61
-20.06
-15.13
-10.66
-6.42
-2.35
1.43
4.67
7.23
9.18
10.80
12.41
14.19
16.09
17.96
19.64
21.13
22.57
24.13
25.86
27.62
29.21
30.43
31.18
31.46
31.30
30.71
29.77
28.59
27.40
26.44
25.81
25.38
24.85
23.89
22.36
20.30
17.96
15.61
13.50
11.68
10.11
8.61
7.05
5.28
3.16
0.61
-2.41
-5.81
-9.39
-12.86
-15.97
-18.62
-20.95
-23.38
-26.39
-30.32
-35.21
-40.70
-46.17
-50.89
-54.23
-55.74
-55.14
-52.33
-47.47
-40.99
-33.54
-25.92
-18.85
-12.70
-7.55
-3.16
0.75
4.37
7.69
10.51
12.65
14.08
14.99
15.75
16.72
18.07
19.73
21.44
22.97
24.21
25.28
26.39
27.65
28.98
30.15
30.89
31.13
30.92
30.47
29.89
29.10
27.96
26.39
24.48
22.42
20.45
18.53
16.51
14.14
11.31
8.17
5.04
2.29
0.05
-1.85
-3.83
-6.30
-9.46
-13.25
-17.35
-21.51
-25.61
-29.74
-34.12
-39.00
-44.54
-50.75
-57.46
-64.21
-70.30
-74.80
-76.66
-75.09
-69.73
-60.88
-49.51
-37.01
-24.85
-14.18
-5.65
0.67
5.07
8.00
9.87
11.00
11.64
12.07
12.57
13.36
14.59
16.17
17.93
19.62
21.06
22.23
23.28
24.39
25.76
27.44
29.28
30.94
31.97
31.88
30.41
27.56
23.69
19.37
15.23
11.80
9.45
8.30
8.25
8.99
10.06
10.91
11.10
10.43
8.97
7.03
5.01
3.20
1.74
0.52
-0.70
-2.16
-4.12
-6.72
-9.89
-13.44
-16.98
-20.11
-22.64
-24.72
-26.89
-29.86
-34.10
-39.51
-45.30
-50.29
-53.23
-53.33
-50.44
-45.06
-38.04
-30.29
-22.55
-15.36
-8.97
-3.44
1.37
5.76
10.06
14.44
18.88
23.08
26.56
28.97
30.17
30.37
29.99
29.44
28.96
28.58
28.22
27.85
27.57
27.54
27.86
28.43
29.03
29.33
29.09
28.29
27.06
25.63
24.17
22.71
21.17
19.38
17.16
14.42
11.21
7.69
4.10
0.69
-2.32
-4.85
-6.89
-8.56
-10.00
-11.44
-13.17
-15.53
-18.69
-22.62
-26.92
-30.88
-33.59
-34.20
-32.18
-27.55
-20.87
-13.07
-5.18
2.06
8.29
13.53
18.00
21.82
25.03
27.55
29.33
30.40
31.01
31.37
31.69
32.06
32.54
33.23
34.23
35.63
37.38
39.25
40.92
42.05
42.41
41.97
40.79
39.06
36.97
34.72
32.44
30.15
27.84
25.42
22.81
19.99
16.98
13.86
10.67
7.38
3.89
0.17
-3.74
-7.66
-11.34
-14.66
-17.72
-20.88
-24.66
-29.46
-35.29
-41.68
-47.67
-52.11
-54.05
-53.05
-49.33
-43.62
-36.93
-30.20
-24.08
-18.88
-14.61
-11.06
-7.97
-5.15
-2.49
-0.04
2.03
3.57
4.55
5.07
5.37
5.77
6.50
7.57
8.86
10.15
11.21
12.02
12.66
13.32
14.15
15.16
16.21
17.06
17.46
17.24
16.39
15.02
13.27
11.28
9.13
6.89
4.59
2.25
-0.13
-2.58
-5.10
-7.67
-10.20
-12.60
-14.81
-16.86
-18.89
-21.13
-23.89
-27.45
-31.92
-37.10
-42.46
-47.13
-50.16
-50.70
-48.34
-43.26
-36.19
-28.16
-20.27
-13.35
-7.81
-3.65
-0.61
1.68
3.51
5.06
6.43
7.64
8.76
9.85
10.89
11.83
12.53
13.01
13.39
13.99
15.16
17.05
19.48
21.99
24.01
25.14
25.31
24.78
23.90
22.90
21.81
20.52
18.98
17.31
15.73
14.52
13.69
13.06
12.26
10.99
9.06
6.49
3.40
-0.06
-3.69
-7.26
-10.53
-13.40
-15.93
-18.45
-21.42
-25.23
-29.96
-35.26
-40.43
-44.59
-46.90
-46.80
-44.19
-39.37
-32.99
-25.78
-18.44
-11.40
-4.87
1.09
6.36
10.80
14.25
16.67
18.24
19.33
20.32
21.40
22.51
23.42
23.87
23.78
23.31
22.75
22.50
22.79
23.67
24.92
26.17
26.99
27.04
26.16
24.39
21.92
19.10
16.31
13.93
12.21
11.18
10.64
10.17
9.34
7.91
5.89
3.55
1.24
-0.84
-2.79
-4.82
-7.22
-10.05
-13.16
-16.27
-19.16
-21.87
-24.59
-27.64
-31.30
-35.62
-40.50
-45.60
-50.42
-54.35
-56.72
-56.97
-54.75
-50.12
-43.62
-36.03
-28.24
-20.95
-14.52
-8.98
-4.20
0.01
3.69
6.79
9.23
11.00
12.18
12.98
13.59
14.14
14.65
15.13
15.67
16.43
17.66
19.43
21.62
23.88
25.78
26.96
27.30
26.93
26.12
25.16
24.28
23.58
23.02
22.46
21.74
20.64
19.04
16.96
14.56
12.16
10.07
8.43
7.19
6.12
4.90
3.24
1.01
-1.84
-5.21
-8.90
-12.70
-16.37
-19.66
-22.47
-24.80
-26.92
-29.31
-32.42
-36.46
-41.13
-45.65
-48.91
-49.96
-48.32
-44.17
-38.25
-31.49
-24.72
-18.44
-12.87
-8.07
-4.05
-0.85
1.57
3.28
4.45
5.27
5.86
6.32
6.75
7.27
7.97
9.00
10.35
12.03
13.95
16.07
18.34
20.68
22.97
25.00
26.50
27.24
27.10
26.14
24.59
22.80
21.08
19.65
18.55
17.66
16.76
15.68
14.35
12.84
11.33
10.00
8.98
8.26
7.69
7.06
6.10
4.63
2.55
-0.06
-3.03
-6.15
-9.29
-12.45
-15.68
-19.05
-22.51
-25.92
-29.17
-32.27
-35.40
-38.71
-42.09
-44.96
-46.44
-45.61
-41.95
-35.61
-27.44
-18.71
-10.66
-4.16
0.42
3.29
4.98
6.14
7.29
8.65
10.20
11.76
13.14
14.31
15.37
16.43
17.49
18.43
19.16
19.72
20.33
21.20
22.45
23.92
25.26
26.12
26.27
25.72
24.61
23.18
21.61
20.06
18.63
17.41
16.45
15.69
14.98
14.16
13.06
11.66
9.97
8.08
6.07
4.07
2.16
0.42
-1.25
-3.04
-5.15
-7.75
-10.76
-13.93
-16.93
-19.54
-21.78
-23.88
-26.23
-29.23
-33.13
-37.90
-43.24
-48.53
-52.96
-55.69
-56.15
-54.18
-50.07
-44.45
-38.03
-31.38
-24.85
-18.65
-12.92
-7.87
-3.70
-0.50
1.79
3.40
4.60
5.60
6.50
7.31
8.01
8.70
9.60
10.93
12.77
15.02
17.33
19.36
20.90
22.02
23.01
24.22
25.82
27.64
29.31
30.37
30.55
29.86
28.52
26.88
25.18
23.53
21.92
20.30
18.67
17.10
15.66
14.32
12.95
11.33
9.30
6.84
4.10
1.36
-1.12
-3.21
-5.00
-6.73
-8.76
-11.30
-14.37
-17.78
-21.22
-24.51
-27.68
-31.02
-34.84
-39.24
-43.90
-48.08
-50.80
-51.21
-48.93
-44.20
-37.81
-30.74
-23.78
-17.35
-11.45
-5.92
-0.65
4.23
8.46
11.83
14.25
15.86
16.89
17.51
17.86
18.01
18.12
18.43
19.23
20.67
22.70
25.02
27.28
29.18
30.48
31.08
30.98
30.27
29.14
27.81
26.52
25.40
24.42
23.43
22.28
20.89
19.21
17.28
15.18
13.00
10.84
8.84
7.07
5.50
3.96
2.18
-0.04
-2.79
-6.00
-9.51
-13.10
-16.58
-19.81
-22.65
-25.18
-27.57
-30.17
-33.38
-37.42
-42.17
-47.12
-51.45
-54.27
-54.87
-52.93
-48.55
-42.21
-34.64
-26.68
-19.05
-12.28
-6.61
-2.11
1.26
3.61
5.07
5.86
6.33
6.93
8.11
10.15
12.99
16.23
19.27
21.55
22.95
23.73
24.47
25.74
27.70
30.06
32.19
33.52
33.83
33.32
32.40
31.35
30.15
28.60
26.55
24.13
21.76
19.92
18.91
18.60
18.59
18.38
17.59
16.07
13.82
11.03
7.86
4.52
1.20
-2.02
-5.10
-8.08
-11.01
-13.84
-16.48
-18.93
-21.28
-23.78
-26.74
-30.34
-34.57
-39.18
-43.75
-47.74
-50.62
-51.94
-51.35
-48.79
-44.43
-38.70
-32.13
-25.28
-18.57
-12.29
-6.61
-1.64
2.55
5.96
8.61
10.59
12.03
13.08
13.92
14.78
15.83
17.22
18.92
20.80
22.68
24.41
25.92
27.24
28.42
29.44
30.11
30.25
29.70
28.56
27.10
25.74
24.81
24.38
24.20
23.79
22.69
20.65
17.80
14.58
11.55
9.18
7.65
6.79
6.19
5.36
3.93
1.68
-1.39
-5.09
-9.12
-13.11
-16.68
-19.66
-22.09
-24.34
-26.96
-30.38
-34.71
-39.62
-44.38
-48.11
-50.05
-49.81
-47.40
-43.12
-37.41
-30.79
-23.71
-16.69
-10.16
-4.61
-0.31
2.65
4.49
5.65
6.62
7.76
9.20
10.85
12.54
14.16
15.66
17.06
18.40
19.63
20.79
21.91
23.07
24.30
25.54
26.58
27.17
27.19
26.71
26.04
25.55
25.53
26.01
26.79
27.47
27.69
27.22
26.02
24.30
22.37
20.51
18.91
17.57
16.26
14.67
12.45
9.40
5.55
1.13
-3.52
-7.99
-11.97
-15.30
-18.05
-20.45
-22.96
-26.02
-29.99
-34.86
-40.28
-45.48
-49.59
-51.77
-51.49
-48.66
-43.65
-37.13
-29.96
-22.92
-16.58
-11.25
-6.96
-3.60
-1.01
0.94
2.38
3.45
4.31
5.17
6.18
7.42
8.89
10.50
12.12
13.65
15.01
16.28
17.54
18.91
20.42
21.97
23.36
24.38
24.95
25.17
25.25
25.36
25.56
25.73
25.65
25.10
23.98
22.31
20.21
17.90
15.60
13.54
11.82
10.47
9.28
8.00
6.38
4.31
1.81
-0.97
-3.83
-6.66
-9.44
-12.23
-15.20
-18.57
-22.51
-27.12
-32.17
-37.20
-41.45
-44.12
-44.61
-42.68
-38.52
-32.65
-25.77
-18.54
-11.52
-5.12
0.44
5.04
8.72
11.59
13.80
15.43
16.54
17.19
17.48
17.59
17.77
18.20
18.93
19.84
20.71
21.35
21.68
21.80
21.89
22.13
22.51
22.92
23.07
22.70
21.66
20.00
17.92
15.68
13.50
11.45
9.46
7.45
5.41
3.50
1.95
0.89
0.25
-0.35
-1.39
-3.17
-5.72
-8.64
-11.49
-13.94
-16.02
-18.07
-20.60
-23.94
-28.21
-33.22
-38.54
-43.63
-47.93
-50.89
-52.08
-51.23
-48.35
-43.71
-37.83
-31.29
-24.61
-18.12
-12.01
-6.33
-1.19
3.26
6.81
9.32
10.86
11.62
11.94
12.09
12.26
12.53
13.01
13.84
15.19
17.16
19.61
22.19
24.45
25.95
26.53
26.27
25.49
24.51
23.62
22.90
22.29
21.64
20.86
19.86
18.63
17.20
15.57
13.82
12.04
10.37
8.93
7.77
6.82
5.95
5.01
3.90
2.63
1.18
-0.51
-2.58
-5.17
-8.31
-11.87
-15.67
-19.64
-23.86
-28.51
-33.58
-38.74
-43.27
-46.28
-47.04
-45.29
-41.31
-35.73
-29.29
-22.60
-16.07
-9.98
-4.53
0.14
3.93
6.85
8.98
10.38
11.15
11.36
11.23
11.10
11.33
12.19
13.69
15.58
17.46
18.99
20.08
20.90
21.77
22.92
24.39
25.93
27.16
27.75
27.56
26.72
25.55
24.38
23.41
22.64
21.83
20.70
19.02
16.81
14.27
11.70
9.39
7.46
5.87
4.38
2.75
0.79
-1.56
-4.20
-6.96
-9.60
-11.96
-13.96
-15.70
-17.41
-19.43
-22.13
-25.77
-30.35
-35.51
-40.55
-44.56
-46.61
-46.02
-42.63
-36.85
-29.59
-21.92
-14.82
-8.84
-4.08
-0.27
3.00
6.03
8.87
11.40
13.38
14.66
15.25
15.38
15.37
15.53
16.02
16.91
18.10
19.47
20.92
22.37
23.70
24.77
25.37
25.32
24.50
23.03
21.18
19.27
17.53
16.00
14.53
12.88
10.88
8.52
6.04
3.78
2.02
0.87
0.15
-0.52
-1.57
-3.29
-5.70
-8.57
-11.51
-14.13
-16.21
-17.84
-19.38
-21.39
-24.39
-28.60
-33.74
-39.11
-43.72
-46.65
-47.35
-45.72
-42.08
-36.94
-30.88
-24.44
-18.16
-12.53
-7.89
-4.32
-1.61
0.67
2.87
5.12
7.26
9.03
10.23
10.89
11.22
11.55
12.10
12.95
14.13
15.60
17.29
19.17
21.13
23.03
24.71
26.01
26.74
26.82
26.28
25.36
24.37
23.68
23.45
23.58
23.75
23.62
22.90
21.56
19.70
17.49
15.10
12.65
10.27
8.10
6.19
4.45
2.65
0.52
-2.12
-5.26
-8.69
-12.16
-15.48
-18.53
-21.33
-23.93
-26.52
-29.34
-32.70
-36.79
-41.56
-46.52
-50.87
-53.65
-54.09
-51.90
-47.35
-41.15
-34.22
-27.42
-21.31
-16.07
-11.64
-7.78
-4.37
-1.32
1.32
3.47
5.10
6.23
7.00
7.58
8.24
9.22
10.72
12.79
15.29
17.91
20.26
22.07
23.30
24.12
24.83
25.64
26.58
27.46
28.02
28.05
27.59
26.79
25.92
25.13
24.41
23.62
22.52
21.00
19.06
16.88
14.71
12.81
11.32
10.20
9.26
8.16
6.56
4.26
1.24
-2.23
-5.76
-9.01
-11.83
-14.28
-16.66
-19.27
-22.38
-26.08
-30.28
-34.72
-38.99
-42.61
-45.09
-46.02
-45.13
-42.37
-37.95
-32.29
-25.99
-19.69
-13.93
-9.02
-5.01
-1.73
0.98
3.22
4.94
6.11
6.85
7.49
8.42
9.91
11.87
13.89
15.50
16.45
16.88
17.22
17.92
19.21
20.98
22.88
24.55
25.70
26.19
26.02
25.22
23.93
22.30
20.49
18.67
16.96
15.39
14.01
12.81
11.81
10.92
10.01
8.87
7.37
5.45
3.22
0.82
-1.62
-4.04
-6.47
-8.94
-11.46
-14.02
-16.58
-19.18
-21.90
-24.84
-28.10
-31.75
-35.78
-40.01
-44.14
-47.74
-50.27
-51.29
-50.51
-47.92
-43.77
-38.53
-32.70
-26.72
-20.85
-15.20
-9.83
-4.88
-0.57
2.88
5.32
6.81
7.61
8.14
8.82
10.02
11.87
14.22
16.79
19.16
21.09
22.50
23.54
24.50
25.62
27.03
28.65
30.19
31.34
31.83
31.59
30.71
29.49
28.25
27.21
26.43
25.78
25.04
24.02
22.69
21.13
19.47
17.81
16.19
14.60
13.01
11.31
9.35
7.00
4.16
0.96
-2.37
-5.56
-8.47
-11.14
-13.79
-16.66
-19.89
-23.48
-27.35
-31.41
-35.55
-39.60
-43.31
-46.22
-47.79
-47.52
-45.17
-40.87
-35.17
-28.87
-22.73
-17.22
-12.38
-7.91
-3.53
0.90
5.14
8.75
11.34
12.82
13.41
13.55
13.62
13.83
14.24
14.85
15.72
16.93
18.52
20.40
22.27
23.83
24.84
25.29
25.35
25.26
25.16
25.02
24.67
23.92
22.74
21.27
19.74
18.33
17.07
15.80
14.33
12.56
10.57
8.59
6.79
5.25
3.83
2.36
0.68
-1.28
-3.49
-5.91
-8.56
-11.45
-14.58
-17.84
-21.03
-23.98
-26.67
-29.32
-32.34
-36.09
-40.66
-45.69
-50.44
-54.04
-55.76
-55.24
-52.56
-48.09
-42.35
-35.81
-28.94
-22.19
-16.07
-10.88
-6.71
-3.36
-0.45
2.32
5.01
7.42
9.30
10.60
11.55
12.60
14.10
16.21
18.78
21.52
24.12
26.43
28.35
29.88
30.97
31.69
32.18
32.64
33.23
33.92
34.48
34.65
34.22
33.30
32.13
31.04
30.15
29.32
28.26
26.66
24.40
21.64
18.69
15.96
13.70
11.96
10.55
9.18
7.59
5.62
3.27
0.58
-2.41
-5.71
-9.30
-13.09
-16.94
-20.72
-24.41
-28.14
-32.18
-36.67
-41.45
-46.03
-49.68
-51.64
-51.42
-48.85
-44.20
-38.01
-30.96
-23.74
-16.93
-10.90
-5.79
-1.57
1.91
4.80
7.22
9.30
11.12
12.75
14.24
15.65
16.97
18.26
19.56
20.96
22.50
24.20
25.90
27.43
28.55
29.11
29.04
28.38
27.25
25.78
24.13
22.42
20.81
19.42
18.29
17.35
16.43
15.33
13.89
12.06
9.86
7.43
4.86
2.22
-0.48
-3.20
-5.89
-8.47
-10.90
-13.20
-15.40
-17.55
-19.65
-21.70
-23.81
-26.24
-29.32
-33.34
-38.28
-43.74
-48.89
-52.78
-54.60
-53.92
-50.83
-45.74
-39.30
-32.12
-24.72
-17.57
-11.06
-5.51
-1.11
2.15
4.47
6.13
7.42
8.58
9.72
10.89
12.14
13.47
14.93
16.53
18.34
20.36
22.53
24.70
26.62
28.02
28.77
28.88
28.58
28.18
27.87
27.73
27.63
27.41
26.95
26.21
25.24
24.11
22.86
21.51
20.05
18.44
16.77
15.13
13.64
12.34
11.13
9.80
8.11
5.91
3.20
0.10
-3.18
-6.47
-9.63
-12.51
-15.04
-17.25
-19.35
-21.72
-24.84
-29.04
-34.38
-40.54
-46.86
-52.46
-56.48
-58.19
-57.24
-53.69
-48.04
-41.02
-33.46
-26.04
-19.21
-13.20
-8.10
-3.94
-0.67
1.81
3.70
5.16
6.39
7.54
8.72
10.11
11.85
14.01
16.58
19.35
22.05
24.41
26.22
27.45
28.17
28.57
28.80
28.97
29.08
29.04
28.68
27.96
26.90
25.69
24.56
23.66
22.99
22.39
21.66
20.61
19.17
17.34
15.24
12.99
10.71
8.42
6.09
3.57
0.72
-2.49
-5.96
-9.44
-12.66
-15.47
-17.93
-20.36
-23.25
-26.89
-31.31
-36.15
-40.73
-44.33
-46.38
-46.58
-44.93
-41.55
-36.68
-30.65
-23.91
-16.99
-10.40
-4.52
0.54
4.88
8.65
11.95
14.76
16.96
18.51
19.49
20.10
20.57
21.03
21.49
21.93
22.31
22.69
23.16
23.71
24.32
24.89
25.32
25.53
25.48
25.12
24.38
23.24
21.79
20.19
18.67
17.37
16.22
14.96
13.27
11.00
8.27
5.53
3.24
1.62
0.53
-0.46
-1.82
-3.77
-6.22
-8.85
-11.35
-13.62
-15.78
-18.10
-20.80
-24.02
-27.77
-32.00
-36.63
-41.56
-46.58
-51.22
-54.83
-56.67
-56.07
-52.76
-47.01
-39.58
-31.54
-23.90
-17.38
-12.20
-8.21
-5.06
-2.40
0.01
2.28
4.44
6.44
8.25
9.82
11.20
12.51
13.94
15.66
17.77
20.26
23.00
25.87
28.65
31.13
32.98
33.92
33.78
32.71
31.11
29.56
28.59
28.43
28.96
29.80
30.51
30.73
30.33
29.36
27.97
26.40
24.85
23.52
22.55
21.96
21.62
21.22
20.29
18.45
15.48
11.47
6.79
1.91
-2.78
-7.12
-11.21
-15.23
-19.45
-23.99
-28.92
-34.19
-39.58
-44.70
-48.97
-51.72
-52.37
-50.74
-47.02
-41.83
-35.92
-29.94
-24.24
-18.91
-13.87
-9.10
-4.66
-0.78
2.39
4.81
6.70
8.41
10.27
12.43
14.75
16.87
18.39
19.08
19.06
18.70
18.47
18.72
19.48
20.53
21.49
22.06
22.09
21.64
20.86
19.82
18.57
17.04
15.22
13.17
11.10
9.19
7.62
6.33
5.11
3.62
1.65
-0.80
-3.50
-6.10
-8.38
-10.33
-12.13
-14.00
-16.05
-18.30
-20.76
-23.47
-26.61
-30.33
-34.61
-39.14
-43.38
-46.74
-48.79
-49.35
-48.39
-46.09
-42.63
-38.24
-33.19
-27.80
-22.35
-17.12
-12.28
-7.89
-3.93
-0.34
2.86
5.56
7.57
8.78
9.27
9.41
9.76
10.78
12.69
15.31
18.19
20.85
23.03
24.71
26.06
27.24
28.25
28.98
29.27
29.12
28.72
28.37
28.33
28.65
29.20
29.61
29.58
28.93
27.68
25.98
24.00
21.83
19.52
17.12
14.79
12.78
11.27
10.25
9.44
8.36
6.55
3.80
0.29
-3.48
-6.91
-9.59
-11.53
-13.05
-14.74
-17.09
-20.37
-24.49
-29.14
-33.85
-38.08
-41.31
-43.06
-43.00
-41.03
-37.32
-32.33
-26.73
-21.13
-16.02
-11.56
-7.64
-4.03
-0.56
2.82
5.91
8.49
10.44
11.80
12.81
13.79
14.94
16.28
17.71
19.08
20.35
21.62
22.98
24.48
25.92
27.00
27.41
27.02
25.94
24.50
23.06
21.82
20.81
19.89
18.86
17.56
15.96
14.13
12.15
10.11
8.04
5.94
3.76
1.52
-0.77
-3.08
-5.41
-7.80
-10.32
-13.07
-16.07
-19.23
-22.31
-25.05
-27.34
-29.30
-31.29
-33.74
-36.91
-40.75
-44.85
-48.63
-51.43
-52.81
-52.57
-50.67
-47.23
-42.51
-36.90
-30.87
-24.93
-19.42
-14.41
-9.84
-5.57
-1.62
1.79
4.40
6.09
7.04
7.70
8.65
10.26
12.63
15.50
18.49
21.23
23.47
25.16
26.40
27.35
28.22
29.19
30.33
31.64
32.99
34.10
34.69
34.48
33.38
31.55
29.43
27.50
26.14
25.47
25.22
24.95
24.25
22.91
20.98
18.72
16.40
14.16
11.94
9.56
6.82
3.61
0.03
-3.70
-7.24
-10.33
-12.88
-14.97
-16.88
-18.96
-21.52
-24.77
-28.84
-33.66
-39.05
-44.61
-49.68
-53.53
-55.41
-54.88
-51.93
-47.05
-41.03
-34.74
-28.82
-23.49
-18.70
-14.18
-9.74
-5.39
-1.33
2.19
5.03
7.25
9.09
10.85
12.74
14.79
16.85
18.76
20.40
21.85
23.31
25.01
27.06
29.32
31.50
33.22
34.27
34.68
34.59
34.20
33.60
32.73
31.44
29.69
27.59
25.38
23.38
21.80
20.69
19.90
19.17
18.23
16.95
15.29
13.29
10.95
8.18
4.90
1.11
-3.01
-7.09
-10.74
-13.67
-15.88
-17.63
-19.38
-21.65
-24.89
-29.32
-34.83
-40.91
-46.66
-51.03
-53.13
-52.56
-49.51
-44.64
-38.79
-32.68
-26.83
-21.57
-17.10
-13.45
-10.52
-7.98
-5.47
-2.75
0.19
3.11
5.70
7.79
9.41
10.71
11.89
13.06
14.30
15.69
17.37
19.42
21.76
24.12
26.13
27.48
28.04
27.87
27.17
26.17
25.04
23.92
22.91
22.08
21.39
20.72
19.85
18.56
16.78
14.64
12.42
10.46
8.93
7.84
6.96
5.99
4.64
2.75
0.28
-2.72
-6.16
-9.85
-13.60
-17.14
-20.22
-22.82
-25.13
-27.58
-30.67
-34.69
-39.60
-44.93
-49.84
-53.41
-54.84
-53.73
-50.21
-44.87
-38.53
-32.03
-25.99
-20.72
-16.22
-12.36
-8.98
-5.98
-3.28
-0.80
1.54
3.81
6.01
8.10
10.02
11.79
13.53
15.40
17.51
19.86
22.33
24.73
26.84
28.47
29.58
30.27
30.73
31.21
31.77
32.28
32.46
31.98
30.72
28.87
26.88
25.28
24.36
24.09
24.15
24.12
23.70
22.80
21.42
19.64
17.49
15.01
12.35
9.73
7.47
5.75
4.50
3.44
2.08
0.05
-2.82
-6.41
-10.35
-14.18
-17.55
-20.29
-22.53
-24.59
-26.90
-29.85
-33.66
-38.24
-43.29
-48.23
-52.37
-55.03
-55.62
-53.84
-49.72
-43.65
-36.39
-28.84
-21.82
-15.89
-11.17
-7.50
-4.48
-1.78
0.66
2.74
4.32
5.38
6.20
7.16
8.60
10.62
12.96
15.23
17.08
18.46
19.61
20.92
22.63
24.80
27.11
29.10
30.37
30.71
30.17
29.07
27.74
26.51
25.48
24.59
23.70
22.67
21.44
20.04
18.50
16.81
14.88
12.57
9.85
6.87
3.92
1.33
-0.71
-2.33
-3.92
-5.99
-8.88
-12.59
-16.83
-21.11
-25.08
-28.60
-31.80
-34.97
-38.42
-42.32
-46.62
-50.99
-54.86
-57.50
-58.29
-56.86
-53.26
-47.96
-41.58
-34.76
-27.86
-21.04
-14.36
-7.91
-1.98
3.12
7.14
10.07
12.14
13.66
15.00
16.37
17.90
19.65
21.71
24.19
27.13
30.42
33.71
36.50
38.41
39.25
39.21
38.75
38.31
38.13
38.22
38.36
38.26
37.71
36.67
35.22
33.50
31.66
29.77
27.87
25.97
24.10
22.36
20.84
19.55
18.36
17.00
15.20
12.80
9.89
6.70
3.49
0.36
-2.80
-6.20
-9.99
-14.07
-18.12
-21.81
-24.94
-27.69
-30.52
-33.95
-38.36
-43.68
-49.45
-54.87
-58.95
-60.83
-59.94
-56.17
-49.92
-41.99
-33.45
-25.27
-18.13
-12.24
-7.45
-3.42
0.15
3.41
6.33
8.89
11.13
13.24
15.42
17.77
20.23
22.58
24.56
25.97
26.76
26.97
26.65
25.89
24.71
23.22
21.63
20.25
19.36
19.08
19.25
19.48
19.29
18.34
16.58
14.22
11.59
9.01
6.66
4.58
2.76
1.15
-0.29
-1.72
-3.38
-5.49
-8.12
-11.19
-14.46
-17.71
-20.89
-24.11
-27.48
-31.09
-34.88
-38.76
-42.71
-46.71
-50.58
-53.82
-55.59
-54.98
-51.51
-45.47
-37.91
-30.27
-23.79
-18.92
-15.35
-12.28
-8.91
-4.96
-0.65
3.45
6.80
9.20
10.81
12.06
13.40
15.08
17.15
19.44
21.84
24.30
26.87
29.59
32.35
34.85
36.74
37.80
37.99
37.60
37.00
36.49
36.14
35.79
35.14
33.92
32.00
29.46
26.54
23.55
20.82
18.51
16.62
14.91
13.07
10.85
8.18
5.24
2.24
-0.66
-3.44
-6.23
-9.10
-12.10
-15.22
-18.60
-22.52
-27.32
-33.17
-39.84
-46.63
-52.57
-56.68
-58.36
-57.40
-54.03
-48.72
-42.07
-34.72
-27.26
-20.16
-13.73
-8.03
-3.00
1.47
5.38
8.63
11.08
12.72
13.80
14.80
16.24
18.44
21.44
24.89
28.31
31.26
33.56
35.32
36.84
38.36
39.95
41.42
42.40
42.70
42.27
41.26
39.95
38.51
37.00
35.31
33.31
30.88
28.07
25.02
22.03
19.33
17.01
14.98
12.95
10.61
7.77
4.48
1.00
-2.30
-5.23
-7.84
-10.47
-13.56
-17.39
-22.01
-27.23
-32.67
-37.92
-42.49
-45.94
-47.81
-47.78
-45.79
-42.08
-37.10
-31.41
-25.43
-19.47
-13.71
-8.33
-3.51
0.56
3.78
6.19
8.00
9.46
10.85
12.38
14.23
16.49
19.14
21.99
24.74
27.01
28.59
29.43
29.76
29.88
30.06
30.38
30.73
30.86
30.46
29.37
27.52
25.12
22.50
20.03
18.03
16.60
15.67
14.95
14.14
12.97
11.33
9.24
6.79
4.15
1.54
-0.85
-2.87
-4.49
-5.87
-7.32
-9.18
-11.71
-14.94
-18.69
-22.65
-26.49
-30.08
-33.49
-37.00
-40.93
-45.46
-50.44
-55.33
-59.27
-61.34
-60.92
-57.82
-52.51
-45.80
-38.68
-31.91
-25.98
-20.97
-16.70
-12.90
-9.35
-5.96
-2.75
0.18
2.76
4.98
6.97
8.89
10.82
12.83
14.87
16.90
19.01
21.24
23.64
26.11
28.38
30.16
31.25
31.68
31.70
31.59
31.53
31.49
31.33
30.96
30.42
29.91
29.55
29.34
29.01
28.23
26.73
24.47
21.65
18.61
15.66
12.87
10.19
7.43
4.45
1.19
-2.26
-5.82
-9.42
-13.07
-16.81
-20.69
-24.70
-28.80
-32.91
-36.96
-40.91
-44.68
-48.10
-50.85
-52.44
-52.39
-50.42
-46.60
-41.41
-35.54
-29.74
-24.50
-19.96
-15.99
-12.36
-8.90
-5.61
-2.58
0.09
2.42
4.55
6.67
8.89
11.19
13.51
15.81
18.11
20.54
23.18
25.93
28.52
30.60
31.84
32.18
31.79
31.00
30.11
29.30
28.59
27.93
27.27
26.63
26.01
25.30
24.36
23.03
21.27
19.14
16.84
14.57
12.42
10.38
8.36
6.33
4.30
2.35
0.47
-1.41
-3.44
-5.80
-8.55
-11.68
-15.08
-18.60
-22.20
-25.91
-29.89
-34.28
-39.09
-43.99
-48.38
-51.51
-52.81
-52.07
-49.53
-45.69
-41.10
-36.15
-31.07
-26.00
-21.15
-16.76
-13.03
-9.94
-7.29
-4.78
-2.24
0.32
2.77
4.96
6.88
8.62
10.33
12.07
13.81
15.49
17.03
18.40
19.61
20.69
21.70
22.74
23.94
25.34
26.84
28.21
29.15
29.43
29.02
27.98
26.46
24.64
22.67
20.73
18.95
17.46
16.28
15.32
14.39
13.29
11.86
10.10
8.05
5.80
3.43
0.99
-1.53
-4.19
-7.06
-10.23
-13.69
-17.35
-21.09
-24.82
-28.59
-32.54
-36.82
-41.41
-46.07
-50.35
-53.70
-55.59
-55.66
-53.87
-50.42
-45.73
-40.34
-34.71
-29.23
-24.09
-19.37
-15.11
-11.32
-7.98
-5.07
-2.49
-0.18
1.93
3.81
5.36
6.56
7.52
8.44
9.56
11.05
12.89
14.97
17.16
19.36
21.60
23.88
26.13
28.14
29.63
30.42
30.51
30.08
29.42
28.80
28.32
27.94
27.57
27.10
26.42
25.47
24.14
22.36
20.13
17.51
14.72
11.98
9.39
6.87
4.18
1.10
-2.41
-6.18
-9.85
-13.16
-16.03
-18.64
-21.32
-24.41
-28.07
-32.27
-36.83
-41.44
-45.66
-48.99
-50.82
-50.67
-48.37
-44.19
-38.73
-32.68
-26.55
-20.51
-14.61
-8.83
-3.41
1.25
4.76
6.98
8.14
8.74
9.33
10.28
11.74
13.64
15.80
18.05
20.25
22.21
23.80
24.90
25.46
25.59
25.49
25.38
25.39
25.51
25.52
25.20
24.36
22.98
21.20
19.27
17.40
15.67
14.06
12.49
10.94
9.42
7.93
6.36
4.43
1.87
-1.48
-5.53
-9.87
-13.94
-17.19
-19.42
-20.78
-21.84
-23.29
-25.80
-29.70
-34.91
-40.86
-46.72
-51.54
-54.49
-55.02
-52.95
-48.48
-42.19
-34.91
-27.51
-20.67
-14.73
-9.68
-5.36
-1.64
1.41
3.67
5.07
5.81
6.34
7.18
8.64
10.70
13.05
15.36
17.42
19.23
20.89
22.55
24.24
25.92
27.43
28.63
29.39
29.66
29.47
28.95
28.30
27.66
27.13
26.66
26.13
25.41
24.41
23.06
21.28
19.08
16.56
13.95
11.44
9.07
6.70
4.08
1.03
-2.35
-5.73
-8.78
-11.35
-13.62
-15.97
-18.81
-22.39
-26.69
-31.57
-36.73
-41.75
-46.06
-49.05
-50.15
-49.05
-45.84
-40.96
-34.98
-28.42
-21.68
-15.04
-8.74
-3.03
1.85
5.77
8.70
10.72
11.96
12.63
12.97
13.33
14.07
15.44
17.50
20.06
22.71
25.09
26.87
27.93
28.33
28.19
27.76
27.22
26.74
26.36
25.97
25.39
24.49
23.21
21.67
20.06
18.56
17.20
15.86
14.31
12.36
10.03
7.48
4.95
2.62
0.55
-1.42
-3.46
-5.73
-8.28
-11.06
-14.02
-17.21
-20.88
-25.28
-30.46
-36.03
-41.13
-44.66
-45.65
-43.65
-38.97
-32.48
-25.27
-18.23
-11.76
-5.88
-0.39
4.80
9.53
13.46
16.30
17.93
18.61
18.80
19.04
19.67
20.77
22.14
23.45
24.51
25.28
25.98
26.85
28.04
29.47
30.80
31.58
31.44
30.28
28.32
26.04
23.98
22.48
21.56
20.91
20.08
18.70
16.67
14.17
11.55
9.09
6.95
5.03
3.15
1.14
-1.12
-3.65
-6.40
-9.26
-12.11
-14.85
-17.42
-19.80
-22.02
-24.20
-26.54
-29.25
-32.53
-36.48
-41.04
-45.92
-50.60
-54.36
-56.40
-56.10
-53.16
-47.72
-40.39
-32.05
-23.62
-15.85
-9.21
-3.84
0.29
3.36
5.54
7.05
8.16
9.15
10.24
11.50
12.89
14.25
15.45
16.41
17.24
18.07
19.08
20.38
21.95
23.71
25.47
27.00
28.03
28.37
27.96
26.91
25.50
24.03
22.69
21.47
20.23
18.78
17.01
14.99
12.94
10.99
9.13
7.12
4.64
1.58
-1.89
-5.32
-8.25
-10.49
-12.25
-14.13
-16.79
-20.63
-25.53
-30.86
-35.72
-39.20
-40.71
-40.01
-37.17
-32.46
-26.28
-19.15
-11.71
-4.64
1.44
6.19
9.62
12.07
14.02
15.88
17.88
19.98
21.97
23.57
24.58
24.89
24.62
24.08
23.65
23.72
24.44
25.71
27.21
28.54
29.39
29.61
29.18
28.13
26.58
24.68
22.71
21.00
19.77
18.97
18.29
17.32
15.74
13.53
10.97
8.41
6.04
3.82
1.51
-1.12
-4.10
-7.33
-10.57
-13.69
-16.69
-19.65
-22.64
-25.64
-28.58
-31.47
-34.48
-37.87
-41.84
-46.27
-50.59
-53.96
-55.51
-54.71
-51.52
-46.40
-40.05
-33.22
-26.50
-20.21
-14.49
-9.40
-5.00
-1.37
1.40
3.36
4.77
5.95
7.27
8.92
10.85
12.72
14.15
14.97
15.34
15.75
16.68
18.41
20.75
23.22
25.18
26.22
26.22
25.36
24.02
22.55
21.26
20.34
19.83
19.65
19.56
19.24
18.39
16.93
14.97
12.79
10.73
8.99
7.57
6.28
4.86
3.11
1.03
-1.28
-3.61
-5.81
-7.85
-9.86
-12.08
-14.76
-18.12
-22.26
-27.16
-32.59
-38.09
-42.96
-46.41
-47.78
-46.70
-43.33
-38.23
-32.23
-26.14
-20.47
-15.43
-10.94
-6.80
-2.89
0.75
3.94
6.46
8.24
9.37
10.13
10.86
11.78
12.93
14.21
15.47
16.68
17.92
19.39
21.18
23.23
25.30
27.03
28.14
28.53
28.35
27.86
27.27
26.60
25.79
24.68
23.24
21.56
19.83
18.14
16.45
14.64
12.59
10.31
7.91
5.52
3.14
0.66
-2.07
-5.10
-8.30
-11.45
-14.43
-17.38
-20.66
-24.64
-29.44
-34.78
-39.98
-44.20
-46.72
-47.12
-45.40
-41.91
-37.18
-31.78
-26.23
-20.88
-15.93
-11.41
-7.29
-3.45
0.16
3.53
6.59
9.28
11.51
13.28
14.66
15.78
16.79
17.83
19.01
20.37
21.93
23.62
25.36
27.02
28.32
29.02
28.89
27.94
26.43
24.84
23.62
23.01
22.87
22.77
22.22
20.87
18.70
15.95
13.00
10.18
7.70
5.64
3.99
2.66
1.39
-0.11
-2.16
-4.92
-8.32
-12.06
-15.75
-19.05
-21.87
-24.28
-26.55
-29.00
-31.96
-35.61
-40.01
-44.88
-49.69
-53.59
-55.68
-55.22
-51.94
-46.14
-38.65
-30.56
-22.90
-16.32
-10.99
-6.70
-3.10
0.05
2.77
4.98
6.64
7.95
9.27
10.99
13.22
15.78
18.25
20.20
21.44
22.11
22.52
23.07
23.97
25.23
26.64
27.89
28.70
28.99
28.85
28.52
28.18
27.82
27.26
26.26
24.69
22.71
20.62
18.80
17.46
16.56
15.85
15.05
13.93
12.45
10.67
8.69
6.53
4.20
1.62
-1.21
-4.26
-7.42
-10.57
-13.61
-16.56
-19.55
-22.77
-26.40
-30.52
-35.06
-39.79
-44.28
-47.91
-50.08
-50.25
-48.19
-44.08
-38.44
-31.95
-25.25
-18.74
-12.57
-6.85
-1.64
2.90
6.63
9.49
11.57
13.06
14.20
15.17
16.11
17.11
18.21
19.42
20.71
21.98
23.12
24.10
24.97
25.83
26.72
27.57
28.24
28.55
28.39
27.76
26.78
25.55
24.20
22.80
21.39
19.97
18.42
16.57
14.29
11.56
8.52
5.49
2.81
0.68
-0.93
-2.37
-4.08
-6.39
-9.37
-12.81
-16.31
-19.49
-22.19
-24.54
-26.94
-29.88
-33.74
-38.56
-43.94
-49.10
-53.09
-55.07
-54.53
-51.48
-46.31
-39.75
-32.56
-25.44
-18.84
-13.00
-8.02
-3.87
-0.54
2.07
4.16
5.99
7.87
9.97
12.24
14.40
16.04
16.95
17.21
17.21
17.46
18.34
19.94
22.12
24.57
26.98
29.14
30.85
31.97
32.38
32.08
31.13
29.74
28.13
26.53
25.17
24.23
23.76
23.60
23.42
22.76
21.28
18.90
15.88
12.70
9.79
7.39
5.46
3.78
2.06
0.10
-2.21
-4.85
-7.73
-10.68
-13.58
-16.40
-19.26
-22.37
-25.95
-30.09
-34.75
-39.65
-44.45
-48.64
-51.65
-52.90
-51.94
-48.64
-43.35
-36.77
-29.81
-23.25
-17.53
-12.70
-8.54
-4.79
-1.26
2.08
5.16
7.89
10.18
12.07
13.60
14.94
16.27
17.72
19.36
21.05
22.59
23.78
24.63
25.28
25.98
26.89
27.93
28.79
29.13
28.74
27.73
26.49
25.49
25.02
25.04
25.15
24.78
23.50
21.18
18.05
14.60
11.33
8.53
6.20
4.13
2.05
-0.21
-2.67
-5.25
-7.90
-10.61
-13.43
-16.35
-19.35
-22.37
-25.52
-28.96
-32.92
-37.36
-41.84
-45.53
-47.52
-47.17
-44.37
-39.56
-33.51
-27.02
-20.66
-14.72
-9.28
-4.28
0.31
4.50
8.23
11.43
13.99
15.86
17.08
17.83
18.34
18.83
19.41
20.07
20.70
21.27
21.82
22.49
23.40
24.53
25.73
26.70
27.18
27.07
26.42
25.45
24.39
23.39
22.45
21.43
20.11
18.27
15.88
13.10
10.27
7.72
5.72
4.29
3.21
2.18
0.88
-0.84
-3.02
-5.59
-8.44
-11.45
-14.52
-17.57
-20.51
-23.38
-26.31
-29.56
-33.40
-37.99
-43.24
-48.70
-53.60
-56.98
-57.95
-56.03
-51.32
-44.51
-36.70
-28.93
-21.91
-15.86
-10.63
-5.99
-1.81
1.84
4.79
6.95
8.35
9.21
9.80
10.34
10.98
11.76
12.72
13.89
15.32
17.07
19.08
21.24
23.35
25.18
26.56
27.45
27.91
28.00
27.82
27.42
26.86
26.23
25.54
24.77
23.81
22.54
20.94
19.14
17.33
15.62
13.96
12.12
9.88
7.20
4.22
1.20
-1.61
-4.18
-6.60
-9.02
-11.56
-14.25
-17.10
-20.14
-23.45
-27.10
-31.06
-35.20
-39.24
-42.79
-45.45
-46.84
-46.69
-44.89
-41.53
-36.82
-31.10
-24.77
-18.18
-11.65
-5.47
0.09
4.80
8.47
10.97
12.39
13.02
13.28
13.67
14.56
16.02
17.83
19.61
21.02
21.95
22.54
23.09
23.84
24.83
25.91
26.83
27.37
27.41
26.94
25.99
24.56
22.67
20.40
17.86
15.20
12.57
10.11
7.88
5.86
3.99
2.12
0.12
-2.09
-4.43
-6.78
-8.99
-11.07
-13.14
-15.39
-17.85
-20.43
-22.93
-25.30
-27.77
-30.75
-34.58
-39.17
-43.87
-47.66
-49.53
-48.80
-45.47
-40.01
-33.21
-25.89
-18.76
-12.30
-6.77
-2.29
1.18
3.78
5.66
7.01
8.03
8.95
9.96
11.22
12.73
14.42
16.11
17.64
18.96
20.10
21.21
22.45
23.90
25.51
27.10
28.36
28.99
28.84
27.92
26.52
24.93
23.41
22.06
20.89
19.83
18.86
17.94
17.03
16.05
14.89
13.45
11.66
9.44
6.81
3.85
0.76
-2.21
-4.85
-7.12
-9.18
-11.26
-13.62
-16.37
-19.56
-23.26
-27.64
-32.81
-38.63
-44.53
-49.54
-52.63
-53.09
-50.83
-46.37
-40.58
-34.27
-27.99
-21.91
-16.04
-10.40
-5.13
-0.51
3.19
5.90
7.79
9.18
10.42
11.73
13.13
14.56
15.91
17.14
18.28
19.40
20.51
21.57
22.48
23.21
23.75
24.18
24.50
24.59
24.33
23.59
22.44
21.11
19.90
18.95
18.21
17.35
16.00
13.89
10.96
7.42
3.61
-0.12
-3.50
-6.34
-8.64
-10.50
-12.11
-13.75
-15.75
-18.45
-22.10
-26.79
-32.29
-38.04
-43.11
-46.44
-47.09
-44.63
-39.28
-31.81
-23.39
-15.15
-7.94
-2.16
2.14
5.26
7.58
9.50
11.30
13.11
14.94
16.75
18.53
20.23
21.78
23.11
24.15
24.93
25.54
26.15
26.91
27.82
28.78
29.56
29.94
29.79
29.04
27.76
26.06
24.18
22.34
20.73
19.40
18.31
17.29
16.19
14.85
13.22
11.25
8.98
6.56
4.22
2.17
0.51
-0.86
-2.26
-3.97
-6.16
-8.77
-11.55
-14.35
-17.17
-20.13
-23.36
-26.87
-30.54
-34.35
-38.43
-43.04
-48.22
-53.65
-58.45
-61.57
-62.14
-59.85
-55.05
-48.53
-41.12
-33.46
-25.83
-18.38
-11.23
-4.69
0.80
4.88
7.38
8.54
8.86
9.01
9.47
10.47
11.99
13.82
15.79
17.81
19.90
22.10
24.37
26.62
28.67
30.36
31.60
32.34
32.59
32.37
31.74
30.78
29.61
28.32
27.00
25.71
24.45
23.13
21.67
20.00
18.17
16.30
14.54
12.97
11.46
9.71
7.39
4.31
0.60
-3.39
-7.26
-10.79
-14.05
-17.28
-20.76
-24.60
-28.78
-33.15
-37.59
-41.92
-45.81
-48.75
-49.95
-48.71
-44.67
-38.09
-29.92
-21.39
-13.61
-7.19
-2.16
1.82
5.14
7.99
10.35
12.19
13.61
14.91
16.42
18.28
20.37
22.34
23.85
24.80
25.33
25.78
26.49
27.60
29.02
30.46
31.49
31.72
30.90
29.13
26.84
24.61
22.93
21.86
20.98
19.69
17.53
14.55
11.30
8.45
6.35
4.80
3.19
0.87
-2.36
-6.22
-10.13
-13.53
-16.23
-18.37
-20.26
-22.17
-24.33
-26.90
-30.11
-34.22
-39.25
-44.78
-49.93
-53.53
-54.57
-52.58
-47.84
-41.26
-34.03
-27.17
-21.26
-16.35
-12.10
-8.12
-4.14
-0.15
3.64
6.92
9.53
11.40
12.73
13.75
14.73
15.85
17.17
18.74
20.48
22.33
24.18
25.94
27.51
28.86
29.96
30.83
31.45
31.80
31.87
31.64
31.17
30.52
29.79
28.99
28.05
26.82
25.15
22.97
20.34
17.48
14.66
12.12
10.00
8.21
6.56
4.71
2.36
-0.64
-4.27
-8.20
-12.00
-15.25
-17.79
-19.74
-21.56
-23.81
-27.00
-31.36
-36.85
-43.09
-49.43
-54.96
-58.69
-59.74
-57.62
-52.45
-45.00
-36.42
-27.94
-20.40
-14.09
-8.84
-4.26
-0.01
4.03
7.79
11.08
13.84
16.12
18.02
19.68
21.14
22.39
23.42
24.26
25.02
25.85
26.82
27.92
29.04
29.95
30.49
30.59
30.25
29.56
28.65
27.64
26.60
25.54
24.41
23.10
21.52
19.65
17.59
15.49
13.46
11.52
9.51
7.20
4.38
1.03
-2.62
-6.22
-9.50
-12.37
-14.96
-17.58
-20.52
-23.96
-27.96
-32.48
-37.37
-42.34
-46.83
-50.13
-51.49
-50.42
-46.87
-41.31
-34.53
-27.37
-20.47
-14.19
-8.61
-3.67
0.73
4.65
8.08
10.94
13.17
14.76
15.85
16.69
17.55
18.59
19.80
21.00
22.02
22.80
23.48
24.29
25.43
26.88
28.41
29.63
30.18
29.94
29.06
27.89
26.85
26.14
25.65
25.09
24.05
22.30
19.92
17.23
14.61
12.32
10.37
8.55
6.65
4.51
2.18
-0.22
-2.60
-4.98
-7.47
-10.22
-13.28
-16.61
-20.07
-23.55
-27.07
-30.82
-35.04
-39.91
-45.38
-51.04
-56.22
-60.13
-62.03
-61.45
-58.30
-52.87
-45.76
-37.73
-29.60
-22.06
-15.54
-10.19
-5.83
-2.17
1.10
4.08
6.71
8.85
10.48
11.75
12.96
14.35
16.00
17.75
19.35
20.72
21.98
23.39
25.16
27.24
29.32
31.01
32.04
32.45
32.48
32.40
32.32
32.05
31.38
30.17
28.54
26.80
25.25
24.00
22.88
21.57
19.80
17.54
15.02
12.57
10.41
8.46
6.46
4.06
1.10
-2.35
-5.99
-9.52
-12.73
-15.66
-18.54
-21.60
-25.04
-28.91
-33.23
-37.92
-42.90
-47.93
-52.55
-56.11
-57.90
-57.34
-54.15
-48.48
-40.87
-32.11
-23.08
-14.52
-6.97
-0.71
4.24
7.98
10.72
12.74
14.24
15.45
16.49
17.45
18.41
19.37
20.31
21.16
21.87
22.39
22.68
22.79
22.75
22.66
22.53
22.35
21.96
21.18
19.83
17.78
15.11
12.04
8.92
6.13
3.97
2.58
1.92
1.83
2.09
2.40
2.48
2.12
1.22
-0.11
-1.66
-3.20
-4.61
-6.00
-7.60
-9.64
-12.21
-15.18
-18.36
-21.60
-24.90
-28.33
-32.04
-36.13
-40.62
-45.47
-50.44
-55.09
-58.72
-60.58
-59.98
-56.65
-50.74
-42.91
-34.10
-25.25
-17.06
-9.88
-3.76
1.45
5.93
9.78
13.02
15.66
17.76
19.55
21.35
23.32
25.43
27.42
28.93
29.78
30.04
30.09
30.30
30.86
31.64
32.29
32.36
31.65
30.26
28.51
26.84
25.53
24.57
23.78
22.88
21.71
20.24
18.57
16.79
14.95
13.05
11.18
9.53
8.31
7.60
7.24
6.87
6.05
4.47
2.15
-0.68
-3.69
-6.65
-9.46
-12.15
-14.78
-17.37
-20.06
-23.13
-27.02
-32.09
-38.28
-44.97
-50.94
-54.73
-55.18
-51.83
-45.11
-36.10
-26.13
-16.31
-7.31
0.59
7.35
12.94
17.29
20.37
22.37
23.69
24.92
26.51
28.67
31.22
33.82
36.11
37.93
39.38
40.63
41.85
43.11
44.42
45.78
47.16
48.50
49.57
49.98
49.33
47.36
44.16
40.11
35.80
31.81
28.47
25.82
23.65
21.64
19.43
16.74
13.45
9.63
5.52
1.50
-2.07
-4.99
-7.33
-9.42
-11.79
-14.87
-18.95
-24.00
-29.75
-35.73
-41.39
-46.16
-49.51
-51.10
-50.69
-48.30
-44.10
-38.47
-31.91
-25.05
-18.45
-12.53
-7.44
-3.12
0.58
3.76
6.34
8.19
9.27
9.75
10.03
10.52
11.47
12.81
14.20
15.18
15.42
14.86
13.63
12.00
10.18
8.26
6.17
3.71
0.67
-3.00
-7.12
-11.27
-14.91
-17.65
-19.42
-20.52
-21.54
-23.00
-25.19
-28.02
-31.11
-33.92
-35.96
-36.97
-36.93
-36.20
-35.39
-35.24
-36.44
-39.35
-43.78
-48.99
-53.86
-57.19
-58.12
-56.30
-51.94
-45.68
-38.24
-30.29
-22.34
-14.70
-7.57
-1.10
4.54
9.15
12.47
14.33
14.69
13.78
12.04
10.10
8.58
7.91
8.32
9.80
12.30
15.68
19.80
24.38
29.00
33.06
36.05
37.65
37.91
37.22
36.07
34.84
33.67
32.44
30.95
29.10
26.93
24.64
22.42
20.30
18.14
15.75
12.94
9.70
6.14
2.51
-0.89
-3.85
-6.29
-8.31
-10.22
-12.50
-15.61
-19.83
-25.09
-30.88
-36.31
-40.35
-42.11
-41.03
-37.15
-30.97
-23.43
-15.53
-8.14
-1.72
3.60
7.99
11.72
14.96
17.82
20.32
22.46
24.25
25.73
26.94
27.89
28.64
29.30
30.11
31.34
33.21
35.83
38.99
42.28
45.21
47.34
48.36
48.28
47.21
45.43
43.20
40.71
38.11
35.42
32.67
29.81
26.82
23.68
20.32
16.74
12.89
8.76
4.37
-0.20
-4.84
-9.44
-13.98
-18.55
-23.36
-28.54
-34.06
-39.59
-44.52
-48.12
-49.74
-49.02
-46.03
-41.18
-35.20
-28.82
-22.68
-17.14
-12.36
-8.33
-4.98
-2.25
-0.11
1.55
2.89
4.18
5.68
7.56
9.77
12.11
14.31
16.19
17.74
19.05
20.27
21.47
22.56
23.39
23.75
23.53
22.77
21.63
20.28
18.85
17.38
15.81
14.11
12.26
10.20
7.85
5.05
1.69
-2.20
-6.41
-10.60
-14.44
-17.84
-20.99
-24.29
-28.13
-32.72
-37.86
-42.95
-47.20
-49.80
-50.12
-47.95
-43.55
-37.59
-30.94
-24.43
-18.64
-13.82
-9.94
-6.92
-4.64
-2.94
-1.62
-0.38
1.07
2.91
5.14
7.59
10.05
12.42
14.75
17.22
19.92
22.80
25.65
28.11
29.92
30.95
31.23
30.90
30.12
29.05
27.80
26.53
25.32
24.23
23.21
22.13
20.77
18.98
16.69
13.95
10.87
7.67
4.53
1.55
-1.27
-4.04
-6.94
-10.07
-13.46
-17.03
-20.74
-24.61
-28.74
-33.11
-37.45
-41.13
-43.35
-43.39
-40.94
-36.24
-29.96
-22.99
-16.06
-9.62
-3.84
1.28
5.71
9.37
12.15
14.01
15.02
15.36
15.29
15.04
14.77
14.60
14.53
14.58
14.77
15.10
15.59
16.22
16.93
17.63
18.14
18.26
17.76
16.48
14.36
11.56
8.37
5.19
2.38
0.21
-1.27
-2.21
-2.88
-3.66
-4.81
-6.50
-8.72
-11.31
-14.07
-16.80
-19.41
-21.93
-24.55
-27.53
-31.05
-35.15
-39.56
-43.76
-46.99
-48.52
-47.80
-44.65
-39.33
-32.49
-24.95
-17.50
-10.72
-4.94
-0.23
3.51
6.43
8.65
10.21
11.15
11.55
11.61
11.64
12.00
12.96
14.50
16.39
18.18
19.50
20.16
20.24
20.09
20.04
20.25
20.65
20.98
20.98
20.49
19.55
18.37
17.15
16.02
14.93
13.68
12.07
9.97
7.47
4.80
2.26
0.02
-1.98
-3.96
-6.16
-8.73
-11.59
-14.52
-17.35
-20.04
-22.77
-25.83
-29.45
-33.68
-38.39
-43.25
-47.83
-51.59
-53.86
-54.05
-51.71
-46.85
-40.08
-32.39
-24.96
-18.68
-13.85
-10.24
-7.29
-4.48
-1.66
0.98
3.11
4.49
5.24
5.73
6.47
7.82
9.91
12.57
15.50
18.38
20.97
23.13
24.84
26.16
27.19
28.05
28.73
29.13
29.16
28.76
28.06
27.25
26.55
25.98
25.35
24.40
22.96
21.12
19.18
17.46
16.10
14.99
13.70
11.89
9.37
6.25
2.83
-0.60
-3.87
-6.97
-9.88
-12.60
-15.01
-17.07
-18.92
-20.93
-23.65
-27.55
-32.77
-38.89
-45.03
-50.01
-52.81
-52.81
-49.96
-44.79
-38.16
-31.00
-24.03
-17.71
-12.13
-7.26
-2.97
0.80
4.01
6.58
8.47
9.80
10.84
11.96
13.47
15.49
17.85
20.20
22.18
23.58
24.44
25.01
25.56
26.28
27.17
28.06
28.66
28.73
28.16
27.00
25.47
23.85
22.38
21.17
20.12
19.03
17.77
16.36
14.92
13.57
12.24
10.62
8.29
5.03
0.90
-3.62
-7.91
-11.46
-14.10
-15.96
-17.48
-19.16
-21.47
-24.73
-29.07
-34.36
-40.11
-45.57
-49.75
-51.77
-51.03
-47.44
-41.41
-33.76
-25.50
-17.56
-10.66
-5.12
-0.93
2.17
4.50
6.31
7.72
8.83
9.76
10.67
11.71
12.91
14.16
15.30
16.23
17.03
17.94
19.21
20.94
23.03
25.11
26.79
27.69
27.64
26.71
25.18
23.52
22.11
21.19
20.62
20.04
19.01
17.28
14.90
12.25
9.74
7.67
6.06
4.73
3.38
1.80
-0.18
-2.59
-5.41
-8.55
-11.88
-15.19
-18.34
-21.24
-23.99
-26.83
-30.10
-34.04
-38.62
-43.49
-47.99
-51.31
-52.82
-52.13
-49.26
-44.45
-38.15
-30.91
-23.31
-16.01
-9.64
-4.62
-1.12
1.11
2.52
3.67
4.89
6.29
7.72
9.03
10.17
11.32
12.72
14.57
16.85
19.32
21.69
23.70
25.27
26.49
27.54
28.47
29.21
29.57
29.38
28.63
27.50
26.28
25.20
24.42
23.84
23.25
22.39
21.07
19.28
17.16
14.97
12.89
10.95
8.98
6.74
4.10
1.08
-2.05
-4.96
-7.48
-9.63
-11.67
-13.93
-16.71
-20.23
-24.60
-29.79
-35.61
-41.56
-46.86
-50.54
-51.82
-50.27
-46.09
-39.91
-32.66
-25.30
-18.55
-12.84
-8.23
-4.49
-1.26
1.75
4.63
7.27
9.38
10.73
11.39
11.65
12.05
13.05
14.86
17.37
20.27
23.17
25.82
28.11
30.05
31.64
32.84
33.51
33.48
32.76
31.53
30.14
28.92
27.98
27.15
26.03
24.25
21.73
18.75
15.76
13.23
11.33
9.87
8.43
6.63
4.26
1.37
-1.76
-4.85
-7.67
-10.23
-12.69
-15.35
-18.55
-22.46
-27.08
-32.14
-37.16
-41.55
-44.75
-46.27
-45.77
-43.16
-38.59
-32.53
-25.67
-18.77
-12.39
-6.86
-2.15
1.90
5.35
8.17
10.17
11.28
11.67
11.70
11.84
12.37
13.32
14.49
15.67
16.71
17.69
18.77
20.01
21.37
22.59
23.34
23.41
22.79
21.58
20.04
18.41
16.84
15.42
14.17
13.12
12.26
11.51
10.74
9.74
8.33
6.41
4.01
1.25
-1.61
-4.38
-6.90
-9.10
-11.00
-12.73
-14.49
-16.57
-19.23
-22.71
-27.05
-32.09
-37.45
-42.52
-46.58
-48.92
-49.03
-46.76
-42.46
-36.77
-30.49
-24.28
-18.52
-13.35
-8.73
-4.65
-1.12
1.76
3.88
5.21
5.83
5.90
5.67
5.46
5.64
6.57
8.42
11.13
14.38
17.71
20.71
23.12
24.97
26.41
27.65
28.80
29.78
30.38
30.34
29.60
28.31
26.82
25.46
24.44
23.66
22.90
21.93
20.64
19.07
17.45
15.89
14.46
13.07
11.56
9.77
7.58
4.93
1.82
-1.67
-5.35
-9.02
-12.55
-15.90
-19.18
-22.53
-26.09
-29.87
-33.86
-38.04
-42.31
-46.49
-50.17
-52.71
-53.42
-51.78
-47.72
-41.66
-34.44
-26.99
-20.09
-14.23
-9.51
-5.79
-2.85
-0.47
1.51
3.14
4.52
5.72
6.94
8.38
10.23
12.53
15.15
17.78
20.16
22.18
23.94
25.72
27.71
29.83
31.77
33.07
33.45
32.96
31.95
30.80
29.72
28.67
27.40
25.74
23.77
21.79
20.20
19.17
18.54
17.84
16.57
14.43
11.48
8.04
4.54
1.31
-1.56
-4.09
-6.48
-8.96
-11.86
-15.51
-20.20
-25.90
-32.23
-38.38
-43.29
-46.03
-46.06
-43.41
-38.58
-32.35
-25.56
-18.90
-12.83
-7.57
-3.30
-0.07
2.13
3.38
3.90
4.06
4.21
4.70
5.59
6.77
8.04
9.29
10.51
11.91
13.65
15.71
17.86
19.76
21.05
21.58
21.34
20.47
19.22
17.87
16.63
15.69
15.07
14.66
14.22
13.48
12.24
10.50
8.33
5.87
3.29
0.69
-1.89
-4.48
-7.11
-9.77
-12.38
-14.85
-17.12
-19.29
-21.66
-24.61
-28.42
-33.07
-38.18
-43.03
-46.74
-48.56
-48.01
-45.09
-40.23
-34.12
-27.62
-21.41
-15.87
-11.10
-7.00
-3.43
-0.39
2.03
3.78
4.93
5.76
6.55
7.56
8.82
10.25
11.76
13.33
15.03
16.94
19.00
21.11
23.12
25.01
26.82
28.58
30.17
31.38
31.96
31.83
31.16
30.29
29.59
29.16
28.80
28.18
26.97
25.13
22.92
20.73
18.88
17.44
16.15
14.65
12.59
9.87
6.68
3.35
0.17
-2.74
-5.48
-8.26
-11.19
-14.27
-17.37
-20.36
-23.26
-26.29
-29.76
-33.93
-38.92
-44.58
-50.38
-55.50
-58.95
-59.82
-57.64
-52.56
-45.37
-37.28
-29.51
-22.93
-17.79
-13.84
-10.59
-7.57
-4.57
-1.53
1.44
4.27
6.94
9.41
11.67
13.69
15.49
17.23
19.18
21.64
24.74
28.30
31.85
34.81
36.74
37.45
37.16
36.25
35.16
34.21
33.54
33.16
32.98
32.85
32.62
32.12
31.25
29.98
28.36
26.47
24.43
22.34
20.28
18.28
16.24
13.97
11.32
8.22
4.79
1.25
-2.13
-5.23
-8.07
-10.83
-13.77
-17.14
-21.17
-25.94
-31.26
-36.61
-41.13
-43.87
-44.18
-41.87
-37.34
-31.34
-24.67
-17.96
-11.62
-5.91
-1.00
2.98
6.08
8.45
10.28
11.75
12.92
13.75
14.25
14.50
14.69
15.07
15.83
17.07
18.78
20.83
22.95
24.79
26.00
26.37
25.91
24.83
23.47
22.00
20.43
18.59
16.38
13.92
11.50
9.45
7.89
6.70
5.52
4.04
2.08
-0.28
-2.85
-5.43
-7.98
-10.51
-13.04
-15.55
-17.95
-20.20
-22.36
-24.66
-27.45
-31.03
-35.53
-40.79
-46.29
-51.25
-54.73
-55.96
-54.54
-50.61
-44.81
-38.06
-31.23
-24.97
-19.56
-15.01
-11.16
-7.88
-5.02
-2.51
-0.26
1.75
3.55
5.16
6.57
7.80
8.91
10.01
11.27
12.86
14.91
17.44
20.36
23.39
26.18
28.41
29.89
30.68
30.99
31.03
30.92
30.61
29.97
28.93
27.60
26.18
24.93
23.94
23.09
22.12
20.78
18.99
16.83
14.47
12.01
9.47
6.76
3.93
1.09
-1.57
-3.96
-6.14
-8.33
-10.74
-13.41
-16.25
-19.06
-21.77
-24.57
-27.76
-31.62
-36.09
-40.70
-44.70
-47.28
-47.86
-46.28
-42.84
-38.10
-32.71
-27.14
-21.64
-16.24
-10.96
-5.86
-1.18
2.84
6.10
8.70
10.90
12.95
15.04
17.15
19.20
21.06
22.73
24.29
25.80
27.25
28.50
29.48
30.11
30.49
30.72
30.89
30.89
30.48
29.51
27.94
25.97
24.03
22.46
21.44
20.73
19.85
18.38
16.20
13.59
11.02
8.92
7.33
5.95
4.31
2.07
-0.76
-3.91
-7.01
-9.84
-12.42
-14.93
-17.54
-20.39
-23.48
-26.89
-30.73
-35.05
-39.71
-44.25
-47.98
-50.13
-50.20
-48.07
-44.14
-39.08
-33.59
-28.17
-23.03
-18.17
-13.57
-9.32
-5.64
-2.77
-0.80
0.40
1.20
2.01
3.17
4.75
6.54
8.24
9.54
10.39
10.98
11.63
12.66
14.17
16.07
18.09
20.01
21.71
23.21
24.54
25.54
26.00
25.67
24.52
22.78
20.91
19.32
18.19
17.33
16.37
14.94
12.96
10.64
8.29
6.13
4.15
2.12
-0.16
-2.74
-5.41
-7.92
-10.07
-11.90
-13.70
-15.83
-18.58
-22.06
-26.23
-30.87
-35.79
-40.73
-45.39
-49.42
-52.40
-53.90
-53.58
-51.27
-47.06
-41.35
-34.73
-27.89
-21.44
-15.77
-11.03
-7.19
-4.14
-1.69
0.42
2.46
4.72
7.36
10.39
13.63
16.81
19.71
22.25
24.45
26.42
28.27
30.04
31.76
33.36
34.73
35.74
36.29
36.32
35.94
35.37
34.87
34.61
34.57
34.55
34.32
33.67
32.51
30.88
28.89
26.68
24.31
21.89
19.41
16.79
13.92
10.67
7.07
3.25
-0.47
-3.85
-6.77
-9.38
-12.03
-15.12
-18.92
-23.47
-28.57
-33.92
-39.11
-43.71
-47.24
-49.20
-49.17
-47.00
-42.86
-37.25
-30.85
-24.39
-18.38
-13.09
-8.57
-4.74
-1.49
1.26
3.59
5.56
7.27
8.79
10.13
11.25
12.08
12.62
12.99
13.36
13.97
14.95
16.31
17.87
19.35
20.43
20.93
20.85
20.34
19.66
19.01
18.43
17.80
16.87
15.53
13.81
11.93
10.16
8.63
7.26
5.86
4.22
2.27
0.10
-2.11
-4.22
-6.25
-8.33
-10.63
-13.21
-15.99
-18.80
-21.55
-24.34
-27.40
-30.99
-35.22
-39.95
-44.79
-49.26
-52.83
-55.04
-55.54
-54.09
-50.64
-45.41
-38.92
-31.85
-24.90
-18.57
-13.10
-8.42
-4.36
-0.76
2.47
5.41
8.16
10.90
13.72
16.65
19.54
22.12
24.19
25.73
26.95
28.24
29.92
32.07
34.43
36.51
37.84
38.26
38.02
37.60
37.44
37.67
38.00
37.96
37.12
35.35
32.90
30.23
27.77
25.71
24.01
22.48
20.89
19.08
16.97
14.45
11.45
7.98
4.22
0.43
-3.09
-6.23
-9.14
-12.14
-15.61
-19.80
-24.69
-30.04
-35.44
-40.40
-44.39
-46.84
-47.29
-45.44
-41.41
-35.68
-29.08
-22.46
-16.47
-11.44
-7.42
-4.27
-1.84
0.05
1.58
2.95
4.30
5.73
7.22
8.72
10.10
11.22
11.96
12.22
12.03
11.51
10.92
10.57
10.65
11.19
11.96
12.62
12.79
12.28
11.09
9.40
7.52
5.74
4.28
3.23
2.52
1.98
1.37
0.46
-0.91
-2.81
-5.29
-8.22
-11.38
-14.45
-17.20
-19.53
-21.64
-24.00
-26.98
-30.74
-34.89
-38.68
-41.16
-41.55
-39.53
-35.30
-29.47
-22.90
-16.41
-10.61
-5.82
-2.07
0.82
3.09
4.92
6.40
7.59
8.57
9.50
10.55
11.87
13.41
15.03
16.58
18.06
19.62
21.49
23.81
26.41
28.90
30.84
32.01
32.50
32.59
32.62
32.71
32.71
32.33
31.33
29.72
27.69
25.56
23.51
21.54
19.49
17.14
14.41
11.33
8.05
4.68
1.29
-2.10
-5.40
-8.51
-11.37
-14.06
-16.87
-20.12
-24.12
-28.94
-34.41
-40.14
-45.59
-50.15
-53.14
-53.94
-52.16
-47.80
-41.28
-33.47
-25.33
-17.74
-11.26
-6.07
-2.02
1.18
3.90
6.44
9.02
11.70
14.53
17.55
20.91
24.79
29.34
34.59
40.50
47.05
54.23
61.92
69.65
76.53
81.44
83.41
82.14
78.10
72.32
65.83
59.25
52.70
45.97
38.94
31.69
24.51
17.59
10.98
4.54
-1.81
-8.02
-13.88
-19.15
-23.69
-27.52
-30.79
-33.75
-36.71
-40.12
-44.40
-49.73
-55.78
-61.63
-65.94
-67.48
-65.48
-60.02
-51.93
-42.47
-33.04
-24.71
-18.08
-13.22
-9.84
-7.40
-5.53
-4.08
-3.21
-3.16
-4.03
-5.56
-7.18
-8.15
-7.95
-6.44
-3.81
-0.43
3.35
7.24
10.95
14.08
16.20
17.10
17.02
16.85
17.86
21.16
27.21
35.38
44.09
51.32
55.36
55.45
51.99
46.20
39.52
33.05
27.24
21.93
16.73
11.28
5.53
-0.32
-6.01
-11.45
-16.85
-22.52
-28.63
-34.82
-40.21
-43.67
-44.22
-41.68
-36.66
-30.31
-23.84
-18.01
-12.91
-8.28
-3.89
0.18
3.49
5.61
6.35
5.91
4.69
3.08
1.29
-0.63
-2.60
-4.42
-5.75
-6.27
-5.87
-4.67
-3.00
-1.24
0.24
1.32
2.03
2.55
3.07
3.68
4.35
4.93
5.24
5.19
4.79
4.12
3.21
2.04
0.50
-1.46
-3.83
-6.49
-9.31
-12.30
-15.63
-19.61
-24.58
-30.75
-38.12
-46.38
-54.99
-63.15
-70.05
-74.93
-77.36
-77.26
-74.94
-70.94
-65.85
-60.16
-54.14
-47.92
-41.47
-34.81
-27.97
-21.12
-14.48
-8.27
-2.73
2.07
6.12
9.58
12.63
15.51
18.40
21.47
24.89
28.80
33.34
38.54
44.26
50.15
55.58
59.84
62.27
62.54
60.77
57.56
53.79
50.30
47.57
45.58
43.83
41.62
38.34
33.71
27.93
21.45
14.93
8.96
3.93
-0.00
-2.94
-5.23
-7.35
-9.78
-12.93
-16.88
-21.45
-26.11
-30.27
-33.34
-34.90
-34.71
-32.72
-29.03
-23.91
-17.80
-11.27
-4.98
0.49
4.85
8.09
10.51
12.47
14.24
15.88
17.27
18.30
18.92
19.25
19.44
19.63
19.79
19.85
19.65
19.16
18.44
17.55
16.50
15.09
13.07
10.18
6.50
2.38
-1.45
-4.13
-4.93
-3.39
0.43
5.97
12.23
18.08
22.44
24.68
24.71
22.97
20.20
17.12
14.24
11.61
8.93
5.65
1.22
-4.68
-11.95
-19.98
-27.85
-34.53
-39.24
-41.62
-41.74
-39.94
-36.69
-32.49
-27.84
-23.28
-19.29
-16.24
-14.29
-13.29
-12.89
-12.66
-12.20
-11.19
-9.57
-7.41
-4.90
-2.30
0.21
2.54
4.66
6.58
8.28
9.77
11.11
12.39
13.72
15.09
16.35
17.22
17.54
17.31
16.76
16.17
15.67
15.23
14.66
13.82
12.70
11.48
10.37
9.45
8.61
7.52
5.82
3.32
0.11
-3.40
-6.67
-9.29
-11.25
-12.92
-14.91
-17.80
-21.85
-26.94
-32.63
-38.40
-43.69
-48.00
-50.79
-51.56
-49.93
-45.95
-40.15
-33.46
-26.89
-21.21
-16.72
-13.33
-10.75
-8.78
-7.29
-6.20
-5.39
-4.64
-3.72
-2.51
-1.09
0.32
1.50
2.43
3.34
4.53
6.26
8.59
11.27
13.88
15.90
16.94
16.78
15.59
13.76
11.82
10.21
9.15
8.56
8.20
7.83
7.28
6.57
5.81
5.22
4.95
4.99
5.13
5.03
4.33
2.86
0.75
-1.61
-3.81
-5.58
-6.95
-8.16
-9.46
-11.03
-12.91
-15.23
-18.17
-21.87
-26.15
-30.38
-33.56
-34.71
-33.31
-29.47
-23.88
-17.47
-11.05
-5.09
0.16
4.68
8.54
11.82
14.67
17.18
19.33
21.03
22.13
22.53
22.38
21.95
21.54
21.40
21.60
22.13
22.95
24.09
25.59
27.38
29.23
30.70
31.32
30.86
29.34
27.21
25.03
23.31
22.31
21.92
21.79
21.43
20.47
18.74
16.36
13.65
11.07
8.98
7.54
6.72
6.21
5.63
4.69
3.24
1.38
-0.79
-3.22
-6.04
-9.51
-13.86
-19.11
-24.99
-30.92
-36.19
-40.15
-42.33
-42.52
-40.76
-37.23
-32.25
-26.27
-19.84
-13.51
-7.77
-2.89
1.04
4.11
6.49
8.27
9.54
10.38
10.96
11.44
12.03
12.83
13.84
15.02
16.30
17.62
18.93
20.18
21.28
22.16
22.79
23.20
23.42
23.45
23.22
22.67
21.78
20.59
19.20
17.69
16.14
14.56
13.01
11.55
10.24
9.12
8.22
7.51
6.94
6.51
6.10
5.59
4.79
3.55
1.86
-0.21
-2.50
-4.92
-7.51
-10.43
-13.87
-17.86
-22.17
-26.23
-29.33
-30.75
-30.06
-27.25
-22.75
-17.36
-11.94
-7.11
-3.17
0.03
2.77
5.35
7.84
10.13
12.01
13.30
13.85
13.68
12.93
11.91
11.00
10.57
10.82
11.77
13.22
14.86
16.42
17.79
18.93
19.86
20.61
21.19
21.67
22.14
22.66
23.14
23.28
22.67
20.96
18.03
14.09
9.56
4.91
0.43
-3.82
-7.97
-12.14
-16.34
-20.37
-23.88
-26.55
-28.22
-29.07
-29.62
-30.55
-32.44
-35.60
-39.83
-44.46
-48.54
-51.15
-51.58
-49.60
-45.40
-39.50
-32.67
-25.68
-19.17
-13.58
-9.10
-5.67
-3.12
-1.22
0.18
1.16
1.69
1.81
1.72
1.86
2.79
4.95
8.52
13.27
18.59
23.76
28.17
31.51
33.81
35.32
36.36
37.16
37.83
38.32
38.51
38.25
37.44
36.16
34.55
32.88
31.39
30.19
29.26
28.44
27.49
26.26
24.65
22.62
20.16
17.23
13.82
9.98
5.95
1.93
-1.95
-5.80
-10.01
-15.00
-20.95
-27.58
-34.03
-39.18
-42.02
-42.05
-39.43
-34.86
-29.27
-23.50
-18.07
-13.22
-9.04
-5.59
-2.96
-1.34
-0.81
-1.27
-2.38
-3.62
-4.48
-4.63
-4.04
-2.92
-1.64
-0.51
0.36
1.05
1.76
2.71
3.94
5.31
6.59
7.56
8.15
8.44
8.61
8.77
8.93
8.94
8.61
7.80
6.48
4.73
2.67
0.43
-1.83
-3.95
-5.78
-7.28
-8.52
-9.71
-11.12
-12.98
-15.40
-18.34
-21.66
-25.15
-28.59
-31.77
-34.65
-37.27
-39.92
-42.99
-46.76
-51.22
-55.88
-59.91
-62.27
-62.22
-59.42
-54.09
-46.85
-38.39
-29.38
-20.35
-11.77
-4.11
2.18
6.75
9.48
10.53
10.31
9.37
8.19
7.14
6.44
6.28
6.83
8.18
10.32
13.07
16.08
18.99
21.54
23.51
24.80
25.28
24.81
23.26
20.60
17.08
13.20
9.61
6.98
5.76
6.11
7.84
10.51
13.50
16.18
18.10
19.16
19.66
20.18
21.20
22.89
24.89
26.43
26.61
24.72
20.47
14.07
6.15
-2.37
-10.45
-17.04
-21.34
-22.94
-21.95
-19.02
-15.07
-11.04
-7.56
-4.87
-2.86
-1.29
0.03
1.15
1.99
2.51
2.83
3.23
3.97
5.19
6.74
8.23
9.26
9.65
9.47
9.02
8.57
8.25
8.00
7.75
7.54
7.62
8.25
9.52
11.28
13.16
14.80
16.00
16.70
16.86
16.36
14.93
12.24
8.11
2.70
-3.52
-9.86
-15.67
-20.55
-24.50
-27.88
-31.32
-35.39
-40.46
-46.54
-53.25
-60.02
-66.24
-71.39
-75.01
-76.67
-75.97
-72.67
-66.87
-59.10
-50.23
-41.26
-32.98
-25.77
-19.55
-14.03
-8.92
-4.16
0.09
3.51
5.89
7.29
8.07
8.78
9.91
11.74
14.22
17.02
19.79
22.30
24.53
26.53
28.40
30.13
31.60
32.67
33.28
33.44
33.21
32.72
32.02
31.22
30.33
29.34
28.17
26.66
24.67
22.16
19.19
15.99
12.80
9.79
6.97
4.24
1.45
-1.48
-4.58
-7.87
-11.39
-15.28
-19.57
-24.15
-28.55
-32.10
-34.06
-33.85
-31.27
-26.45
-19.88
-12.27
-4.41
2.93
9.18
14.06
17.66
20.25
22.12
23.43
24.16
24.35
24.12
23.80
23.77
24.24
25.14
26.22
27.23
28.06
28.78
29.45
30.05
30.37
30.16
29.24
27.66
25.59
23.30
21.00
18.80
16.69
14.60
12.42
10.07
7.48
4.67
1.77
-1.04
-3.60
-5.86
-7.91
-9.93
-12.12
-14.63
-17.62
-21.19
-25.38
-29.99
-34.53
-38.15
-39.88
-38.93
-35.05
-28.70
-20.78
-12.34
-4.18
3.33
10.10
16.16
21.43
25.72
28.81
30.63
31.38
31.43
31.18
30.93
30.76
30.61
30.40
30.11
29.84
29.68
29.66
29.61
29.28
28.42
27.02
25.33
23.72
22.51
21.79
21.34
20.84
19.97
18.57
16.61
14.22
11.52
8.73
6.05
3.71
1.82
0.32
-1.03
-2.53
-4.35
-6.58
-9.08
-11.76
-14.58
-17.58
-20.85
-24.37
-28.09
-31.98
-36.07
-40.37
-44.85
-49.19
-52.82
-55.02
-55.19
-53.03
-48.77
-42.94
-36.33
-29.60
-23.17
-17.10
-11.28
-5.64
-0.33
4.29
7.80
10.01
11.07
11.48
11.80
12.41
13.36
14.51
15.74
17.07
18.69
20.76
23.17
25.55
27.43
28.51
28.84
28.75
28.62
28.68
28.81
28.72
28.09
26.83
25.06
23.04
21.02
19.15
17.46
15.88
14.34
12.74
10.99
9.04
6.86
4.47
1.92
-0.76
-3.59
-6.64
-10.00
-13.74
-17.89
-22.47
-27.42
-32.54
-37.45
-41.47
-43.88
-44.03
-41.67
-37.07
-30.93
-24.12
-17.45
-11.45
-6.34
-2.16
1.21
3.94
6.18
8.07
9.73
11.19
12.46
13.49
14.22
14.64
14.82
14.94
15.24
15.96
17.17
18.80
20.55
22.02
22.84
22.85
22.07
20.83
19.50
18.44
17.87
17.76
17.92
17.96
17.49
16.19
13.97
11.00
7.68
4.53
1.94
0.03
-1.33
-2.58
-4.19
-6.41
-9.24
-12.40
-15.58
-18.57
-21.40
-24.26
-27.34
-30.75
-34.42
-38.23
-41.98
-45.52
-48.71
-51.26
-52.78
-52.79
-50.91
-47.02
-41.37
-34.58
-27.49
-20.86
-15.19
-10.60
-6.91
-3.82
-1.11
1.31
3.39
5.13
6.59
7.96
9.40
11.01
12.76
14.62
16.53
18.46
20.43
22.39
24.21
25.66
26.54
26.78
26.49
25.98
25.60
25.60
26.06
26.79
27.49
27.86
27.67
26.85
25.51
23.81
21.94
20.11
18.42
16.91
15.49
13.95
12.09
9.83
7.29
4.78
2.63
0.98
-0.35
-1.82
-3.90
-6.81
-10.37
-14.19
-17.86
-21.20
-24.37
-27.68
-31.43
-35.64
-40.11
-44.40
-48.06
-50.63
-51.71
-50.99
-48.34
-43.86
-37.97
-31.23
-24.31
-17.71
-11.72
-6.47
-2.04
1.42
3.77
4.97
5.21
4.90
4.61
4.87
6.02
8.03
10.64
13.42
15.99
18.11
19.80
21.15
22.25
23.12
23.71
24.00
24.04
23.94
23.78
23.56
23.14
22.29
20.90
19.04
16.97
15.03
13.45
12.19
11.08
9.88
8.53
7.17
6.02
5.15
4.38
3.31
1.55
-1.09
-4.37
-7.82
-10.93
-13.43
-15.43
-17.30
-19.40
-21.94
-24.90
-28.20
-31.88
-36.01
-40.60
-45.37
-49.56
-52.17
-52.29
-49.51
-44.21
-37.36
-30.10
-23.35
-17.50
-12.48
-8.06
-4.21
-1.11
0.89
1.60
1.25
0.40
-0.19
0.15
1.64
4.11
7.09
10.01
12.47
14.25
15.37
16.04
16.62
17.48
18.88
20.89
23.25
25.48
27.08
27.67
27.22
26.00
24.46
23.02
21.93
21.19
20.69
20.32
19.98
19.61
19.09
18.20
16.74
14.61
11.94
9.03
6.21
3.60
1.11
-1.50
-4.37
-7.35
-10.14
-12.47
-14.42
-16.52
-19.51
-23.89
-29.55
-35.78
-41.49
-45.77
-48.07
-48.39
-47.02
-44.32
-40.54
-35.84
-30.45
-24.65
-18.85
-13.35
-8.33
-3.79
0.31
3.97
7.05
9.38
10.92
11.82
12.44
13.22
14.50
16.39
18.73
21.22
23.65
25.96
28.25
30.62
32.93
34.82
35.83
35.67
34.39
32.49
30.61
29.28
28.68
28.57
28.55
28.26
27.49
26.24
24.60
22.69
20.61
18.55
16.68
15.04
13.54
11.85
9.58
6.49
2.56
-1.94
-6.54
-10.88
-14.76
-18.20
-21.40
-24.60
-28.03
-31.91
-36.34
-41.17
-45.97
-49.96
-52.22
-51.99
-48.97
-43.44
-36.17
-28.17
-20.33
-13.22
-7.12
-2.11
1.70
4.22
5.43
5.54
5.05
4.64
4.88
6.10
8.22
10.85
13.54
15.94
17.91
19.49
20.80
21.95
22.95
23.78
24.35
24.57
24.41
23.86
23.08
22.24
21.42
20.56
19.48
18.02
16.19
14.22
12.47
11.21
10.46
10.01
9.51
8.72
7.51
5.86
3.76
1.18
-1.88
-5.30
-8.79
-12.01
-14.82
-17.31
-19.86
-22.94
-26.93
-31.91
-37.68
-43.74
-49.41
-53.90
-56.51
-56.74
-54.39
-49.65
-43.06
-35.36
-27.40
-19.96
-13.56
-8.42
-4.47
-1.41
1.10
3.29
5.32
7.24
9.08
10.90
12.77
14.69
16.58
18.32
19.80
21.04
22.21
23.54
25.21
27.24
29.39
31.29
32.45
32.56
31.65
30.07
28.39
27.19
26.77
27.02
27.53
27.75
27.26
25.90
23.72
20.91
17.70
14.34
11.00
7.85
4.96
2.29
-0.21
-2.60
-4.88
-7.03
-9.08
-11.18
-13.58
-16.54
-20.23
-24.58
-29.39
-34.31
-38.99
-42.99
-45.84
-47.03
-46.16
-43.11
-38.07
-31.55
-24.26
-16.90
-10.04
-4.05
0.91
4.92
8.17
10.92
13.32
15.37
16.97
18.01
18.56
18.86
19.27
20.08
21.38
23.03
24.85
26.63
28.22
29.50
30.30
30.48
29.89
28.59
26.80
24.88
23.11
21.59
20.20
18.73
17.00
15.04
13.00
11.02
9.10
7.01
4.44
1.23
-2.52
-6.43
-10.05
-13.08
-15.60
-17.97
-20.65
-23.92
-27.84
-32.23
-36.86
-41.44
-45.70
-49.25
-51.59
-52.22
-50.83
-47.36
-42.08
-35.48
-28.14
-20.66
-13.59
-7.41
-2.43
1.30
3.99
6.12
8.15
10.38
12.80
15.12
17.00
18.21
18.74
18.80
18.71
18.82
19.36
20.47
22.13
24.17
26.32
28.20
29.49
29.90
29.37
27.98
26.00
23.82
21.81
20.20
19.07
18.26
17.51
16.51
15.12
13.39
11.46
9.51
7.59
5.65
3.56
1.16
-1.58
-4.61
-7.73
-10.76
-13.53
-16.00
-18.34
-20.85
-23.95
-27.98
-33.00
-38.66
-44.21
-48.69
-51.20
-51.19
-48.60
-43.82
-37.54
-30.57
-23.64
-17.21
-11.57
-6.77
-2.79
0.49
3.21
5.56
7.71
9.72
11.62
13.39
15.02
16.54
18.09
19.78
21.71
23.86
26.12
28.30
30.19
31.60
32.39
32.57
32.20
31.48
30.62
29.78
28.99
28.15
27.14
25.93
24.58
23.18
21.75
20.22
18.52
16.58
14.49
12.37
10.27
8.06
5.55
2.59
-0.71
-4.00
-6.80
-8.88
-10.41
-11.95
-14.18
-17.59
-22.27
-27.83
-33.53
-38.50
-41.91
-43.15
-41.96
-38.48
-33.20
-26.86
-20.21
-13.88
-8.23
-3.41
0.61
3.94
6.70
9.02
10.93
12.44
13.50
14.08
14.27
14.28
14.37
14.71
15.33
16.14
17.00
17.83
18.68
19.66
20.76
21.79
22.35
22.07
20.82
18.82
16.60
14.66
13.29
12.39
11.57
10.42
8.76
6.69
4.53
2.57
0.96
-0.39
-1.69
-3.23
-5.18
-7.58
-10.31
-13.11
-15.70
-17.87
-19.63
-21.23
-23.10
-25.65
-29.04
-33.18
-37.76
-42.36
-46.46
-49.44
-50.69
-49.65
-46.16
-40.60
-33.90
-27.17
-21.36
-16.84
-13.38
-10.39
-7.35
-4.04
-0.69
2.30
4.60
6.09
6.92
7.34
7.66
8.13
9.00
10.36
12.21
14.41
16.74
19.00
21.12
23.05
24.76
26.16
27.16
27.67
27.72
27.43
26.95
26.38
25.74
25.02
24.24
23.38
22.47
21.41
20.14
18.66
17.08
15.63
14.46
13.47
12.39
10.86
8.68
5.88
2.72
-0.51
-3.60
-6.52
-9.35
-12.17
-15.00
-17.85
-20.79
-23.98
-27.64
-31.85
-36.38
-40.61
-43.63
-44.63
-43.14
-39.32
-33.81
-27.52
-21.29
-15.62
-10.77
-6.76
-3.56
-1.09
0.80
2.39
4.01
5.86
7.95
10.05
11.90
13.30
14.30
15.08
15.90
16.90
18.10
19.47
20.97
22.54
24.03
25.13
25.44
24.70
22.84
20.16
17.17
14.38
12.18
10.63
9.54
8.61
7.57
6.28
4.77
3.16
1.62
0.23
-1.02
-2.24
-3.61
-5.22
-7.09
-9.16
-11.37
-13.72
-16.33
-19.30
-22.66
-26.33
-30.17
-34.13
-38.20
-42.36
-46.46
-50.04
-52.39
-52.77
-50.76
-46.45
-40.45
-33.69
-27.13
-21.37
-16.59
-12.60
-9.07
-5.80
-2.83
-0.36
1.39
2.45
3.10
3.82
5.04
6.94
9.38
11.98
14.30
16.09
17.36
18.43
19.66
21.31
23.37
25.60
27.56
28.87
29.30
28.88
27.86
26.54
25.22
24.04
22.96
21.87
20.67
19.36
17.98
16.60
15.27
14.00
12.74
11.47
10.16
8.80
7.30
5.54
3.33
0.55
-2.81
-6.62
-10.58
-14.32
-17.55
-20.09
-22.03
-23.65
-25.40
-27.72
-30.90
-34.94
-39.41
-43.58
-46.54
-47.42
-45.74
-41.59
-35.52
-28.42
-21.19
-14.52
-8.80
-4.10
-0.31
2.72
5.10
6.95
8.37
9.50
10.54
11.67
13.04
14.72
16.68
18.80
20.93
22.88
24.51
25.77
26.65
27.16
27.30
27.04
26.39
25.35
23.97
22.37
20.70
19.03
17.37
15.61
13.58
11.20
8.54
5.86
3.48
1.59
0.09
-1.36
-3.13
-5.41
-8.07
-10.71
-12.91
-14.53
-15.76
-17.09
-19.00
-21.78
-25.43
-29.77
-34.52
-39.39
-43.92
-47.47
-49.24
-48.55
-45.16
-39.44
-32.32
-24.93
-18.11
-12.24
-7.20
-2.70
1.50
5.30
8.47
10.78
12.21
12.98
13.48
14.07
15.03
16.43
18.22
20.20
22.15
23.85
25.21
26.26
27.11
27.85
28.42
28.64
28.29
27.29
25.76
24.03
22.43
21.12
20.08
19.06
17.84
16.34
14.63
12.89
11.26
9.83
8.52
7.18
5.64
3.78
1.56
-1.00
-3.84
-6.83
-9.84
-12.75
-15.49
-18.11
-20.71
-23.51
-26.76
-30.69
-35.45
-40.91
-46.59
-51.66
-55.12
-56.14
-54.33
-49.94
-43.73
-36.69
-29.66
-23.12
-17.08
-11.33
-5.72
-0.34
4.47
8.35
11.06
12.69
13.60
14.26
15.04
16.12
17.49
19.00
20.53
22.05
23.58
25.28
27.20
29.31
31.44
33.30
34.50
34.79
34.14
32.81
31.30
30.06
29.37
29.12
28.96
28.42
27.23
25.35
23.03
20.60
18.34
16.31
14.42
12.42
10.11
7.37
4.20
0.81
-2.58
-5.76
-8.72
-11.63
-14.78
-18.45
-22.77
-27.69
-32.94
-38.07
