1520868722.00
64.000000
-0.00
-0.00
-0.00
-0.00
-0.00
-0.00
-0.00
-0.00
-0.00
-0.00
0.00
0.01
0.01
-0.00
-0.03
-0.05
-0.05
0.00
0.13
0.36
0.66
1.01
1.37
1.72
2.06
2.40
2.79
3.24
3.80
4.42
5.06
5.66
6.20
6.68
7.15
7.68
8.31
9.14
10.09
11.04
11.88
12.56
13.14
13.76
14.65
15.96
17.91
20.32
22.90
25.38
27.58
29.57
31.68
34.32
37.81
42.54
48.15
54.10
59.83
64.97
69.58
74.14
79.34
85.71
93.76
103.00
112.62
121.73
129.77
136.75
143.30
150.75
157.77
166.64
177.95
191.79
206.97
220.57
228.25
225.36
208.53
176.87
132.76
80.05
23.07
-34.94
-92.44
-149.16
-205.23
-260.37
-313.74
-363.87
-409.83
-450.91
-486.50
-515.74
-537.23
-549.22
-549.96
-538.37
-514.21
-478.67
-433.88
-382.45
-327.02
-269.84
-212.63
-156.66
-102.95
-52.37
-5.90
35.58
71.43
101.35
125.50
144.38
158.69
169.15
176.37
180.75
182.57
182.07
179.51
175.23
169.65
163.18
156.15
148.81
141.30
133.69
126.02
118.33
110.69
103.16
95.80
88.68
81.83
75.25
68.95
62.95
57.25
51.86
46.78
42.03
37.59
33.45
29.61
26.07
22.81
19.83
17.11
14.67
12.48
10.54
8.83
7.35
6.07
4.97
4.05
3.27
2.62
2.09
1.65
1.30
1.01
0.79
0.61
0.48
0.37
0.29
0.24
0.20
0.18
0.17
0.18
0.19
0.21
0.24
0.27
0.31
0.35
0.39
0.43
0.48
0.53
0.58
0.63
0.68
0.74
0.81
0.87
0.95
1.03
1.12
1.22
1.34
1.46
1.61
1.77
1.95
2.14
2.36
2.61
2.88
3.18
3.50
3.86
4.26
4.68
5.15
5.65
6.18
6.76
7.38
8.05
8.75
9.50
10.30
11.14
12.03
12.96
13.94
14.99
16.10
17.28
18.50
19.77
21.04
22.27
23.36
24.23
24.75
24.81
24.31
23.13
21.26
18.66
15.42
11.60
7.37
2.91
-1.56
-5.83
-9.72
-13.04
-15.71
-17.64
-18.82
-19.29
-19.13
-18.43
-17.32
-15.91
-14.27
-12.48
-10.62
-8.72
-6.80
-4.95
-3.16
-1.43
0.27
2.02
3.84
5.76
7.80
9.99
12.22
14.45
16.68
18.96
21.38
23.98
26.81
29.89
33.29
36.74
40.14
43.50
46.93
50.54
54.43
58.62
63.06
67.76
72.18
76.14
79.69
83.04
86.51
90.26
94.32
98.50
102.56
105.61
107.20
107.26
105.96
103.42
99.41
92.90
81.83
68.38
52.63
34.74
15.23
-5.08
-25.25
-44.57
-62.75
-79.89
-96.41
-113.74
-133.27
-156.09
-182.43
-211.03
-238.78
-261.18
-273.62
-273.01
-259.54
-236.15
-207.53
-178.41
-152.10
-129.83
-111.27
-95.45
-81.66
-70.08
-61.17
-55.04
-51.34
-49.21
-47.74
-46.25
-44.48
-42.62
-41.19
-40.71
-41.49
-43.87
-48.06
-54.11
-61.62
-69.30
-75.07
-76.36
-70.91
-57.64
-37.16
-11.80
15.16
40.45
61.69
77.74
88.63
95.06
97.83
97.56
94.71
89.72
83.23
76.20
69.69
64.67
61.61
60.37
60.22
60.21
59.51
57.72
54.94
51.59
48.07
44.50
40.65
35.99
30.01
22.47
13.60
4.00
-5.52
-14.26
-21.87
-28.38
-34.21
-40.04
-46.61
-54.65
-64.64
-76.55
-89.47
-101.48
-109.83
-111.61
-104.74
-88.82
-65.40
-37.63
-9.29
16.40
37.48
53.42
64.72
72.26
76.80
78.74
78.28
75.71
71.59
66.77
62.22
58.72
56.62
55.77
55.61
55.44
54.66
53.00
50.51
47.45
44.09
40.47
36.33
31.24
24.77
16.78
7.60
-2.09
-11.46
-19.81
-26.90
-32.90
-38.34
-43.91
-50.30
-58.18
-68.01
-79.78
-92.70
-105.00
-114.05
-116.95
-111.53
-97.10
-74.89
-47.75
-19.27
7.21
29.46
46.57
58.79
66.90
71.78
74.04
74.07
72.20
68.88
64.82
60.78
57.45
55.16
53.86
53.22
52.79
52.22
51.29
49.94
48.15
45.90
43.09
39.59
35.23
29.88
23.46
16.03
7.84
-0.76
-9.34
-17.54
-25.18
-32.29
-39.07
-45.84
-53.06
-61.35
-71.27
-83.07
-96.14
-108.74
-118.16
-121.38
-116.03
-101.41
-78.78
-51.08
-22.03
5.00
27.66
45.02
57.26
65.24
69.90
72.06
72.29
71.02
68.64
65.63
62.48
59.59
57.24
55.47
54.18
53.22
52.41
51.57
50.49
48.93
46.66
43.51
39.49
34.69
29.28
23.33
16.85
9.75
2.04
-6.16
-14.51
-22.55
-29.82
-36.11
-41.58
-46.73
-52.39
-59.52
-68.85
-80.59
-93.97
-107.14
-117.33
-121.49
-117.17
-103.45
-81.39
-53.78
-24.33
3.40
26.84
44.82
57.38
65.29
69.64
71.45
71.53
70.50
68.80
66.73
64.54
62.43
60.58
59.10
58.04
57.32
56.79
56.28
55.61
54.60
53.04
50.66
47.23
42.65
37.11
30.98
24.67
18.47
12.34
6.04
-0.71
-8.01
-15.67
-23.26
-30.37
-36.80
-42.72
-48.66
-55.41
-63.78
-74.12
-85.97
-97.70
-106.73
-110.05
-105.26
-91.51
-69.93
-43.41
-15.64
9.93
30.99
46.62
57.06
63.19
66.07
66.61
65.56
63.52
60.98
58.37
55.96
53.93
52.35
51.17
50.35
49.84
49.61
49.57
49.52
49.09
47.85
45.43
41.72
36.93
31.49
25.86
20.21
14.52
8.52
2.08
-4.76
-11.67
-18.25
-24.18
-29.46
-34.37
-39.38
-45.11
-52.12
-60.79
-71.17
-82.55
-93.39
-101.28
-103.58
-98.19
-84.50
-63.75
-38.81
-13.28
9.65
27.97
41.11
49.58
54.27
55.89
54.86
51.46
46.24
40.18
34.55
30.55
28.86
29.38
31.30
33.51
35.00
35.29
34.46
32.98
31.38
29.85
28.11
25.49
21.27
15.05
7.02
-2.05
-11.07
-19.05
-25.47
-30.43
-34.55
-38.72
-43.81
-50.50
-59.10
-69.38
-80.39
-90.37
-96.97
-97.84
-91.37
-77.42
-57.51
-34.43
-11.37
9.01
25.21
36.96
44.77
49.41
51.43
51.16
48.83
44.89
40.13
35.54
32.04
30.08
29.55
29.87
30.30
30.29
29.70
28.73
27.69
26.70
25.54
23.63
20.35
15.26
8.36
0.17
-8.47
-16.66
-23.73
-29.46
-34.16
-38.54
-43.48
-49.82
-58.09
-68.30
-79.70
-90.71
-99.02
-102.16
-98.16
-86.38
-67.79
-44.88
-20.86
1.30
19.60
33.36
42.90
49.01
52.45
53.67
52.95
50.60
47.19
43.44
40.12
37.74
36.41
35.82
35.42
34.73
33.50
31.80
29.88
27.91
25.91
23.59
20.45
16.01
10.03
2.63
-5.69
-14.13
-21.89
-28.45
-33.74
-38.22
-42.75
-48.31
-55.74
-65.39
-76.86
-88.85
-99.20
-105.32
-104.79
-96.23
-79.86
-57.58
-32.47
-7.88
13.51
30.29
42.32
50.35
55.36
58.18
59.28
58.97
57.54
55.44
53.23
51.41
50.23
49.61
49.19
48.49
47.16
45.16
42.70
40.14
37.80
35.66
33.37
30.36
26.04
20.11
12.72
4.44
-3.96
-11.76
-18.56
-24.35
-29.54
-34.79
-40.84
-48.36
-57.71
-68.68
-80.15
-90.18
-96.20
-95.83
-87.70
-72.12
-51.11
-27.80
-5.42
13.65
28.38
38.93
46.12
50.79
53.45
54.26
53.34
51.01
47.85
44.64
41.99
40.18
39.08
38.26
37.24
35.78
33.94
32.05
30.47
29.32
28.27
26.63
23.61
18.64
11.73
3.51
-5.01
-12.79
-19.18
-24.09
-27.99
-31.68
-36.01
-41.73
-49.22
-58.35
-68.30
-77.43
-83.52
-84.26
-78.04
-64.64
-45.42
-23.08
-0.72
18.98
34.43
45.19
51.65
54.52
54.45
52.00
47.78
42.61
37.48
33.33
30.75
29.80
29.99
30.54
30.77
30.30
29.25
28.01
26.99
26.21
25.26
23.37
19.75
14.01
6.43
-2.12
-10.45
-17.58
-23.12
-27.47
-31.61
-36.76
-43.87
-53.24
-64.28
-75.46
-84.53
-89.02
-86.95
-77.42
-61.07
-39.98
-17.08
4.65
23.00
36.92
46.41
52.12
54.80
55.02
53.18
49.69
45.17
40.42
36.19
33.02
30.99
29.83
29.09
28.38
27.55
26.71
26.03
25.54
24.96
23.61
20.69
15.59
8.24
-0.74
-10.20
-18.85
-25.79
-30.83
-34.57
-38.20
-43.05
-50.12
-59.72
-71.12
-82.58
-91.52
-95.22
-91.56
-79.87
-61.19
-38.10
-13.87
8.50
27.02
40.96
50.57
56.52
59.53
60.11
58.72
55.81
51.99
47.91
44.12
40.92
38.27
35.93
33.56
31.04
28.48
26.24
24.66
23.78
23.12
21.75
18.64
13.12
5.30
-3.93
-13.18
-21.14
-27.08
-31.15
-34.29
-37.86
-43.17
-51.04
-61.43
-73.30
-84.64
-92.86
-95.40
-90.49
-77.83
-58.82
-36.14
-13.05
7.67
24.33
36.59
45.05
50.71
54.35
56.39
56.91
55.97
53.85
51.05
48.20
45.79
43.97
42.57
41.26
39.69
37.69
35.35
32.88
30.53
28.27
25.79
22.51
17.85
11.51
3.70
-4.81
-13.05
-20.16
-25.82
-30.34
-34.54
-39.51
-46.18
-55.09
-66.14
-78.38
-89.97
-98.48
-101.36
-96.81
-84.43
-65.47
-42.55
-18.82
2.96
21.07
34.99
45.09
52.07
56.55
58.88
59.27
57.98
55.37
52.04
48.61
45.66
43.49
42.09
41.19
40.35
39.23
37.64
35.61
33.35
31.06
28.79
26.36
23.33
19.21
13.64
6.61
-1.44
-9.78
-17.58
-24.23
-29.57
-33.88
-37.86
-42.37
-48.24
-56.01
-65.72
-76.65
-87.21
-95.13
-97.92
-93.63
-81.59
-62.79
-39.71
-15.59
6.52
24.56
37.80
46.62
52.01
54.99
56.25
56.13
54.78
52.42
49.44
46.35
43.60
41.46
39.93
38.85
37.97
37.14
36.29
35.41
34.48
33.40
31.94
29.78
26.59
22.11
16.28
9.32
1.73
-5.82
-12.73
-18.64
-23.60
-27.98
-32.38
-37.40
-43.57
-51.21
-60.27
-70.13
-79.47
-86.31
-88.43
-84.06
-72.57
-54.89
-33.33
-10.91
9.54
26.17
38.31
46.26
50.72
52.35
51.56
48.65
44.07
38.63
33.44
29.55
27.58
27.47
28.52
29.73
30.20
29.54
27.88
25.75
23.69
21.94
20.30
18.18
14.92
10.15
3.99
-2.94
-9.79
-15.82
-20.74
-24.78
-28.58
-32.91
-38.45
-45.56
-54.25
-63.97
-73.60
-81.37
-85.19
-83.16
-74.20
-58.63
-38.24
-15.83
5.59
23.67
37.18
46.06
51.01
52.96
52.62
50.43
46.63
41.54
35.75
30.05
25.26
21.88
19.90
18.91
18.29
17.52
16.38
15.00
13.63
12.46
11.52
10.61
9.37
7.41
4.34
-0.10
-5.89
-12.75
-20.09
-27.20
-33.50
-38.76
-43.22
-47.55
-52.62
-59.28
-68.00
-78.59
-89.96
-100.20
-106.83
-107.45
-100.51
-85.96
-65.40
-41.62
-17.86
3.21
20.03
32.33
40.73
46.22
49.64
51.45
51.82
50.86
48.90
46.42
44.07
42.33
41.38
41.10
41.17
41.27
41.23
41.04
40.76
40.45
40.02
39.24
37.81
35.37
31.61
26.29
19.44
11.34
2.59
-6.08
-13.99
-20.71
-26.25
-31.00
-35.59
-40.74
-47.12
-55.10
-64.58
-74.73
-83.96
-90.08
-90.82
-84.60
-71.16
-51.79
-28.99
-5.82
15.01
31.72
43.69
51.22
55.22
56.68
56.47
55.22
53.36
51.20
48.94
46.78
44.89
43.39
42.29
41.45
40.69
39.76
38.42
36.56
34.14
31.24
27.94
24.32
20.34
15.85
10.63
4.52
-2.54
-10.32
-18.40
-26.28
-33.56
-40.08
-46.00
-51.71
-57.75
-64.72
-73.10
-83.10
-94.32
-105.48
-114.37
-118.26
-114.72
-102.58
-82.55
-57.25
-30.39
-5.66
14.43
28.98
38.49
44.18
47.15
48.04
47.05
44.28
40.09
35.15
30.24
25.96
22.52
19.71
17.19
14.63
12.01
9.54
7.62
6.61
6.68
7.66
9.00
9.86
9.41
7.08
2.86
-2.67
-8.55
-13.84
-18.00
-21.15
-23.97
-27.42
-32.39
-39.41
-48.47
-58.94
-69.51
-78.29
-83.13
-82.11
-74.20
-59.68
-40.24
-18.47
2.87
21.57
36.47
47.36
54.60
58.72
60.15
59.27
56.64
53.13
49.82
47.70
47.34
48.62
50.87
53.15
54.68
55.16
54.74
53.80
52.63
51.15
48.85
45.03
39.13
31.10
21.44
11.13
1.18
-7.69
-15.37
-22.37
-29.61
-38.07
-48.41
-60.69
-74.15
-87.17
-97.52
-102.75
-100.92
-91.13
-74.01
-51.59
-26.73
-2.34
19.33
37.02
50.38
59.60
64.99
66.89
65.75
62.33
57.71
53.18
49.76
47.95
47.49
47.58
47.31
46.05
43.75
40.79
37.70
34.71
31.58
27.67
22.26
14.96
5.97
-4.01
-14.00
-23.16
-31.05
-37.79
-43.93
-50.34
-57.95
-67.45
-78.86
-91.22
-102.46
-109.72
-110.23
-102.19
-85.72
-62.85
-37.05
-12.02
9.40
25.84
37.41
45.03
49.81
52.43
53.17
52.05
49.21
45.07
40.22
35.25
30.48
26.06
22.18
19.35
18.39
19.92
23.79
28.66
32.17
31.76
25.71
13.86
-2.38
-20.71
-38.95
-55.71
-70.63
-84.00
-96.39
-108.23
-119.89
-131.66
-143.71
-155.79
-166.87
-174.98
-177.59
-172.35
-158.02
-135.21
-106.38
-75.20
-45.34
-19.40
1.70
18.59
32.59
44.90
55.92
65.27
72.18
76.10
77.10
75.91
73.60
71.17
69.20
67.74
66.47
64.91
62.80
60.15
57.24
54.40
51.76
49.09
45.86
41.44
35.45
28.07
20.02
12.35
5.98
1.29
-2.15
-5.47
-10.10
-17.37
-27.97
-41.71
-57.42
-72.98
-85.73
-92.87
-92.20
-82.75
-65.19
-41.76
-15.63
9.99
32.84
52.00
67.82
81.26
93.21
103.93
113.07
119.99
124.29
126.14
126.27
125.67
125.15
125.03
125.19
125.26
124.91
124.11
123.00
121.70
120.03
117.39
112.89
105.64
95.15
81.49
65.26
47.45
29.02
10.74
-6.95
-23.81
-39.67
-54.33
-67.57
-79.39
-90.06
-100.03
-109.57
-118.29
-124.92
-127.47
-123.99
-113.32
-95.85
-73.43
-48.88
-24.98
-3.67
14.19
28.68
40.18
48.92
54.84
57.73
57.69
55.26
51.54
47.79
45.05
43.79
43.84
44.49
44.90
44.41
42.80
40.31
37.42
34.57
31.85
28.87
24.94
19.38
11.92
2.86
-6.91
-16.34
-24.57
-31.36
-37.04
-42.42
-48.41
-55.76
-64.80
-75.43
-87.01
-98.39
-107.95
-113.82
-114.31
-108.39
-96.17
-78.98
-59.08
-39.05
-21.03
-6.32
4.79
12.65
17.79
20.59
21.29
20.17
17.92
15.67
14.76
16.21
20.30
26.52
33.81
41.18
48.15
54.83
61.70
69.17
77.15
84.95
91.44
95.34
95.51
91.17
82.06
68.43
50.96
30.75
9.05
-12.80
-33.47
-51.74
-66.59
-77.35
-83.77
-85.93
-83.92
-77.56
-66.23
-49.09
-25.66
3.62
37.11
72.12
105.64
135.05
158.69
176.00
187.19
192.77
193.31
189.24
181.07
169.53
155.64
140.57
125.44
111.10
97.94
85.93
74.71
63.86
53.02
42.05
30.98
19.96
9.18
-1.24
-11.26
-20.98
-30.52
-40.01
-49.47
-58.81
-67.87
-76.48
-84.46
-91.64
-97.92
-103.27
-107.82
-111.96
-116.26
-121.41
-127.92
-135.79
-144.16
-151.31
-155.00
-153.10
-144.41
-129.18
-109.19
-87.27
-66.44
-48.98
-35.96
-27.20
-21.73
-18.43
-16.45
-15.27
-14.59
-14.08
-13.27
-11.73
-9.28
-6.07
-2.58
0.75
3.74
6.59
9.66
13.18
16.98
20.42
22.65
23.00
21.31
18.02
13.98
10.10
6.96
4.61
2.56
0.07
-3.50
-8.36
-14.08
-19.78
-24.43
-27.26
-28.11
-27.46
-26.31
-25.82
-27.02
-30.40
-35.77
-42.08
-47.58
-50.12
-47.76
-39.38
-25.21
-6.88
13.05
31.88
47.57
59.19
66.81
71.10
72.91
72.85
71.39
68.96
66.01
63.09
60.59
58.69
57.25
55.99
54.72
53.42
52.31
51.76
52.02
53.00
54.16
54.52
52.88
48.32
40.61
30.67
20.35
11.91
7.03
6.05
7.64
9.31
8.51
3.68
-5.13
-16.53
-28.52
-39.52
-48.77
-56.40
-62.99
-69.17
-75.39
-81.97
-89.08
-96.52
-103.45
-108.18
-108.49
-102.36
-88.95
-69.13
-45.40
-21.00
1.32
20.12
35.53
48.66
60.66
72.02
82.47
91.39
98.36
103.53
107.46
110.64
113.00
113.85
112.16
107.18
98.91
88.19
76.36
64.72
54.09
44.64
35.96
27.45
18.64
9.37
-0.19
-9.56
-18.28
-25.92
-32.30
-37.48
-41.74
-45.50
-49.18
-53.08
-57.29
-61.70
-66.02
-69.94
-73.25
-75.94
-78.27
-80.77
-84.10
-88.95
-95.75
-104.31
-113.64
-121.84
-126.52
-125.38
-117.09
-101.82
-81.33
-58.47
-36.37
-17.54
-3.38
5.87
10.72
12.08
10.94
8.22
4.84
1.67
-0.56
-1.29
-0.22
2.68
7.26
13.26
20.32
28.04
35.94
43.57
50.49
56.43
61.20
64.72
66.93
67.73
67.07
64.87
61.11
55.81
49.04
40.90
31.60
21.45
10.91
0.46
-9.43
-18.50
-26.83
-34.88
-43.34
-52.83
-63.55
-74.85
-85.20
-92.45
-94.50
-90.00
-78.95
-62.73
-43.74
-24.68
-7.78
5.59
15.01
20.69
23.12
22.73
19.96
15.23
9.26
3.02
-2.32
-5.79
-6.86
-5.69
-2.99
0.17
2.83
4.43
4.93
4.64
3.97
3.03
1.68
-0.54
-4.03
-8.95
-15.05
-21.78
-28.39
-34.26
-39.11
-43.02
-46.44
-50.06
-54.64
-60.85
-68.96
-78.56
-88.36
-96.34
-100.13
-97.77
-88.38
-72.61
-52.45
-30.64
-9.87
7.90
21.78
31.69
38.03
41.27
41.72
39.73
35.77
30.66
25.47
21.25
18.76
18.17
19.02
20.45
21.57
21.76
20.92
19.39
17.62
15.90
14.02
11.44
7.41
1.48
-6.28
-15.26
-24.49
-33.05
-40.38
-46.46
-51.85
-57.42
-64.19
-73.00
-84.11
-96.96
-109.95
-120.62
-126.10
-124.00
-113.14
-94.10
-69.14
-41.62
-15.02
7.99
26.00
38.90
47.48
52.84
55.96
57.48
57.76
57.02
55.52
53.62
51.76
50.32
49.48
49.19
49.17
49.08
48.66
47.81
46.59
45.07
43.19
40.71
37.21
32.32
25.83
17.86
8.86
-0.53
-9.66
-18.08
-25.61
-32.45
-39.05
-46.14
-54.54
-64.99
-77.80
-92.48
-107.39
-119.87
-126.76
-125.34
-114.29
-94.27
-67.76
-38.37
-9.73
15.37
35.45
50.29
60.57
67.39
71.83
74.71
76.44
77.12
76.68
75.13
72.76
70.12
67.83
66.37
65.90
66.23
66.96
67.57
67.56
66.53
64.20
60.47
55.50
49.56
42.91
35.68
27.80
19.17
9.85
0.16
-9.37
-18.19
-26.07
-33.12
-39.77
-46.69
-54.62
-64.27
-76.14
-90.12
-105.07
-118.64
-127.63
-128.79
-119.99
-101.19
-74.53
-43.80
-13.17
13.95
35.71
51.77
62.87
70.11
74.41
76.37
76.40
74.94
72.64
70.24
68.47
67.67
67.73
68.13
68.20
67.47
65.81
63.56
61.16
58.98
56.95
54.56
51.02
45.59
37.93
28.25
17.28
6.08
-4.39
-13.50
-21.14
-27.80
-34.29
-41.64
-50.78
-62.22
-75.83
-90.43
-103.81
-112.97
-114.93
-107.60
-90.62
-65.70
-36.13
-5.84
21.68
44.25
61.12
72.59
79.50
82.65
82.71
80.29
76.22
71.45
67.08
63.89
62.16
61.52
61.22
60.44
58.77
56.34
53.75
51.64
50.23
49.06
47.13
43.29
36.79
27.68
16.85
5.65
-4.57
-13.01
-19.66
-25.26
-31.06
-38.39
-48.30
-61.09
-76.00
-91.00
-103.06
-108.76
-105.35
-91.75
-69.10
-40.52
-10.25
17.67
40.46
57.05
67.82
73.97
76.76
77.14
75.66
72.72
68.76
64.44
60.55
57.81
56.54
56.54
57.21
57.72
57.40
55.96
53.53
50.49
47.19
43.76
40.01
35.59
30.09
23.31
15.35
6.57
-2.49
-11.22
-19.16
-26.12
-32.16
-37.68
-43.30
-49.84
-58.16
-68.79
-81.59
-95.25
-107.29
-114.48
-113.71
-103.10
-82.80
-55.14
-23.99
6.40
32.49
52.28
65.41
72.78
75.83
75.99
74.35
71.58
68.11
64.40
60.94
58.30
56.82
56.49
56.97
57.75
58.40
58.67
58.51
57.83
56.43
53.92
49.98
44.54
37.94
30.84
23.92
17.59
11.78
6.09
0.00
-6.74
-13.99
-21.24
-27.90
-33.61
-38.50
-43.24
-48.84
-56.28
-66.11
-78.06
-90.81
-102.06
-108.88
-108.53
-99.31
-81.21
-56.16
-27.61
0.48
24.69
42.95
54.78
60.99
62.90
61.78
58.53
53.75
48.01
42.05
36.81
33.21
31.82
32.60
34.91
37.71
39.98
41.06
40.78
39.41
37.39
35.02
32.29
28.93
24.56
18.93
12.10
4.45
-3.41
-10.76
-17.11
-22.26
-26.37
-30.00
-33.91
-38.89
-45.59
-54.31
-64.73
-75.80
-85.63
-91.77
-91.81
-84.22
-68.96
-47.75
-23.61
0.07
20.45
35.93
46.13
51.48
52.70
50.48
45.50
38.60
30.90
23.66
18.02
14.64
13.48
13.97
15.19
16.39
17.05
17.07
16.56
15.64
14.24
12.08
8.74
3.94
-2.25
-9.37
-16.59
-23.15
-28.56
-32.88
-36.77
-41.22
-47.23
-55.37
-65.45
-76.25
-85.66
-91.07
-90.16
-81.65
-65.88
-44.83
-21.57
0.62
19.25
32.97
41.66
45.94
46.61
44.41
39.88
33.59
26.31
19.00
12.68
8.25
6.20
6.49
8.65
11.81
15.05
17.43
18.24
17.02
13.64
8.33
1.62
-5.76
-13.10
-19.85
-25.89
-31.42
-37.00
-43.31
-50.94
-60.11
-70.35
-80.27
-87.65
-89.97
-85.16
-72.52
-53.12
-29.63
-5.50
16.07
33.02
44.69
51.59
54.75
55.18
53.60
50.49
46.23
41.24
36.03
31.07
26.72
23.20
20.62
18.99
18.25
18.26
18.67
18.96
18.44
16.40
12.33
6.12
-1.90
-10.92
-19.96
-28.12
-34.94
-40.59
-45.83
-51.87
-59.87
-70.37
-82.76
-95.12
-104.49
-107.66
-102.27
-87.80
-65.85
-39.70
-13.26
10.13
28.57
41.72
50.41
55.87
59.14
60.82
61.07
59.94
57.58
54.37
50.82
47.47
44.57
42.12
39.88
37.58
35.09
32.54
30.22
28.30
26.70
24.95
22.39
18.36
12.45
4.71
-4.41
-14.07
-23.39
-31.58
-38.24
-43.47
-47.87
-52.43
-58.25
-66.22
-76.70
-89.22
-102.21
-113.20
-119.22
-117.67
-107.19
-88.25
-63.20
-35.53
-8.89
13.98
31.69
44.21
52.36
57.25
59.84
60.87
60.88
60.33
59.60
58.92
58.31
57.58
56.48
54.87
52.85
50.79
49.17
48.27
47.94
47.54
46.18
43.07
37.90
31.03
23.29
15.67
8.87
3.03
-2.21
-7.49
-13.39
-20.12
-27.45
-34.86
-41.76
-47.83
-53.16
-58.27
-63.94
-71.04
-80.19
-91.35
-103.58
-114.87
-122.38
-123.20
-115.22
-98.03
-73.36
-44.57
-15.73
9.63
29.50
43.51
52.64
58.34
61.89
64.07
65.22
65.52
65.18
64.50
63.77
63.07
62.30
61.19
59.58
57.51
55.33
53.50
52.43
52.20
52.46
52.48
51.37
48.42
43.41
36.70
29.22
22.08
16.16
11.75
8.42
5.21
1.00
-4.89
-12.49
-21.08
-29.54
-36.84
-42.48
-46.66
-50.21
-54.29
-59.98
-68.03
-78.55
-90.79
-103.04
-112.72
-116.87
-113.00
-100.00
-78.73
-51.93
-23.48
2.86
24.46
40.32
50.93
57.54
61.45
63.56
64.28
63.80
62.34
60.33
58.28
56.70
55.82
55.56
55.61
55.59
55.25
54.58
53.75
52.97
52.30
51.57
50.34
48.13
44.54
39.48
33.23
26.37
19.64
13.71
8.91
5.16
1.95
-1.49
-5.83
-11.39
-17.99
-25.03
-31.72
-37.42
-41.97
-45.62
-49.04
-52.99
-58.22
-65.22
-74.05
-84.09
-93.90
-101.23
-103.51
-98.59
-85.62
-65.50
-40.83
-15.12
8.28
27.07
40.42
48.80
53.31
55.19
55.33
54.30
52.49
50.24
47.99
46.13
44.96
44.49
44.54
44.79
44.95
44.90
44.69
44.46
44.28
44.04
43.43
42.08
39.63
35.92
31.02
25.29
19.23
13.44
8.40
4.37
1.29
-1.24
-3.82
-7.02
-11.19
-16.29
-21.94
-27.56
-32.69
-37.06
-40.84
-44.45
-48.53
-53.79
-60.68
-69.19
-78.58
-87.26
-93.01
-93.52
-87.12
-73.46
-53.82
-30.83
-7.69
12.74
28.63
39.42
45.57
48.02
47.75
45.53
41.98
37.67
33.27
29.45
26.78
25.49
25.47
26.36
27.68
29.09
30.38
31.46
32.25
32.52
31.96
30.22
27.14
22.83
17.75
12.47
7.53
3.21
-0.58
-4.20
-8.12
-12.64
-17.81
-23.36
-28.84
-33.79
-37.93
-41.39
-44.73
-48.84
-54.59
-62.32
-71.46
-80.38
-86.68
-87.88
-82.27
-69.53
-50.93
-28.97
-6.63
13.39
29.29
40.33
46.70
49.08
48.25
44.96
39.80
33.43
26.65
20.42
15.70
13.12
12.84
14.39
16.88
19.31
20.91
21.31
20.62
19.22
17.48
15.60
13.43
10.63
6.80
1.73
-4.50
-11.44
-18.46
-24.95
-30.47
-34.90
-38.45
-41.55
-44.83
-48.97
-54.61
-62.07
-71.08
-80.41
-88.02
-91.37
-88.32
-77.85
-60.61
-38.83
-15.61
5.96
23.67
36.48
44.48
48.44
49.30
47.95
45.00
40.95
36.27
31.43
26.95
23.37
21.02
19.97
19.93
20.37
20.71
20.54
19.74
18.44
16.89
15.24
13.40
11.07
7.81
3.33
-2.40
-9.11
-16.26
-23.27
-29.72
-35.46
-40.59
-45.38
-50.26
-55.71
-62.26
-70.34
-80.00
-90.55
-100.35
-106.97
-107.90
-101.35
-87.04
-66.42
-42.28
-17.89
3.93
21.45
34.17
42.52
47.40
49.75
50.36
49.76
48.38
46.53
44.51
42.58
40.92
39.62
38.68
38.05
37.70
37.59
37.70
37.87
37.77
36.97
34.99
31.57
26.79
21.04
14.97
9.13
3.76
-1.23
-6.24
-11.65
-17.63
-24.01
-30.41
-36.43
-41.89
-47.01
-52.37
-58.77
-67.04
-77.58
-89.99
-102.81
-113.52
-119.12
-117.02
-105.95
-86.58
-61.39
-33.93
-7.71
14.66
31.96
44.24
52.26
57.06
59.54
60.42
60.21
59.33
58.15
56.95
55.93
55.18
54.65
54.24
53.83
53.39
52.99
52.77
52.80
52.89
52.58
51.24
48.34
43.75
37.79
31.20
24.76
19.05
14.13
9.60
4.75
-1.06
-8.12
-16.21
-24.69
-32.73
-39.76
-45.69
-51.01
-56.68
-63.76
-73.12
-84.95
-98.46
-111.76
-122.06
-126.27
-121.91
-107.94
-85.35
-56.95
-26.63
1.77
25.49
43.26
55.23
62.42
66.04
67.14
66.50
64.76
62.53
60.42
58.98
58.48
58.85
59.75
60.70
61.36
61.64
61.74
61.96
62.48
63.15
63.45
62.67
60.14
55.60
49.29
41.95
34.51
27.81
22.22
17.53
13.09
8.09
1.91
-5.56
-13.86
-22.20
-29.70
-35.86
-40.72
-44.91
-49.52
-55.70
-64.38
-75.77
-89.08
-102.36
-112.71
-116.96
-112.56
-98.57
-76.10
-48.06
-18.30
9.48
32.61
49.84
61.09
67.06
68.75
67.22
63.54
58.80
54.00
49.97
47.21
45.84
45.69
46.35
47.38
48.42
49.33
50.14
51.01
51.98
52.84
53.07
51.93
48.83
43.58
36.62
28.91
21.62
15.64
11.16
7.67
4.11
-0.54
-6.84
-14.53
-22.76
-30.44
-36.80
-41.70
-45.74
-50.00
-55.69
-63.74
-74.38
-86.93
-99.58
-109.64
-114.02
-110.18
-96.97
-75.21
-47.62
-18.02
9.73
32.78
49.82
60.90
66.95
69.03
68.00
64.46
58.94
52.23
45.44
39.83
36.41
35.61
37.09
39.96
43.10
45.55
46.77
46.64
45.35
43.12
40.15
36.47
32.02
26.68
20.38
13.16
5.23
-3.04
-11.19
-18.74
-25.43
-31.19
-36.27
-41.23
-46.80
-53.81
-62.89
-74.12
-86.68
-98.68
-107.42
-109.98
-104.25
-89.63
-67.41
-40.43
-12.32
13.58
34.92
50.64
60.73
65.79
66.59
63.93
58.62
51.62
44.10
37.30
32.30
29.69
29.45
30.93
33.15
35.12
36.23
36.35
35.73
34.73
33.47
31.63
28.55
23.51
16.17
6.79
-3.73
-14.17
-23.52
-31.29
-37.64
-43.30
-49.22
-56.39
-65.54
-77.02
-90.40
-104.23
-116.03
-122.64
-121.16
-109.96
-89.46
-62.24
-32.21
-3.47
20.94
39.61
52.60
60.86
65.44
67.09
66.28
63.42
59.15
54.39
50.13
47.11
45.60
45.34
45.69
46.00
45.77
44.83
43.32
41.47
39.41
37.01
33.83
29.28
22.87
14.49
4.58
-6.00
-16.18
-25.13
-32.48
-38.49
-43.86
-49.56
-56.59
-65.74
-77.38
-91.14
-105.66
-118.50
-126.57
-126.90
-117.57
-98.60
-72.08
-41.63
-11.38
15.29
36.42
51.63
61.70
67.91
71.51
73.31
73.78
73.17
71.70
69.68
67.50
65.55
64.09
63.19
62.70
62.36
61.91
61.13
59.91
58.17
55.78
52.51
48.18
42.68
36.10
28.69
20.76
12.56
4.25
-4.07
-12.34
-20.42
-28.19
-35.59
-42.77
-50.12
-58.32
-68.12
-80.03
-93.83
-108.19
-120.61
-127.87
-126.97
-116.16
-95.72
-68.09
-37.09
-6.82
19.46
40.02
54.63
64.10
69.64
72.43
73.35
73.12
72.28
71.26
70.33
69.51
68.67
67.57
66.11
64.40
62.81
61.73
61.42
61.73
62.11
61.75
59.85
55.94
50.05
42.78
35.03
27.71
21.43
16.25
11.67
6.82
0.88
-6.56
-15.30
-24.62
-33.60
-41.53
-48.30
-54.42
-60.92
-68.95
-79.33
-92.12
-106.19
-119.22
-128.00
-129.28
-120.80
-102.24
-75.51
-44.36
-13.17
14.31
35.92
51.23
61.11
66.93
69.91
70.83
70.20
68.48
66.28
64.26
62.97
62.62
62.96
63.50
63.69
63.26
62.31
61.23
60.42
59.99
59.60
58.54
56.03
51.54
45.14
37.46
29.53
22.31
16.34
11.52
7.16
2.32
-3.69
-11.01
-19.17
-27.35
-34.75
-40.97
-46.21
-51.16
-56.76
-63.98
-73.45
-85.22
-98.38
-111.01
-120.31
-123.25
-117.51
-102.43
-79.40
-51.52
-22.70
3.49
24.75
40.24
50.31
55.93
58.15
57.86
55.81
52.69
49.13
45.79
43.13
41.45
40.87
41.29
42.52
44.27
46.18
47.84
48.81
48.70
47.17
44.06
39.42
33.59
27.08
20.54
14.46
9.03
4.08
-0.85
-6.26
-12.38
-19.11
-26.02
-32.58
-38.48
-43.73
-48.82
-54.52
-61.73
-71.08
-82.45
-94.64
-105.27
-111.22
-109.51
-98.46
-78.41
-51.86
-22.71
4.96
28.04
45.03
55.99
61.88
63.90
63.03
59.92
55.11
49.28
43.31
38.13
34.52
32.85
32.99
34.46
36.59
38.75
40.41
41.27
41.13
39.89
37.52
34.07
29.71
24.61
18.99
12.96
6.57
-0.19
-7.27
-14.61
-22.04
-29.35
-36.33
-42.86
-48.98
-54.96
-61.35
-68.86
-78.16
-89.38
-101.61
-112.77
-119.78
-119.54
-109.94
-90.88
-64.55
-34.77
-5.84
18.74
37.08
49.03
55.64
58.42
58.73
57.45
55.08
51.92
48.21
44.37
40.90
38.36
37.13
37.30
38.55
40.26
41.75
42.48
42.21
40.95
38.76
35.68
31.66
26.58
20.45
13.40
5.67
-2.42
-10.55
-18.43
-25.84
-32.62
-38.75
-44.35
-49.74
-55.38
-61.94
-70.05
-80.09
-91.79
-103.87
-114.01
-119.28
-117.04
-105.93
-86.53
-61.37
-34.07
-8.29
13.30
29.52
40.48
47.11
50.50
51.58
50.96
49.09
46.37
43.22
40.05
37.21
34.95
33.40
32.63
32.59
33.15
34.02
34.73
34.71
33.44
30.61
26.30
20.93
15.08
9.27
3.74
-1.56
-6.84
-12.37
-18.25
-24.46
-30.86
-37.31
-43.74
-50.21
-56.91
-64.20
-72.66
-82.84
-94.91
-108.13
-120.63
-129.50
-131.54
-124.37
-107.37
-82.13
-52.03
-21.20
6.71
29.43
46.33
57.96
65.43
69.75
71.60
71.48
69.89
67.50
65.11
63.39
62.64
62.80
63.50
64.25
64.65
64.40
63.35
61.44
58.73
55.32
51.38
47.02
42.14
36.53
29.86
21.92
12.84
3.06
-6.75
-15.96
-24.20
-31.51
-38.26
-45.10
-52.73
-61.84
-72.75
-85.25
-98.18
-109.42
-116.12
-115.44
-105.53
-86.38
-60.01
-29.99
-0.39
25.39
45.38
59.24
67.81
72.49
74.62
75.19
74.80
73.82
72.47
71.00
69.62
68.57
67.95
67.75
67.77
67.67
67.00
65.44
62.79
59.02
54.25
48.57
41.98
34.48
26.03
16.77
7.00
-2.85
-12.33
-21.07
-28.93
-35.92
-42.24
-48.25
-54.40
-61.28
-69.53
-79.62
-91.48
-104.17
-115.61
-122.96
-123.31
-114.71
-97.05
-72.27
-43.83
-15.65
9.08
28.62
42.69
51.95
57.30
59.41
58.73
55.67
50.99
45.81
41.39
38.74
38.26
39.62
41.93
44.11
45.26
45.01
43.49
41.16
38.48
35.59
32.25
27.92
22.03
14.37
5.19
-4.73
-14.42
-23.00
-30.03
-35.69
-40.67
-46.05
-52.93
-62.07
-73.54
-86.48
-98.98
-108.33
-111.63
-106.67
-92.68
-70.81
-43.85
-15.51
10.69
32.30
48.33
59.00
65.17
67.65
67.00
63.58
57.92
50.95
44.03
38.59
35.57
35.10
36.45
38.36
39.61
39.49
37.96
35.55
32.94
30.48
28.00
24.81
20.08
13.30
4.58
-5.38
-15.49
-24.77
-32.63
-39.05
-44.50
-49.77
-55.80
-63.49
-73.46
-85.63
-98.85
-110.73
-118.08
-117.81
-108.09
-89.13
-63.27
-34.26
-5.99
18.52
37.76
51.59
60.73
66.14
68.60
68.62
66.58
62.95
58.40
53.76
49.88
47.31
46.12
45.87
45.82
45.25
43.77
41.49
38.85
36.28
33.88
31.23
27.56
22.09
14.47
5.02
-5.33
-15.39
-24.18
-31.35
-37.16
-42.48
-48.31
-55.63
-65.10
-76.90
-90.43
-104.10
-115.34
-120.99
-118.29
-105.89
-84.52
-56.98
-27.22
0.90
24.70
43.11
56.37
65.45
71.33
74.70
75.97
75.44
73.46
70.54
67.22
64.04
61.41
59.57
58.52
58.08
57.98
57.89
57.52
56.54
54.67
51.64
47.33
41.80
35.36
28.44
21.42
14.50
7.66
0.70
-6.50
-14.00
-21.66
-29.21
-36.39
-43.10
-49.53
-56.28
-64.20
-74.10
-86.21
-99.64
-112.25
-120.95
-122.56
-114.94
-97.80
-72.96
-43.85
-14.46
11.78
32.75
47.87
57.72
63.49
66.41
67.42
67.19
66.14
64.64
63.04
61.58
60.35
59.29
58.29
57.29
56.39
55.76
55.49
55.42
55.07
53.84
51.21
46.99
41.42
35.13
28.85
23.10
18.00
13.13
7.85
1.52
-6.07
-14.60
-23.34
-31.38
-38.15
-43.56
-48.15
-52.94
-59.08
-67.52
-78.50
-91.13
-103.26
-111.76
-113.38
-105.88
-88.91
-64.38
-35.85
-7.44
17.45
36.90
50.55
59.13
63.73
65.36
64.78
62.62
59.53
56.21
53.32
51.27
50.16
49.74
49.59
49.30
48.69
47.80
46.88
46.14
45.61
44.94
43.57
40.89
36.53
30.63
23.80
16.92
10.76
5.65
1.32
-2.92
-7.83
-13.88
-20.96
-28.48
-35.62
-41.71
-46.54
-50.42
-54.13
-58.70
-65.06
-73.77
-84.58
-96.22
-106.35
-111.95
-110.27
-99.70
-80.55
-55.12
-27.07
-0.27
22.22
38.86
49.57
55.22
57.05
56.13
53.29
49.22
44.58
40.08
36.36
33.86
32.76
32.87
33.84
35.27
36.80
38.15
39.10
39.37
38.64
36.55
32.91
27.74
21.45
14.65
8.03
2.07
-3.13
-7.82
-12.45
-17.39
-22.81
-28.50
-34.09
-39.21
-43.73
-47.89
-52.36
-58.04
-65.74
-75.69
-87.06
-97.83
-105.05
-105.65
-97.54
-80.51
-56.49
-28.98
-2.03
21.04
38.38
49.76
56.04
58.46
58.11
55.68
51.68
46.60
41.09
35.94
31.81
29.19
28.20
28.65
30.14
32.11
33.95
35.08
35.07
33.70
31.01
27.23
22.75
17.86
12.75
7.40
1.68
-4.49
-11.11
-17.96
-24.76
-31.15
-36.92
-42.02
-46.67
-51.29
-56.48
-62.96
-71.23
-81.31
-92.33
-102.32
-108.49
-107.95
-98.74
-80.73
-55.88
-27.78
-0.52
22.53
39.50
50.24
55.74
57.48
56.73
54.29
50.64
46.11
41.19
36.50
32.69
30.27
29.41
29.93
31.39
33.23
34.93
36.09
36.47
35.89
34.24
31.47
27.64
22.95
17.64
11.99
6.22
0.37
-5.61
-11.83
-18.28
-24.89
-31.42
-37.65
-43.51
-49.22
-55.34
-62.65
-71.87
-83.09
-95.41
-106.65
-113.83
-113.95
-105.12
-87.39
-62.89
-35.20
-8.19
15.03
32.83
44.97
52.16
55.49
55.97
54.41
51.46
47.74
43.81
40.13
37.03
34.69
33.13
32.30
32.07
32.22
32.46
32.45
31.87
30.51
28.34
25.44
21.99
18.08
13.68
8.66
2.89
-3.63
-10.64
-17.68
-24.26
-30.10
-35.16
-39.71
-44.19
-49.07
-54.82
-61.91
-70.64
-80.95
-91.95
-101.77
-107.67
-106.78
-97.19
-78.85
-53.82
-25.79
1.13
23.68
40.28
51.01
57.10
60.06
61.03
60.67
59.24
56.97
54.20
51.37
48.86
46.87
45.41
44.40
43.73
43.39
43.29
43.24
42.84
41.63
39.25
35.62
31.02
25.84
20.44
14.89
9.01
2.53
-4.68
-12.44
-20.38
-28.05
-35.16
-41.71
-47.95
-54.32
-61.38
-69.69
-79.65
-91.10
-103.08
-113.56
-119.74
-118.85
-109.09
-90.53
-65.23
-36.71
-8.87
15.20
33.87
47.01
55.52
60.61
63.29
64.16
63.54
61.70
59.01
56.02
53.29
51.31
50.25
50.00
50.22
50.43
50.21
49.29
47.56
45.09
42.00
38.42
34.40
29.87
24.67
18.61
11.58
3.65
-4.87
-13.52
-21.79
-29.26
-35.79
-41.60
-47.18
-53.26
-60.52
-69.45
-80.01
-91.38
-101.88
-109.10
-110.48
-104.07
-89.29
-67.32
-40.90
-13.55
11.45
31.91
47.10
57.43
63.85
67.22
68.04
66.59
63.18
58.47
53.45
49.16
46.37
45.31
45.64
46.57
47.25
46.99
45.53
43.04
39.91
36.53
32.98
28.94
23.83
17.19
8.96
-0.28
-9.54
-17.75
-24.26
-29.06
-32.82
-36.60
-41.53
-48.43
-57.65
-68.85
-80.89
-91.81
-99.09
-100.20
-93.38
-78.38
-56.71
-31.35
-5.81
16.88
34.92
47.96
56.60
61.78
64.21
64.22
61.97
57.81
52.48
47.02
42.53
39.74
38.80
39.30
40.40
41.29
41.38
40.50
38.80
36.57
34.02
31.15
27.66
23.19
17.41
10.25
1.99
-6.76
-15.28
-22.98
-29.54
-35.09
-40.14
-45.44
-51.86
-60.12
-70.56
-82.80
-95.58
-106.66
-113.25
-112.73
-103.50
-85.66
-61.16
-33.25
-5.55
18.94
38.48
52.69
62.21
68.10
71.35
72.66
72.36
70.69
67.92
64.48
60.93
57.82
55.51
54.06
53.25
52.67
51.94
50.74
48.95
46.54
43.54
39.96
35.81
31.11
25.86
20.13
13.98
7.49
0.78
-6.04
-12.83
-19.46
-25.86
-32.07
-38.23
-44.70
-51.99
-60.75
-71.47
-84.05
-97.42
-109.39
-116.99
-117.28
-108.40
-90.40
-65.32
-36.62
-8.18
16.83
36.61
50.78
60.02
65.46
68.24
69.24
69.08
68.18
66.84
65.25
63.56
61.86
60.23
58.75
57.55
56.69
56.12
55.64
54.84
53.36
50.88
47.34
42.83
37.59
31.80
25.55
18.80
11.48
3.56
-4.83
-13.42
-21.84
-29.70
-36.73
-42.94
-48.67
-54.62
-61.70
-70.77
-82.12
-95.07
-107.76
-117.36
-120.74
-115.54
-101.03
-78.51
-51.00
-22.35
3.94
25.54
41.60
52.55
59.50
63.60
65.75
66.45
65.96
64.44
62.13
59.36
56.54
54.02
52.04
50.68
49.84
49.29
48.74
47.86
46.34
43.99
40.68
36.49
31.57
26.11
20.26
14.09
7.62
0.84
-6.21
-13.43
-20.65
-27.69
-34.36
-40.60
-46.52
-52.40
-58.85
-66.57
-76.12
-87.37
-99.11
-108.97
-113.83
-110.87
-98.65
-77.80
-51.02
-22.18
4.88
27.44
44.33
55.78
62.74
66.31
67.34
66.49
64.33
61.48
58.56
56.06
54.29
53.27
52.84
52.78
52.85
52.89
52.74
52.22
51.11
49.15
46.14
42.03
36.91
31.02
24.66
18.00
11.14
4.03
-3.33
-10.78
-18.04
-24.71
-30.47
-35.27
-39.42
-43.55
-48.47
-54.98
-63.53
-74.02
-85.42
-95.81
-102.59
-103.19
-95.87
-80.50
-58.80
-33.87
-9.30
11.95
28.24
39.34
45.93
49.00
49.31
47.33
43.48
38.37
32.92
28.18
25.02
23.83
24.38
26.01
27.85
29.22
29.76
29.52
28.79
27.82
26.65
24.96
22.19
17.82
11.61
3.85
-4.72
-13.10
-20.42
-26.23
-30.73
-34.64
-38.95
-44.67
-52.42
-62.27
-73.56
-84.81
-93.88
-98.35
-96.13
-86.15
-68.94
-46.58
-22.22
0.84
20.06
34.23
43.40
48.39
50.17
49.46
46.69
42.26
36.83
31.32
26.76
23.98
23.21
24.05
25.68
27.15
27.84
27.63
26.88
26.12
25.65
25.28
24.38
22.12
17.92
11.74
4.21
-3.69
-10.93
-16.93
-21.61
-25.46
-29.26
-33.94
-40.33
-49.00
-59.94
-72.27
-84.11
-92.79
-95.47
-90.17
-76.47
-55.83
-31.22
-6.13
16.38
34.41
47.38
55.64
60.03
61.34
60.24
57.31
53.17
48.55
44.23
40.84
38.65
37.55
37.06
36.59
35.68
34.22
32.43
30.69
29.27
28.09
26.62
24.05
19.66
13.10
4.69
-4.72
-13.97
-22.04
-28.42
-33.27
-37.35
-41.77
-47.63
-55.76
-66.37
-78.80
-91.39
-101.63
-106.66
-104.08
-92.82
-73.68
-49.18
-22.86
1.79
22.29
37.59
47.91
54.19
57.46
58.50
57.81
55.74
52.68
49.18
45.81
43.05
41.18
40.15
39.68
39.34
38.76
37.71
36.18
34.26
32.07
29.54
26.40
22.22
16.57
9.31
0.71
-8.57
-17.69
-25.91
-32.88
-38.74
-44.06
-49.62
-56.26
-64.58
-74.81
-86.53
-98.52
-108.71
-114.57
-113.69
-104.65
-87.62
-64.46
-38.34
-12.75
9.43
26.61
38.57
46.09
50.35
52.36
52.74
51.78
49.65
46.70
43.49
40.70
38.89
38.20
38.36
38.79
38.86
38.20
36.76
34.77
32.55
30.23
27.64
24.39
19.99
14.13
6.86
-1.38
-9.89
-17.96
-25.09
-31.20
-36.54
-41.66
-47.21
-53.82
-61.96
-71.78
-82.83
-93.80
-102.57
-106.54
-103.46
-92.27
-73.63
-49.89
-24.38
-0.39
19.75
35.02
45.63
52.37
56.11
57.51
56.95
54.79
51.56
47.98
44.89
42.94
42.40
43.05
44.26
45.24
45.34
44.29
42.23
39.62
36.90
34.30
31.67
28.48
24.07
17.97
10.15
1.14
-8.12
-16.59
-23.56
-28.90
-33.09
-37.05
-41.82
-48.28
-56.96
-67.81
-80.02
-91.93
-101.18
-105.11
-101.64
-89.97
-71.09
-47.58
-22.86
-0.12
18.54
32.46
42.15
48.66
52.92
55.49
56.51
56.05
54.31
51.83
49.30
47.40
46.48
46.53
47.17
47.90
48.23
47.82
46.54
44.41
41.51
37.94
33.75
28.90
23.36
17.03
9.96
2.26
-5.72
-13.58
-20.94
-27.60
-33.63
-39.30
-45.10
-51.55
-59.17
-68.34
-79.07
-90.74
-101.87
-110.21
-113.14
-108.52
-95.54
-75.17
-49.99
-23.45
1.18
21.66
37.16
47.99
55.08
59.36
61.49
61.88
60.79
58.55
55.62
52.54
49.81
47.78
46.57
46.11
46.20
46.56
46.89
46.89
46.26
44.78
42.31
38.86
34.54
29.52
23.93
17.78
11.07
3.79
-3.96
-11.91
-19.70
-26.97
-33.57
-39.56
-45.30
-51.37
-58.55
-67.52
-78.59
-91.31
-104.15
-114.59
-119.67
-116.83
-104.88
-84.60
-58.61
-30.59
-4.18
18.10
35.23
47.52
55.96
61.60
65.22
67.24
68.04
67.94
67.32
66.46
65.45
64.27
62.92
61.54
60.47
59.98
60.19
60.79
61.19
60.67
58.65
54.93
49.69
43.43
36.72
30.01
23.47
17.01
10.39
3.40
-4.00
-11.70
-19.41
-26.84
-33.81
-40.37
-46.83
-53.75
-61.87
-71.79
-83.66
-96.73
-109.17
-118.25
-121.06
-115.41
-100.78
-78.61
-51.94
-24.52
0.34
20.59
35.64
46.04
52.82
56.92
58.92
59.10
57.74
55.29
52.36
49.64
47.68
46.74
46.76
47.48
48.54
49.59
50.35
50.58
50.10
48.75
46.45
43.19
39.01
33.97
28.11
21.54
14.42
7.04
-0.27
-7.16
-13.39
-18.88
-23.77
-28.43
-33.40
-39.28
-46.64
-55.75
-66.37
-77.45
-87.18
-93.22
-93.31
-85.99
-71.23
-50.57
-26.78
-3.00
18.05
34.72
46.56
53.96
57.71
58.49
56.79
53.03
47.77
41.87
36.41
32.45
30.57
30.76
32.36
34.37
35.79
36.03
34.94
32.80
30.01
26.82
23.22
18.90
13.46
6.67
-1.38
-10.15
-18.82
-26.53
-32.71
-37.26
-40.67
-43.78
-47.61
-52.99
-60.35
-69.51
-79.66
-89.29
-96.35
-98.60
-94.14
-82.07
-62.91
-38.69
-12.44
12.61
33.90
50.04
60.93
67.30
70.18
70.50
68.85
65.73
61.62
57.14
53.05
50.00
48.35
48.04
48.61
49.38
49.72
49.18
47.61
45.10
41.87
38.09
33.85
29.12
23.71
17.45
10.25
2.22
-6.27
-14.74
-22.72
-29.91
-36.32
-42.28
-48.27
-54.94
-62.90
-72.59
-84.09
-96.71
-108.83
-117.96
-121.32
-116.73
-103.48
-82.78
-57.43
-31.04
-6.93
12.74
27.24
36.99
43.14
46.86
49.10
50.47
51.24
51.54
51.46
51.09
50.58
49.99
49.36
48.63
47.77
46.82
45.91
45.17
44.59
43.96
42.83
40.75
37.50
33.15
28.08
22.79
17.55
12.35
6.92
0.93
-5.69
-12.71
-19.65
-26.03
-31.60
-36.51
-41.25
-46.54
-53.14
-61.51
-71.55
-82.26
-91.71
-97.26
-96.32
-87.20
-69.89
-46.21
-19.33
7.11
30.10
47.90
60.17
67.59
71.31
72.49
72.03
70.52
68.31
65.61
62.62
59.55
56.66
54.14
52.09
50.41
48.87
47.18
45.16
42.67
39.67
36.03
31.57
26.12
19.73
12.66
5.40
-1.61
-8.16
-14.39
-20.61
-27.06
-33.73
-40.35
-46.57
-52.20
-57.34
-62.46
-68.19
-75.23
-83.99
-94.38
-105.44
-115.22
-121.10
-120.40
-111.39
-94.07
-70.38
-43.60
-17.37
5.46
23.46
36.62
45.79
52.00
56.01
58.17
58.60
57.50
55.27
52.54
49.99
48.21
47.47
47.70
48.58
49.62
50.39
50.59
50.13
48.99
47.20
44.72
41.41
37.11
31.69
25.18
17.75
9.75
1.57
-6.42
-13.96
-20.94
-27.41
-33.52
-39.53
-45.85
-52.96
-61.36
-71.20
-81.95
-92.16
-99.54
-101.57
-96.32
-83.32
-63.82
-40.56
-16.82
4.46
21.46
33.58
41.13
44.77
45.14
42.77
38.20
32.23
25.83
20.07
15.84
13.53
13.01
13.75
15.02
16.13
16.66
16.53
15.92
15.10
14.21
13.15
11.46
8.60
4.16
-1.84
-8.84
-15.99
-22.44
-27.72
-31.94
-35.69
-39.83
-45.17
-52.29
-61.26
-71.53
-81.86
-90.27
-94.46
-92.43
-83.12
-66.92
-45.69
-22.21
0.60
20.42
36.01
47.07
53.98
57.31
57.59
55.24
50.74
44.75
38.21
32.18
27.55
24.77
23.68
23.56
23.51
22.77
21.04
18.51
15.58
12.61
9.57
6.03
1.45
-4.57
-11.94
-20.07
-28.07
-35.14
-40.86
-45.45
-49.60
-54.30
-60.47
-68.73
-79.14
-91.04
-102.99
-112.81
-118.00
-116.33
-106.66
-89.37
-66.41
-40.68
-15.15
7.91
27.40
43.18
55.61
65.14
72.00
76.32
78.32
78.39
77.10
75.02
72.60
70.02
67.28
64.25
60.78
56.82
52.49
48.08
44.00
40.58
37.84
35.45
32.66
28.63
22.72
14.76
5.19
-5.09
-15.07
-23.91
-31.25
-37.23
-42.44
-47.72
-54.00
-61.99
-71.92
-83.26
-94.48
-103.21
-106.73
-102.80
-90.49
-70.59
-45.53
-18.67
6.65
28.02
44.32
55.66
62.89
66.95
68.60
68.28
66.29
62.96
58.84
54.62
50.97
48.33
46.88
46.43
46.65
47.10
47.33
47.00
45.79
43.59
40.38
36.31
31.58
26.29
20.39
13.76
6.31
-1.84
-10.34
-18.69
-26.46
-33.42
-39.71
-45.75
-52.19
-59.72
-68.93
-79.98
-92.34
-104.51
-114.08
-118.24
-114.63
-102.27
-81.97
-56.29
-28.69
-2.52
19.77
37.08
49.39
57.41
62.02
64.07
64.28
63.24
61.49
59.46
57.47
55.74
54.39
53.56
53.37
53.88
55.06
56.71
58.47
59.81
60.18
59.05
56.06
51.10
44.46
36.74
28.74
21.19
14.50
8.66
3.26
-2.21
-8.10
-14.43
-20.87
-26.97
-32.43
-37.28
-41.98
-47.35
-54.36
-63.72
-75.46
-88.48
-100.45
-108.24
-108.73
-100.02
-82.12
-57.18
-28.80
-0.85
23.63
43.01
57.07
66.44
72.01
74.56
74.69
72.94
69.88
66.16
62.37
58.93
56.06
53.79
52.03
50.64
49.50
48.51
47.53
46.38
44.78
42.42
39.06
34.64
29.27
23.26
16.97
10.71
4.59
-1.42
-7.45
-13.56
-19.67
-25.57
-31.05
-36.00
-40.59
-45.30
-50.82
-57.84
-66.67
-76.90
-87.12
-95.06
-98.05
-93.85
-81.50
-61.77
-37.09
-10.87
13.55
33.82
48.92
59.02
64.88
67.25
66.61
63.26
57.64
50.67
43.60
37.75
34.10
32.87
33.55
35.17
36.73
37.52
37.35
36.39
34.97
33.25
31.10
28.09
23.70
17.62
9.96
1.38
-7.17
-14.73
-20.71
-25.17
-28.73
-32.38
-37.16
-43.86
-52.81
-63.74
-75.63
-86.73
-94.73
-97.25
-92.54
-80.06
-60.86
-37.29
-12.43
10.75
30.06
44.34
53.38
57.58
57.66
54.44
48.82
41.77
34.35
27.54
22.17
18.68
17.06
16.90
17.54
18.36
18.96
19.17
18.90
17.99
16.01
12.40
6.79
-0.73
-9.44
-18.20
-25.94
-32.06
-36.76
-40.98
-46.01
-53.00
-62.44
-73.84
-85.51
-94.91
-99.18
-96.00
-84.35
-65.04
-40.54
-14.29
10.33
30.89
46.31
56.71
62.91
65.82
66.15
64.35
60.85
56.24
51.31
46.85
43.42
41.11
39.57
38.18
36.41
34.05
31.33
28.68
26.47
24.65
22.71
19.82
15.18
8.41
-0.26
-9.99
-19.66
-28.21
-35.08
-40.36
-44.82
-49.68
-56.26
-65.51
-77.48
-91.08
-103.96
-113.09
-115.46
-109.06
-93.66
-70.94
-44.10
-16.81
7.72
27.60
42.31
52.48
59.18
63.40
65.78
66.61
66.05
64.34
61.85
59.01
56.22
53.70
51.45
49.36
47.24
44.99
42.60
40.15
37.74
35.37
32.85
29.73
25.49
19.68
12.16
3.30
-6.08
-15.03
-22.75
-28.97
-33.99
-38.59
-43.71
-50.25
-58.76
-69.34
-81.37
-93.40
-103.16
-107.96
-105.41
-94.31
-75.21
-50.44
-23.43
2.37
24.38
41.40
53.47
61.33
65.84
67.73
67.51
65.67
62.76
59.43
56.26
53.63
51.66
50.21
49.01
47.82
46.46
44.87
43.09
41.15
39.04
36.67
33.84
30.25
25.64
19.84
12.90
5.09
-3.15
-11.30
-18.90
-25.72
-31.73
-37.13
-42.30
-47.77
-54.16
-62.04
-71.67
-82.62
-93.50
-101.98
-105.33
-101.22
-88.71
-68.64
-43.62
-17.17
7.30
27.40
42.14
51.78
57.26
59.69
59.95
58.66
56.23
53.09
49.73
46.64
44.21
42.68
41.98
41.91
42.14
42.34
42.23
41.59
40.23
38.03
34.95
31.03
26.42
21.28
15.73
9.81
3.47
-3.30
-10.44
-17.79
-25.08
-32.04
-38.44
-44.20
-49.45
-54.59
-60.32
-67.47
-76.66
-87.83
-99.79
-110.15
-115.86
-114.12
-103.48
-84.46
-59.50
-32.27
-6.42
15.31
31.71
42.86
49.70
53.36
54.74
54.46
52.88
50.42
47.51
44.72
42.62
41.59
41.73
42.82
44.38
45.86
46.79
46.93
46.24
44.75
42.49
39.42
35.44
30.51
24.74
18.35
11.70
5.06
-1.35
-7.45
-13.19
-18.53
-23.49
-28.17
-32.81
-37.82
-43.74
-51.00
-59.60
-68.86
-77.23
-82.49
-82.34
-75.10
-60.55
-40.12
-16.62
6.62
26.70
41.98
52.11
57.70
59.65
58.71
55.34
49.99
43.36
36.52
30.71
26.93
25.54
26.19
27.95
29.74
30.70
30.45
29.11
27.07
24.76
22.32
19.54
15.96
11.02
4.45
-3.59
-12.38
-20.92
-28.25
-33.90
-38.05
-41.48
-45.26
-50.40
-57.53
-66.72
-77.32
-87.91
-96.40
-100.35
-97.62
-87.11
-69.34
-46.47
-21.77
1.41
20.60
34.65
43.72
48.65
50.37
49.52
46.44
41.53
35.46
29.23
23.97
20.52
19.11
19.31
20.25
21.04
21.09
20.31
19.01
17.58
16.19
14.67
12.51
9.17
4.31
-1.98
-9.20
-16.60
-23.41
-29.18
-33.90
-37.98
-42.15
-47.22
-53.95
-62.69
-73.23
-84.52
-94.65
-101.11
-101.43
-93.97
-78.64
-57.04
-32.14
-7.31
14.57
31.83
44.08
51.89
56.15
57.65
56.93
54.42
50.58
46.11
41.78
38.31
36.08
35.02
34.63
34.24
33.26
31.43
28.92
26.15
23.57
21.33
19.19
16.52
12.57
6.88
-0.50
-8.94
-17.42
-24.93
-30.90
-35.40
-39.14
-43.22
-48.67
-56.19
-65.84
-76.97
-88.11
-97.18
-101.74
-99.67
-89.77
-72.34
-49.27
-23.58
1.44
23.09
39.92
51.74
59.29
63.64
65.73
66.10
65.01
62.60
59.09
54.93
50.75
47.25
44.89
43.83
43.76
44.08
44.11
43.30
41.41
38.46
34.70
30.34
25.50
20.13
14.06
7.19
-0.42
-8.52
-16.68
-24.51
-31.75
-38.37
-44.60
-50.81
-57.44
-65.01
-73.94
-84.39
-95.97
-107.39
-116.52
-120.69
-117.54
-105.93
-86.47
-61.52
-34.45
-8.66
13.36
30.41
42.57
50.60
55.51
58.12
59.02
58.61
57.22
55.17
52.80
50.42
48.33
46.73
45.73
45.33
45.42
45.75
46.01
45.84
44.86
42.84
39.69
35.54
30.67
25.37
19.88
14.28
8.51
2.45
-3.93
-10.55
-17.17
-23.48
-29.26
-34.54
-39.62
-45.17
-51.97
-60.75
-71.68
-84.04
-96.03
-104.99
-108.08
-103.14
-89.50
-68.30
-42.26
-14.89
10.49
31.53
47.21
57.70
63.91
66.95
67.78
67.07
65.27
62.80
60.04
57.43
55.30
53.81
52.93
52.45
52.14
51.84
51.44
50.80
49.68
47.74
44.65
40.26
34.81
28.83
22.96
17.67
12.99
8.55
3.80
-1.75
-8.21
-15.27
-22.33
-28.76
-34.24
-38.92
-43.45
-48.80
-56.04
-65.78
-77.81
-90.73
-101.93
-108.27
-106.88
-96.28
-77.02
-51.60
-23.74
2.80
25.23
42.28
54.00
61.24
64.99
66.08
65.07
62.54
59.12
55.55
52.43
50.09
48.58
47.69
47.20
46.97
46.97
47.14
47.29
47.09
46.10
43.95
40.47
35.77
30.24
24.34
18.55
13.09
7.91
2.69
-2.95
-9.27
-16.21
-23.41
-30.37
-36.69
-42.25
-47.37
-52.71
-59.11
-67.21
-77.16
-88.21
-98.62
-105.83
-107.08
-100.32
-84.95
-62.29
-35.30
-7.74
16.93
36.47
50.17
58.56
62.83
64.09
63.07
60.17
55.71
50.27
44.73
40.12
37.26
36.45
37.34
39.04
40.53
40.97
39.95
37.61
34.40
30.85
27.28
23.62
19.57
14.71
8.80
1.95
-5.36
-12.47
-18.80
-24.05
-28.35
-32.19
-36.25
-41.22
-47.74
-56.13
-66.29
-77.37
-87.62
-94.60
-95.76
-89.23
-74.67
-53.52
-28.65
-3.48
19.00
37.04
50.15
58.74
63.51
65.02
63.61
59.58
53.59
46.68
40.22
35.49
33.30
33.65
35.75
38.36
40.24
40.60
39.31
36.76
33.57
30.18
26.61
22.53
17.44
11.02
3.28
-5.31
-14.10
-22.40
-29.73
-35.96
-41.29
-46.20
-51.35
-57.51
-65.28
-74.89
-85.85
-96.70
-105.18
-108.62
-104.80
-92.75
-73.22
-48.61
-22.26
2.49
23.26
38.91
49.52
55.82
58.65
58.70
56.54
52.73
48.04
43.45
39.86
37.89
37.56
38.35
39.44
40.05
39.79
38.78
37.46
36.25
35.24
33.96
31.63
27.46
21.11
12.89
3.75
-5.14
-12.84
-18.96
-23.78
-28.07
-32.84
-39.02
-47.22
-57.48
-69.10
-80.55
-89.54
-93.52
-90.33
-79.08
-60.56
-37.18
-12.28
10.88
29.98
44.10
53.50
59.09
61.77
62.10
60.36
56.80
51.93
46.61
41.88
38.53
36.93
36.82
37.53
38.26
38.42
37.76
36.42
34.69
32.74
30.54
27.71
23.73
18.18
10.99
2.51
-6.49
-15.12
-22.68
-28.87
-33.90
-38.43
-43.32
-49.48
-57.57
-67.72
-79.28
-90.68
-99.56
-103.28
-99.76
-88.16
-69.38
-45.83
-20.70
2.90
22.78
37.96
48.51
55.12
58.60
59.62
58.67
56.21
52.75
48.91
45.36
42.66
41.08
40.57
40.79
41.17
41.16
40.34
38.58
36.06
33.10
29.98
26.72
23.05
18.47
12.55
5.18
-3.28
-12.05
-20.23
-27.13
-32.62
-37.12
-41.41
-46.38
-52.71
-60.75
-70.47
-81.26
-91.92
-100.54
-104.81
-102.54
-92.41
-74.63
-51.07
-24.87
0.51
22.25
38.83
50.10
56.91
60.44
61.80
61.74
60.68
58.95
56.81
54.53
52.37
50.51
49.04
47.97
47.24
46.76
46.43
46.03
45.33
44.05
41.91
38.74
34.55
29.52
23.98
18.26
12.50
6.66
0.53
-6.09
-13.16
-20.43
-27.46
-33.89
-39.55
-44.66
-49.72
-55.46
-62.59
-71.56
-82.20
-93.48
-103.36
-109.17
-108.31
-99.15
-81.80
-58.26
-31.85
-6.22
15.72
32.44
43.82
50.69
54.21
55.40
54.97
53.41
51.14
48.58
46.06
43.74
41.60
39.43
37.07
34.45
31.73
29.13
26.85
24.85
22.90
20.54
17.29
12.86
7.22
0.69
-6.26
-13.13
-19.63
-25.76
-31.79
-38.10
-44.90
-52.10
-59.36
-66.17
-72.20
-77.40
-82.02
-86.49
-91.23
-96.44
-101.89
-106.80
-109.69
-108.57
-101.49
-87.18
-65.79
-39.18
-10.52
16.60
39.16
55.59
65.83
71.00
72.72
72.51
71.54
70.51
69.81
69.54
69.60
69.76
69.74
69.28
68.23
66.59
64.52
62.32
60.33
58.74
57.52
56.36
54.74
52.22
48.65
44.19
39.14
33.68
27.67
20.68
12.35
2.70
-7.67
-17.77
-26.52
-33.16
-37.50
-39.87
-41.04
-41.99
-43.85
-47.66
-54.11
-63.04
-73.13
-81.97
-86.54
-84.24
-73.77
-55.71
-32.35
-7.01
16.97
37.07
51.95
61.46
66.21
67.21
65.46
61.82
57.05
51.82
46.84
42.84
40.48
40.13
41.68
44.52
47.65
50.00
50.77
49.69
47.00
43.25
39.04
34.70
30.28
25.58
20.37
14.50
7.98
0.99
-6.22
-13.37
-20.26
-26.81
-33.08
-39.27
-45.69
-52.77
-60.83
-69.83
-79.10
-87.15
-91.85
-90.97
-82.97
-67.72
-46.75
-22.96
0.24
19.93
34.42
43.42
47.75
48.69
47.39
44.57
40.59
35.72
30.43
25.39
21.36
18.85
17.87
17.86
17.98
17.47
16.03
13.88
11.64
9.81
8.52
7.40
5.65
2.52
-2.46
-9.24
-17.27
-25.77
-33.98
-41.42
-48.04
-54.11
-60.16
-66.76
-74.47
-83.54
-93.77
-104.21
-113.16
-118.33
-117.46
-109.09
-93.19
-71.39
-46.57
-21.95
-0.25
16.98
29.41
37.54
42.19
44.06
43.61
41.27
37.61
33.41
29.61
26.96
25.81
25.95
26.78
27.57
27.83
27.50
26.89
26.36
25.95
25.24
23.45
19.79
13.84
5.85
-3.30
-12.44
-20.52
-27.02
-32.05
-36.32
-40.84
-46.65
-54.50
-64.53
-76.09
-87.54
-96.53
-100.43
-97.15
-85.80
-67.22
-43.72
-18.53
5.17
25.09
40.10
50.17
55.88
57.98
57.12
53.94
49.15
43.64
38.39
34.16
31.37
29.94
29.40
29.17
28.87
28.42
27.97
27.68
27.43
26.73
24.85
21.14
15.41
8.03
-0.16
-8.22
-15.40
-21.51
-26.90
-32.36
-38.86
-47.12
-57.32
-68.66
-79.36
-86.86
-88.59
-82.77
-69.12
-49.07
-25.35
-1.13
20.80
38.65
51.71
60.03
64.14
64.70
62.46
58.23
52.92
47.47
42.69
39.14
37.02
36.20
36.30
36.80
37.25
37.33
36.83
35.56
33.29
29.73
24.63
17.90
9.82
0.98
-7.83
-15.96
-23.05
-29.30
-35.34
-42.17
-50.66
-61.18
-73.19
-84.97
-93.90
-97.09
-92.35
-79.06
-58.49
-33.55
-7.81
15.50
34.35
48.11
57.22
62.62
65.20
65.63
64.36
61.77
58.31
54.47
50.72
47.38
44.61
42.39
40.63
39.25
38.25
37.63
37.27
36.83
35.69
33.11
28.45
21.53
12.78
3.16
-6.13
-14.14
-20.52
-25.67
-30.62
-36.68
-44.95
-55.80
-68.54
-81.28
-91.29
-95.64
-92.17
-80.21
-60.94
-37.02
-11.82
11.58
31.11
45.96
56.41
63.26
67.36
69.39
69.69
68.51
66.10
62.81
59.15
55.68
52.91
51.11
50.27
50.03
49.85
49.20
47.76
45.52
42.72
39.57
36.12
32.14
27.22
21.02
13.55
5.21
-3.27
-11.17
-18.01
-23.71
-28.60
-33.26
-38.32
-44.38
-51.94
-61.17
-71.80
-82.75
-92.14
-97.51
-96.55
-87.81
-71.43
-49.23
-24.27
0.06
21.04
37.18
48.32
55.27
59.21
61.13
61.69
61.20
59.88
57.98
55.90
54.03
52.59
51.57
50.74
49.89
48.97
48.12
47.56
47.33
47.15
46.41
44.39
40.62
35.09
28.35
21.25
14.64
9.00
4.24
-0.18
-5.00
-10.73
-17.41
-24.56
-31.41
-37.24
-41.75
-45.20
-48.36
-52.30
-57.99
-65.99
-76.05
-86.94
-96.46
-101.86
-100.67
-91.46
-74.51
-51.86
-26.74
-2.56
17.98
33.48
43.88
49.98
52.91
53.66
52.91
51.17
48.91
46.61
44.68
43.36
42.64
42.27
41.94
41.45
40.83
40.28
39.97
39.93
39.87
39.26
37.56
34.44
29.95
24.53
18.86
13.60
9.13
5.36
1.83
-2.14
-7.13
-13.33
-20.48
-27.91
-34.83
-40.65
-45.18
-48.75
-52.11
-56.20
-61.86
-69.52
-78.90
-88.73
-96.99
-101.19
-99.12
-89.64
-73.15
-51.60
-27.98
-5.38
13.78
28.31
38.15
44.05
47.00
47.90
47.38
45.85
43.69
41.28
39.00
37.18
35.95
35.26
34.96
34.90
35.02
35.33
35.81
36.33
36.60
36.23
34.85
32.21
28.31
23.39
17.97
12.62
7.84
3.77
0.14
-3.61
-8.07
-13.55
-19.87
-26.48
-32.63
-37.85
-42.09
-45.82
-49.84
-55.06
-62.07
-70.80
-80.23
-88.49
-93.13
-91.89
-83.44
-67.99
-47.35
-24.46
-2.48
16.06
29.87
38.85
43.76
45.59
45.22
43.21
39.95
35.90
31.65
27.90
25.23
23.98
24.08
25.15
26.66
28.13
29.21
29.71
29.50
28.53
26.75
24.16
20.85
16.93
12.52
7.67
2.42
-3.20
-9.07
-14.96
-20.53
-25.47
-29.55
-32.82
-35.63
-38.59
-42.43
-47.81
-55.06
-63.85
-73.07
-80.85
-84.98
-83.55
-75.49
-61.13
-42.13
-21.03
-0.57
17.06
30.59
39.73
44.84
46.57
45.56
42.36
37.54
31.81
26.07
21.26
18.15
17.08
17.84
19.77
21.97
23.60
24.18
23.64
22.29
20.50
18.55
16.37
13.61
9.85
4.84
-1.28
-8.07
-14.91
-21.28
-26.92
-31.91
-36.53
-41.17
-46.26
-52.23
-59.45
-68.08
-77.73
-87.23
-94.67
-97.72
-94.42
-83.92
-66.89
-45.45
-22.53
-1.02
17.02
30.66
39.97
45.49
47.89
47.69
45.30
41.26
36.27
31.22
27.02
24.28
23.16
23.32
24.11
24.80
24.88
24.25
23.12
21.79
20.36
18.59
15.94
11.81
5.89
-1.62
-10.08
-18.59
-26.32
-32.82
-38.12
-42.70
-47.35
-52.96
-60.34
-69.92
-81.39
-93.49
-104.07
-110.44
-110.19
-101.93
-85.92
-64.05
-39.32
-14.98
6.42
23.47
35.91
44.26
49.30
51.66
51.74
49.91
46.63
42.64
38.77
35.77
34.06
33.57
33.87
34.41
34.68
34.49
33.90
33.07
32.09
30.74
28.54
24.90
19.45
12.15
3.52
-5.65
-14.48
-22.32
-28.95
-34.68
-40.18
-46.39
-54.21
-64.20
-76.31
-89.54
-101.96
-111.01
-114.09
-109.29
-96.12
-75.75
-50.75
-24.43
0.01
20.33
35.58
46.01
52.61
56.47
58.43
58.89
58.10
56.33
54.11
52.11
50.92
50.77
51.46
52.44
53.13
53.15
52.49
51.45
50.35
49.28
47.93
45.55
41.29
34.60
25.56
14.96
4.07
-5.87
-14.11
-20.65
-26.16
-31.72
-38.46
-47.25
-58.49
-71.85
-86.06
-98.96
-107.76
-109.74
-103.13
-87.84
-65.56
-39.41
-12.91
10.96
30.47
45.19
55.65
62.64
66.90
68.85
68.80
67.16
64.59
61.91
59.85
58.80
58.63
58.83
58.77
57.93
56.25
54.01
51.66
49.56
47.71
45.62
42.51
37.54
30.28
20.97
10.56
0.31
-8.64
-15.73
-21.17
-25.83
-30.89
-37.47
-46.29
-57.48
-70.37
-83.40
-94.21
-100.12
-98.81
-89.15
-71.68
-48.60
-23.12
1.45
22.60
38.93
50.18
56.86
59.76
59.70
57.44
53.73
49.36
45.15
41.78
39.69
38.93
39.21
40.10
41.15
42.06
42.66
42.79
42.19
40.49
37.28
32.30
25.59
17.63
9.07
0.67
-7.07
-14.06
-20.65
-27.60
-35.79
-45.88
-57.85
-70.65
-82.17
-89.65
-90.46
-83.03
-67.47
-45.67
-20.76
3.87
25.46
42.46
54.47
61.92
65.50
65.88
63.66
59.47
54.17
48.76
44.25
41.30
40.06
40.08
40.60
40.83
40.38
39.26
37.75
36.12
34.27
31.70
27.66
21.59
13.41
3.70
-6.50
-16.07
-24.25
-30.94
-36.80
-43.01
-50.87
-61.27
-74.25
-88.62
-102.03
-111.38
-113.71
-107.08
-91.40
-68.49
-41.62
-14.47
9.95
29.94
45.19
56.27
64.01
69.01
71.52
71.67
69.76
66.43
62.52
58.90
56.12
54.34
53.30
52.54
51.59
50.16
48.17
45.77
43.16
40.39
37.28
33.37
28.11
21.12
12.43
2.59
-7.48
-16.81
-24.73
-31.16
-36.61
-42.00
-48.48
-57.01
-68.06
-81.32
-95.44
-108.05
-116.24
-117.22
-109.26
-92.39
-68.48
-40.77
-12.97
11.80
31.74
46.51
56.86
63.96
68.85
72.08
73.86
74.19
73.17
71.11
68.45
65.67
63.16
61.25
60.09
59.69
59.84
60.13
60.02
58.96
56.61
52.90
47.91
41.86
34.94
27.35
19.28
10.97
2.70
-5.30
-12.84
-19.89
-26.51
-32.89
-39.38
-46.44
-54.61
-64.39
-75.97
-88.98
-102.12
-113.23
-119.59
-118.64
-108.93
-90.73
-66.18
-38.65
-11.78
11.65
30.25
44.04
53.83
60.64
65.21
67.94
69.09
69.01
68.13
66.88
65.56
64.26
62.90
61.39
59.78
58.26
57.04
56.27
55.83
55.34
54.16
51.67
47.47
41.63
34.67
27.39
20.54
14.48
9.01
3.56
-2.49
-9.43
-17.03
-24.69
-31.69
-37.62
-42.57
-47.13
-52.25
-58.86
-67.63
-78.49
-90.43
-101.37
-108.58
-109.38
-101.97
-86.23
-63.87
-37.93
-11.92
11.17
29.60
42.94
51.82
57.31
60.41
61.80
61.89
60.96
59.39
57.61
56.03
54.85
54.00
53.23
52.28
51.14
49.96
48.98
48.25
47.52
46.20
43.69
39.65
34.19
27.90
21.59
15.95
11.27
7.30
3.40
-1.18
-6.87
-13.61
-20.84
-27.78
-33.80
-38.67
-42.71
-46.67
-51.52
-58.17
-67.00
-77.57
-88.41
-97.08
-100.81
-97.35
-85.85
-67.31
-44.35
-20.37
1.45
19.00
31.57
39.53
43.90
45.71
45.80
44.66
42.64
40.01
37.12
34.38
32.20
30.90
30.58
31.13
32.24
33.51
34.54
35.04
34.78
33.64
31.57
28.59
24.84
20.50
15.74
10.76
5.62
0.36
-5.04
-10.59
-16.18
-21.66
-26.80
-31.46
-35.62
-39.55
-43.78
-48.98
-55.76
-64.17
-73.47
-81.98
-87.39
-87.42
-80.62
-67.01
-48.13
-26.69
-5.67
12.46
26.31
35.61
40.92
43.09
42.93
41.10
38.08
34.37
30.52
27.08
24.57
23.23
23.05
23.78
24.99
26.23
27.10
27.29
26.60
24.97
22.40
18.98
14.87
10.23
5.25
0.07
-5.19
-10.49
-15.81
-21.14
-26.42
-31.49
-36.12
-40.15
-43.53
-46.52
-49.66
-53.72
-59.47
-67.29
-76.78
-86.52
-94.21
-97.21
-93.38
-81.90
-63.69
-41.22
-17.72
3.76
21.14
33.62
41.46
45.50
46.73
45.95
43.82
40.88
37.67
34.70
32.36
30.88
30.22
30.18
30.49
30.90
31.31
31.61
31.72
31.43
30.44
28.44
25.28
21.03
15.96
10.57
5.30
0.49
-3.75
-7.65
-11.56
-15.94
-21.03
-26.78
-32.83
-38.58
-43.55
-47.53
-50.82
-54.16
-58.53
-64.81
-73.30
-83.39
-93.34
-100.62
-102.51
-96.97
-83.47
-63.26
-39.11
-14.46
7.57
24.91
36.92
44.10
47.55
48.44
47.68
45.87
43.39
40.64
38.03
35.99
34.75
34.22
34.10
33.96
33.54
32.87
32.19
31.80
31.76
31.82
31.40
29.87
26.83
22.29
16.69
10.76
5.22
0.50
-3.39
-6.87
-10.59
-15.20
-20.93
-27.57
-34.52
-41.03
-46.54
-50.95
-54.66
-58.46
-63.31
-69.99
-78.75
-89.04
-99.39
-107.50
-110.82
-107.15
-95.51
-76.54
-52.50
-26.65
-2.32
17.99
33.07
43.03
48.77
51.43
51.92
50.83
48.56
45.58
42.56
40.19
38.94
38.88
39.61
40.47
40.98
40.94
40.58
40.24
40.08
39.91
39.14
37.09
33.29
27.80
21.16
14.25
7.92
2.69
-1.51
-5.20
-9.15
-14.02
-20.01
-26.84
-33.86
-40.34
-45.85
-50.42
-54.54
-59.02
-64.71
-72.26
-81.81
-92.74
-103.52
-111.83
-115.08
-111.11
-98.95
-79.34
-54.61
-28.05
-3.00
18.06
33.88
44.48
50.62
53.40
53.79
52.57
50.31
47.52
44.73
42.32
40.61
39.68
39.45
39.72
40.32
41.15
42.09
43.04
43.76
43.91
43.06
40.87
37.23
32.32
26.56
20.50
14.54
8.81
3.15
-2.74
-9.04
-15.70
-22.40
-28.72
-34.38
-39.44
-44.28
-49.56
-55.99
-64.12
-74.07
-85.25
-96.15
-104.45
-107.50
-103.14
-90.54
-70.63
-46.03
-20.22
3.48
22.81
36.94
46.20
51.51
53.76
53.50
51.05
46.78
41.37
35.84
31.34
28.81
28.64
30.55
33.71
37.08
39.74
41.13
41.16
40.08
38.19
35.74
32.71
28.90
24.02
17.91
10.61
2.47
-5.92
-13.94
-21.06
-27.07
-32.13
-36.77
-41.74
-47.88
-55.83
-65.85
-77.39
-89.09
-98.72
-103.67
-101.69
-91.58
-73.79
-50.36
-24.42
0.75
22.51
39.41
51.15
58.20
61.34
61.32
58.76
54.32
48.77
43.07
38.21
35.00
33.80
34.43
36.20
38.21
39.67
40.11
39.48
38.01
35.95
33.38
30.08
25.65
19.75
12.33
3.74
-5.33
-14.07
-21.90
-28.61
-34.42
-39.91
-45.85
-53.05
-62.18
-73.58
-86.93
-100.94
-113.41
-121.43
-122.25
-114.14
-97.14
-73.19
-45.64
-18.21
6.03
25.33
39.40
48.95
55.00
58.47
59.86
59.51
57.74
55.11
52.37
50.26
49.26
49.46
50.54
51.94
53.13
53.71
53.51
52.52
50.83
48.45
45.27
41.04
35.46
28.33
19.75
10.14
0.23
-9.18
-17.52
-24.56
-30.60
-36.36
-42.82
-50.97
-61.54
-74.66
-89.50
-104.22
-116.09
-122.15
-120.00
-108.57
-88.63
-62.60
-33.94
-6.17
17.92
36.91
50.67
59.97
65.93
69.52
71.32
71.64
70.68
68.79
66.57
64.69
63.67
63.59
64.12
64.61
64.40
63.16
60.95
58.15
55.20
52.25
49.11
45.21
39.94
32.88
24.14
14.27
4.16
-5.33
-13.67
-20.81
-27.23
-33.72
-41.19
-50.43
-61.85
-75.26
-89.58
-102.82
-112.30
-115.25
-109.67
-95.04
-72.68
-45.50
-17.08
9.22
31.16
47.87
59.69
67.59
72.62
75.55
76.84
76.72
75.41
73.25
70.69
68.25
66.33
65.13
64.58
64.43
64.26
63.69
62.40
60.27
57.29
53.57
49.17
44.12
38.28
31.56
23.88
15.41
6.54
-2.19
-10.21
-17.22
-23.28
-28.82
-34.58
-41.38
-49.88
-60.44
-72.83
-86.11
-98.47
-107.44
-110.35
-105.15
-91.16
-69.49
-42.91
-15.03
10.70
31.95
47.81
58.66
65.48
69.28
70.67
69.96
67.37
63.37
58.81
54.70
51.93
50.89
51.34
52.58
53.76
54.25
53.79
52.48
50.60
48.32
45.64
42.27
37.86
32.12
24.99
16.75
8.04
-0.36
-7.70
-13.65
-18.42
-22.72
-27.56
-33.92
-42.42
-53.17
-65.57
-78.31
-89.37
-96.31
-96.82
-89.41
-73.95
-51.98
-26.33
-0.41
22.72
41.03
53.82
61.42
64.77
64.92
62.72
58.82
53.81
48.40
43.47
39.95
38.45
39.06
41.18
43.77
45.66
46.10
44.92
42.47
39.34
35.98
32.44
28.47
23.69
17.81
10.83
3.03
-5.16
-13.24
-20.79
-27.60
-33.63
-39.09
-44.44
-50.30
-57.41
-66.35
-77.22
-89.26
-100.71
-108.99
-111.35
-105.73
-91.56
-70.09
-44.12
-17.13
7.66
28.06
43.23
53.42
59.51
62.55
63.41
62.74
61.05
58.73
56.15
53.65
51.47
49.75
48.55
47.79
47.32
46.90
46.26
45.13
43.28
40.54
36.89
32.44
27.35
21.85
16.12
10.23
4.15
-2.16
-8.71
-15.35
-21.82
-27.83
-33.24
-38.18
-43.16
-48.95
-56.39
-66.06
-77.84
-90.62
-102.26
-109.90
-110.76
-103.01
-86.56
-63.20
-36.25
-9.47
13.99
32.29
45.10
53.21
57.84
60.13
60.86
60.48
59.27
57.52
55.51
53.50
51.71
50.23
49.06
48.13
47.32
46.40
45.16
43.41
41.06
38.07
34.50
30.35
25.56
20.02
13.69
6.63
-0.93
-8.62
-16.09
-23.03
-29.26
-34.82
-39.92
-45.00
-50.63
-57.49
-66.10
-76.49
-87.91
-98.67
-106.36
-108.47
-103.07
-89.64
-69.37
-44.89
-19.59
3.37
21.86
35.16
43.72
48.67
51.17
52.05
51.77
50.50
48.44
45.89
43.30
41.17
39.83
39.35
39.55
40.06
40.47
40.44
39.77
38.37
36.19
33.28
29.66
25.43
20.64
15.34
9.51
3.17
-3.62
-10.63
-17.48
-23.76
-29.25
-34.00
-38.40
-43.10
-48.77
-55.95
-64.84
-75.15
-85.84
-95.11
-100.66
-100.21
-92.30
-77.00
-56.06
-32.50
-9.67
9.77
24.41
34.26
40.16
43.16
44.00
43.06
40.56
36.84
32.59
28.64
25.83
24.64
25.05
26.58
28.47
30.00
30.66
30.33
29.16
27.47
25.48
23.21
20.43
16.78
11.95
5.98
-0.77
-7.66
-14.02
-19.44
-23.88
-27.69
-31.46
-35.85
-41.50
-48.81
-57.85
-68.04
-77.97
-85.51
-88.25
-84.27
-72.90
-55.15
-33.43
-10.87
9.72
26.45
38.72
46.79
51.37
53.06
52.26
49.24
44.43
38.60
32.77
28.04
25.18
24.43
25.37
27.13
28.71
29.34
28.71
27.02
24.73
22.29
19.81
17.03
13.41
8.45
1.95
-5.83
-14.18
-22.24
-29.26
-34.89
-39.31
-43.09
-47.06
-52.05
-58.72
-67.33
-77.64
-88.64
-98.50
-104.76
-104.90
-97.15
-81.30
-58.99
-33.35
-8.08
13.71
30.27
41.42
48.10
51.72
53.41
53.80
53.11
51.35
48.71
45.55
42.46
39.95
38.36
37.68
37.60
37.61
37.21
36.08
34.18
31.67
28.77
25.59
22.00
17.77
12.67
6.65
-0.12
-7.31
-14.54
-21.55
-28.17
-34.39
-40.21
-45.70
-51.04
-56.61
-63.00
-70.88
-80.58
-91.61
-102.37
-110.26
-112.37
-106.50
-92.03
-70.36
-44.47
-18.00
5.84
25.03
38.92
47.97
53.10
55.36
55.61
54.54
52.71
50.56
48.45
46.59
45.13
44.07
43.41
43.10
43.03
43.02
42.81
42.09
40.58
38.13
34.76
30.69
26.13
21.25
15.99
10.20
3.68
-3.56
-11.29
-19.04
-26.34
-32.86
-38.62
-43.95
-49.37
-55.52
-63.01
-72.23
-83.09
-94.73
-105.32
-112.27
-112.87
-105.23
-89.07
-66.06
-39.41
-12.82
10.52
28.78
41.57
49.55
53.87
55.61
55.58
54.38
52.45
50.19
47.98
46.13
44.78
44.03
43.79
43.96
44.40
44.86
45.08
44.75
43.58
41.36
38.03
33.71
28.68
23.21
17.49
11.57
5.35
-1.25
-8.26
-15.49
-22.65
-29.38
-35.49
-40.94
-46.01
-51.25
-57.33
-64.94
-74.39
-85.28
-96.24
-105.01
-108.87
-105.53
-93.88
-74.63
-50.15
-23.86
0.88
21.59
37.13
47.57
53.64
56.20
55.95
53.41
49.14
43.94
38.84
34.87
32.80
32.79
34.42
36.82
39.00
40.19
40.08
38.83
36.91
34.74
32.45
29.74
26.04
20.79
13.80
5.43
-3.55
-12.17
-19.72
-25.93
-31.08
-35.84
-41.01
-47.33
-55.33
-65.20
-76.68
-88.74
-99.55
-106.62
-107.33
-99.83
-83.77
-60.66
-33.55
-6.16
18.18
37.40
50.89
59.26
63.63
65.07
64.34
61.91
58.20
53.83
49.58
46.29
44.54
44.48
45.73
47.54
49.06
49.63
48.91
46.98
44.10
40.60
36.68
32.32
27.36
21.56
14.78
7.04
-1.40
-10.10
-18.56
-26.35
-33.26
-39.40
-45.18
-51.32
-58.61
-67.68
-78.77
-91.36
-103.95
-114.17
-119.26
-116.74
-105.39
-85.71
-59.94
-31.53
-4.05
19.65
38.08
51.08
59.44
64.30
66.76
67.57
67.21
66.01
64.21
62.11
60.00
58.15
56.75
55.87
55.45
55.29
55.16
54.80
53.90
52.23
49.63
46.04
41.52
36.24
30.35
23.97
17.18
10.00
2.52
-5.08
-12.56
-19.65
-26.21
-32.29
-38.19
-44.47
-51.85
-60.95
-71.93
-84.18
-96.05
-105.07
-108.45
-103.98
-90.77
-69.78
-43.56
-15.60
10.63
32.54
48.84
59.51
65.44
67.87
68.01
66.78
64.76
62.31
59.68
57.07
54.77
53.01
51.90
51.39
51.23
51.11
50.72
49.87
48.45
46.42
43.74
40.34
36.21
31.36
25.89
19.87
13.32
6.29
-1.19
-8.88
-16.42
-23.40
-29.51
-34.78
-39.58
-44.63
-50.76
-58.71
-68.77
-80.41
-92.09
-101.38
-105.47
-102.01
-90.06
-70.55
-46.12
-20.29
3.63
23.36
38.05
47.94
53.85
56.54
56.60
54.40
50.44
45.48
40.49
36.47
34.09
33.50
34.28
35.63
36.71
36.96
36.24
34.84
33.22
31.69
30.18
28.22
25.12
20.33
13.77
5.94
-2.21
-9.67
-15.81
-20.60
-24.67
-28.93
-34.35
-41.55
-50.66
-61.18
-71.96
-81.18
-86.71
-86.50
-79.26
-65.02
-45.26
-22.57
0.08
20.13
36.01
47.19
53.90
56.74
56.33
53.27
48.22
42.05
35.84
30.66
27.29
25.96
26.28
27.39
28.36
28.54
27.79
26.40
24.84
23.38
21.86
19.65
15.96
10.22
2.42
-6.78
-16.26
-24.84
-31.75
-36.91
-40.92
-44.87
-49.99
-57.23
-66.96
-78.67
-90.89
-101.24
-106.96
-105.65
-96.03
-78.53
-55.32
-29.65
-4.93
16.21
32.47
43.87
51.25
55.60
57.76
58.18
57.12
54.83
51.77
48.53
45.71
43.73
42.63
42.14
41.74
40.96
39.55
37.64
35.59
33.75
32.13
30.30
27.47
22.86
16.11
7.57
-1.82
-10.86
-18.57
-24.64
-29.43
-33.81
-38.81
-45.29
-53.74
-64.10
-75.62
-86.76
-95.33
-98.85
-95.30
-83.88
-65.47
-42.52
-18.31
4.06
22.51
36.31
45.88
52.18
56.06
58.03
58.26
56.88
54.23
50.91
47.64
44.99
43.19
42.06
41.16
40.07
38.55
36.65
34.61
32.66
30.82
28.79
26.02
21.93
16.19
8.92
0.71
-7.52
-14.90
-20.90
-25.59
-29.59
-33.90
-39.52
-47.15
-56.82
-67.80
-78.49
-86.76
-90.30
-87.34
-77.22
-60.68
-39.79
-17.37
3.80
21.66
35.22
44.45
49.88
52.14
51.72
49.06
44.68
39.40
34.25
30.24
27.98
27.45
28.04
28.90
29.27
28.85
27.81
26.57
25.43
24.29
22.62
19.64
14.83
8.19
0.37
-7.56
-14.55
-20.06
-24.25
-27.96
-32.40
-38.69
-47.48
-58.56
-70.71
-81.79
-89.13
-90.24
-83.63
-69.39
-49.35
-26.53
-4.26
14.82
29.25
38.86
44.34
46.63
46.52
44.57
41.19
36.89
32.35
28.30
25.35
23.65
22.83
22.23
21.16
19.30
16.83
14.26
12.07
10.42
8.84
6.53
2.64
-3.22
-10.81
-19.23
-27.30
-33.99
-38.80
-41.96
-44.35
-47.19
-51.67
-58.40
-67.10
-76.39
-84.03
-87.46
-84.57
-74.48
-57.88
-36.89
-14.39
6.83
24.90
39.07
49.66
57.44
63.16
67.28
69.84
70.77
70.15
68.27
65.63
62.81
60.20
57.94
55.94
54.04
52.14
50.29
48.62
47.21
45.94
44.42
42.08
38.33
32.73
25.24
16.29
6.71
-2.51
-10.51
-16.88
-21.83
-26.13
-30.84
-37.01
-45.30
-55.66
-67.18
-78.03
-85.81
-88.09
-83.16
-70.75
-52.19
-30.20
-7.97
11.78
27.50
38.90
46.60
51.44
54.03
54.60
53.21
50.10
45.84
41.30
37.34
34.54
32.95
32.22
31.76
31.07
29.89
28.28
26.53
24.85
23.27
21.43
18.78
14.71
8.99
1.83
-6.08
-13.84
-20.66
-26.19
-30.62
-34.56
-38.82
-44.18
-51.13
-59.76
-69.60
-79.49
-87.65
-91.92
-90.35
-81.91
-66.92
-47.11
-25.18
-3.94
14.43
28.84
39.17
45.94
49.75
51.04
50.05
47.04
42.55
37.45
32.78
29.39
27.68
27.44
28.02
28.65
28.78
28.28
27.32
26.09
24.58
22.42
19.00
13.83
6.79
-1.66
-10.56
-18.80
-25.51
-30.47
-34.14
-37.64
-42.22
-48.86
-57.79
-68.23
-78.40
-85.93
-88.44
-84.26
-73.03
-55.81
-34.90
-13.17
6.74
23.03
35.03
42.97
47.57
49.58
49.49
47.60
44.26
40.00
35.61
31.91
29.49
28.45
28.38
28.61
28.51
27.82
26.67
25.39
24.18
22.88
20.90
17.50
12.17
4.91
-3.65
-12.47
-20.47
-26.96
-31.87
-35.72
-39.50
-44.33
-51.11
-60.18
-71.10
-82.45
-92.00
-97.14
-95.64
-86.43
-70.05
-48.60
-25.18
-2.84
16.17
30.88
41.44
48.67
53.40
56.16
57.11
56.33
54.02
50.71
47.16
44.12
42.11
41.21
41.08
41.13
40.77
39.61
37.54
34.73
31.48
28.03
24.41
20.43
15.76
10.09
3.37
-4.18
-12.05
-19.66
-26.54
-32.50
-37.65
-42.33
-47.01
-52.20
-58.38
-65.95
-75.01
-85.04
-94.64
-101.60
-103.36
-97.88
-84.47
-64.23
-39.87
-14.85
7.72
25.92
39.25
48.33
54.21
57.83
59.71
60.09
59.15
57.18
54.64
52.03
49.80
48.15
47.08
46.41
45.84
45.09
43.91
42.21
39.97
37.28
34.21
30.79
26.98
22.65
17.62
11.79
5.19
-2.01
-9.45
-16.78
-23.67
-29.94
-35.58
-40.81
-46.06
-51.93
-59.10
-67.96
-78.30
-88.94
-97.74
-102.05
-99.45
-88.76
-70.55
-47.09
-21.75
2.11
22.01
36.84
46.78
52.78
55.94
57.15
56.93
55.64
53.57
51.07
48.51
46.16
44.22
42.73
41.71
41.15
40.99
41.10
41.17
40.84
39.73
37.58
34.30
30.05
25.09
19.72
14.20
8.59
2.87
-3.08
-9.31
-15.73
-22.11
-28.16
-33.65
-38.53
-43.04
-47.64
-52.98
-59.69
-68.16
-78.08
-88.27
-96.61
-100.45
-97.44
-86.45
-68.12
-44.85
-20.08
2.82
21.45
34.90
43.50
48.25
50.14
49.82
47.59
43.70
38.64
33.29
28.69
25.75
24.94
26.07
28.43
31.05
33.04
33.91
33.59
32.30
30.34
27.90
24.98
21.44
17.11
12.00
6.23
0.10
-6.11
-12.18
-17.92
-23.28
-28.25
-32.96
-37.74
-43.11
-49.75
-58.22
-68.50
-79.75
-90.10
-97.01
-97.99
-91.38
-77.04
-56.53
-32.64
-8.63
12.74
29.72
41.78
49.28
53.04
53.90
52.57
49.61
45.60
41.20
37.12
34.02
32.33
32.11
33.06
34.59
36.06
36.96
36.96
36.02
34.24
31.74
28.59
24.73
19.99
14.19
7.34
-0.35
-8.39
-16.19
-23.22
-29.21
-34.29
-38.87
-43.58
-49.08
-55.97
-64.64
-75.17
-86.99
-98.68
-108.01
-112.36
-109.48
-98.37
-79.73
-55.92
-30.17
-5.72
15.08
31.09
42.31
49.41
53.32
54.87
54.74
53.47
51.51
49.31
47.25
45.65
44.73
44.56
45.06
46.04
47.27
48.42
49.19
49.25
48.26
45.95
42.23
37.21
31.25
24.83
18.38
12.14
6.06
-0.14
-6.75
-13.89
-21.42
-28.97
-36.12
-42.57
-48.35
-53.84
-59.73
-66.86
-75.94
-87.03
-99.20
-110.34
-117.45
-117.54
-108.68
-90.83
-66.04
-37.85
-10.15
13.99
32.95
46.58
55.67
61.26
64.23
65.19
64.57
62.88
60.68
58.52
56.78
55.62
54.95
54.61
54.46
54.51
54.83
55.48
56.32
56.90
56.60
54.80
51.15
45.77
39.21
32.25
25.57
19.50
13.93
8.38
2.33
-4.58
-12.35
-20.63
-28.91
-36.73
-43.80
-50.21
-56.40
-63.12
-71.20
-81.20
-92.97
-105.22
-115.55
-120.89
-118.46
-106.76
-86.34
-59.69
-30.58
-2.83
20.69
38.60
50.92
58.51
62.45
63.62
62.69
60.19
56.72
52.97
49.62
47.18
45.91
45.75
46.40
47.48
48.60
49.45
49.82
49.49
48.27
46.03
42.73
38.48
33.50
27.99
22.12
15.93
9.40
2.50
-4.62
-11.73
-18.48
-24.62
-30.05
-34.93
-39.75
-45.26
-52.31
-61.48
-72.64
-84.54
-94.84
-100.59
-99.13
-89.08
-70.98
-47.15
-21.03
3.91
25.08
41.23
52.26
58.70
61.29
60.65
57.34
52.07
45.80
39.68
34.76
31.72
30.67
31.25
32.72
34.28
35.32
35.47
34.67
33.03
30.78
28.04
24.82
20.95
16.11
10.02
2.58
-5.93
-14.95
-23.68
-31.37
-37.63
-42.59
-46.94
-51.70
-57.96
-66.50
-77.39
-89.78
-101.83
-110.96
-114.40
-110.02
-96.98
-76.23
-50.28
-22.55
3.57
25.54
42.16
53.45
60.15
63.29
63.76
62.23
59.19
55.19
50.88
46.96
44.07
42.61
42.62
43.77
45.49
47.12
48.11
48.09
46.91
44.57
41.19
36.90
31.83
26.05
19.63
12.59
5.03
-2.89
-10.87
-18.60
-25.76
-32.23
-38.13
-43.82
-49.90
-57.02
-65.80
-76.52
-88.81
-101.42
-112.16
-118.26
-117.13
-107.22
-88.71
-63.68
-35.48
-7.87
16.17
34.98
48.36
57.15
62.52
65.52
66.75
66.55
65.06
62.61
59.65
56.77
54.49
53.12
52.71
52.97
53.56
54.00
53.95
53.15
51.53
49.07
45.84
41.86
37.12
31.56
25.12
17.83
9.87
1.53
-6.84
-14.85
-22.27
-29.02
-35.27
-41.48
-48.30
-56.51
-66.68
-78.80
-91.96
-104.15
-112.62
-114.53
-107.93
-92.48
-69.71
-42.70
-15.10
9.83
29.96
44.61
54.20
59.72
62.24
62.55
61.21
58.65
55.34
51.85
48.77
46.62
45.62
45.65
46.32
47.15
47.74
47.88
47.54
46.75
45.49
43.59
40.75
36.63
30.94
23.64
15.01
5.69
-3.47
-11.70
-18.54
-24.05
-28.80
-33.69
-39.65
-47.34
-57.02
-68.37
-80.35
-91.18
-98.49
-99.87
-93.56
-79.21
-58.18
-33.28
-7.92
14.86
33.12
46.20
54.42
58.53
59.25
57.13
52.75
46.82
40.41
34.71
30.79
29.21
29.80
31.78
34.05
35.65
36.07
35.41
34.11
32.62
31.03
28.92
25.57
20.35
13.12
4.41
-4.76
-13.28
-20.40
-26.05
-30.81
-35.69
-41.80
-49.98
-60.49
-72.79
-85.42
-96.10
-102.13
-101.20
-92.02
-75.00
-52.19
-26.72
-1.87
19.78
36.84
49.07
56.94
61.11
62.12
60.41
56.45
50.98
45.01
39.65
35.83
34.01
34.03
35.25
36.73
37.65
37.54
36.40
34.60
32.55
30.42
27.88
24.29
18.96
11.54
2.34
-7.68
-17.35
-25.68
-32.35
-37.75
-42.74
-48.42
-55.71
-65.14
-76.66
-89.48
-101.91
-111.47
-115.39
-111.36
-98.45
-77.57
-51.38
-23.52
2.45
24.06
40.30
51.53
58.84
63.39
65.99
66.99
66.51
64.73
62.03
59.05
56.42
54.56
53.56
53.16
52.93
52.41
51.35
49.72
47.61
45.14
42.37
39.13
35.17
30.17
23.93
16.51
8.19
-0.49
-8.97
-16.76
-23.64
-29.64
-35.13
-40.67
-46.99
-54.83
-64.74
-76.71
-89.88
-102.43
-111.71
-114.88
-109.82
-95.90
-74.36
-48.10
-20.78
4.22
24.66
39.75
49.93
56.28
59.91
61.59
61.76
60.67
58.68
56.25
53.94
52.21
51.21
50.76
50.49
50.00
49.07
47.74
46.22
44.71
43.17
41.23
38.31
33.76
27.20
18.70
8.92
-1.12
-10.32
-17.98
-23.95
-28.81
-33.52
-39.16
-46.58
-56.20
-67.85
-80.70
-93.13
-102.83
-107.26
-104.24
-92.80
-73.69
-49.28
-22.95
1.92
22.89
38.81
49.76
56.48
59.87
60.68
59.49
56.88
53.51
50.03
46.94
44.43
42.42
40.63
38.85
37.02
35.24
33.66
32.25
30.74
28.61
25.29
20.37
13.82
6.02
-2.32
-10.41
-17.68
-24.01
-29.82
-35.96
-43.46
-53.02
-64.64
-77.20
-88.50
-95.73
-96.28
-88.60
-72.89
-51.06
-26.18
-1.54
20.19
37.54
50.11
58.23
62.56
63.73
62.28
58.84
54.17
49.19
44.79
41.59
39.76
39.01
38.73
38.30
37.36
35.93
34.30
32.78
31.36
29.61
26.76
22.06
15.20
6.50
-3.08
-12.25
-19.93
-25.59
-29.51
-32.66
-36.40
-41.96
-50.00
-60.27
-71.39
-81.07
-86.52
-85.26
-75.85
-58.50
-35.07
-8.59
17.63
40.87
59.59
73.39
82.68
88.14
90.32
89.62
86.44
81.41
75.43
69.62
65.04
62.40
61.86
63.00
64.91
66.44
66.54
64.45
59.95
53.26
44.94
35.66
25.90
15.89
5.60
-5.07
-16.04
-27.08
-37.72
-47.57
-56.46
-64.59
-72.43
-80.53
-89.27
-98.77
-108.99
-119.81
-130.90
-141.56
-150.43
-155.57
-154.84
-146.73
-131.07
-109.36
-84.40
-59.44
-37.11
-18.80
-4.56
6.40
14.96
21.61
26.32
28.88
29.35
28.33
26.84
25.94
26.17
27.31
28.65
29.42
29.30
28.57
27.80
27.31
26.76
25.20
21.67
15.93
8.81
1.91
-3.19
-5.84
-6.59
-6.92
-8.30
-11.44
-16.01
-20.97
-25.09
-27.39
-27.12
-23.62
-16.33
-5.06
9.57
25.87
41.47
54.12
62.52
66.74
68.03
68.16
68.66
70.44
73.67
77.96
82.63
86.80
89.69
90.84
90.39
89.06
87.85
87.38
87.27
85.96
81.04
70.25
52.36
27.58
-2.73
-36.86
-73.43
-111.56
-150.54
-189.24
-226.06
-259.27
-287.69
-310.91
-328.87
-341.01
-345.50
-339.46
-320.10
-286.30
-239.73
-184.79
-127.21
-72.30
-23.38
18.70
54.97
87.18
116.69
143.99
168.75
190.45
208.92
224.62
238.50
251.71
265.26
279.93
296.36
315.17
336.68
360.52
385.04
407.34
423.84
431.37
428.23
414.71
392.66
364.64
332.88
298.77
263.00
226.01
188.38
150.92
114.34
78.76
43.48
7.00
-32.68
-77.45
-128.28
-184.29
-242.05
-295.95
-339.43
-367.06
-376.43
-369.09
-349.97
-325.73
-302.49
-284.21
-271.93
-264.31
-258.76
-252.75
-244.85
-235.06
-224.68
-215.63
-209.68
-207.87
-210.27
-216.12
-224.34
-233.83
-243.65
-253.20
-262.31
-271.34
-281.09
-292.28
-304.92
-317.68
-327.96
-332.62
-329.22
-317.10
-297.72
-274.23
-250.46
-229.71
-214.12
-204.46
-200.42
-201.00
-204.72
-209.87
-214.60
-217.08
-215.75
-209.61
-198.27
-181.88
-160.95
-136.15
-108.19
-77.79
-45.63
-12.41
21.19
54.61
87.41
119.50
151.22
183.30
216.56
251.30
286.57
319.93
347.87
366.87
374.63
370.86
357.22
336.52
311.81
285.71
260.59
238.86
223.30
216.78
221.64
238.81
267.25
303.97
344.44
383.49
416.23
439.00
450.01
449.44
438.98
421.06
397.93
371.23
342.02
311.18
279.84
249.18
220.21
193.07
166.69
139.04
107.40
68.91
20.94
-38.17
-108.07
-185.38
-263.31
-332.69
-384.50
-412.85
-417.08
-401.87
-375.11
-344.79
-316.42
-291.99
-270.69
-250.53
-229.72
-207.14
-182.27
-154.85
-124.89
-92.95
-60.41
-29.24
-1.43
21.37
38.48
50.20
57.57
62.02
64.95
67.34
69.62
71.72
73.29
74.01
73.90
73.36
73.07
73.64
75.29
77.65
79.80
80.57
78.97
74.54
67.46
58.36
48.04
37.08
25.75
13.91
1.31
-12.13
-25.95
-38.99
-49.41
-55.06
-54.07
-45.58
-30.10
-9.63
12.93
34.50
52.63
65.98
74.29
78.10
78.26
75.53
70.48
63.57
55.30
46.31
37.42
29.49
23.22
18.98
16.66
15.80
15.60
15.20
13.89
11.27
7.32
2.37
-3.10
-8.70
-14.25
-19.87
-25.93
-32.97
-41.53
-51.85
-63.63
-75.81
-86.55
-93.56
-94.70
-88.70
-75.61
-56.77
-34.40
-10.89
11.79
32.37
50.23
65.13
76.97
85.73
91.34
93.81
93.22
89.75
83.74
75.79
66.79
57.80
49.84
43.55
39.00
35.72
32.95
30.00
26.53
22.69
18.93
15.75
13.49
12.20
11.63
11.33
10.71
8.90
4.90
-2.29
-13.13
-27.03
-41.98
-54.78
-61.79
-60.11
-48.60
-28.33
-2.26
25.72
51.90
73.67
89.81
100.31
105.87
107.49
106.11
102.51
97.33
90.96
83.66
75.52
66.51
56.71
46.38
36.13
26.81
19.26
14.06
11.23
10.18
9.82
8.88
6.38
1.90
-4.25
-11.14
-17.60
-22.62
-25.74
-27.20
-27.95
-29.34
-32.61
-38.25
-45.64
-52.87
-57.18
-55.85
-47.09
-30.84
-8.90
15.61
39.28
59.34
74.45
84.62
90.81
94.24
95.82
95.99
94.88
92.61
89.50
86.14
83.21
81.35
80.97
82.17
84.67
87.78
90.35
90.97
88.29
81.42
70.32
55.81
39.33
22.44
6.37
-8.09
-20.55
-30.77
-38.53
-43.68
-46.26
-46.74
-45.96
-44.96
-44.58
-45.03
-45.68
-45.16
-41.80
-34.33
-22.48
-7.25
9.37
24.98
37.56
46.01
50.28
51.04
49.34
46.13
42.15
37.92
33.90
30.56
28.34
27.56
28.20
29.79
31.36
31.64
29.41
23.86
14.94
3.34
-9.68
-22.70
-34.62
-44.95
-53.78
-61.57
-68.78
-75.51
-81.42
-85.93
-88.52
-89.16
-88.41
-87.31
-87.08
-88.73
-92.82
-99.39
-107.95
-117.45
-126.34
-132.68
-134.46
-130.15
-119.34
-103.04
-83.44
-63.41
-45.49
-31.30
-21.31
-15.01
-11.47
-9.78
-9.34
-9.88
-11.31
-13.55
-16.48
-19.81
-23.19
-26.26
-28.79
-30.68
-32.07
-33.22
-34.36
-35.58
-36.91
-38.30
-39.90
-42.00
-45.02
-49.24
-54.67
-61.03
-67.78
-74.37
-80.50
-86.17
-91.64
-97.25
-103.26
-109.71
-116.38
-122.86
-128.52
-132.40
-133.25
-129.56
-119.95
-103.65
-81.04
-53.70
-24.33
4.04
28.74
48.10
61.61
69.74
73.50
74.06
72.43
69.37
65.42
60.90
55.99
50.86
45.73
40.89
36.69
33.43
31.15
29.63
28.34
26.60
23.77
19.45
13.58
6.41
-1.63
-10.00
-18.15
-25.58
-31.89
-36.76
-40.01
-41.71
-42.20
-42.09
-42.14
-43.15
-45.69
-50.02
-55.90
-62.48
-68.47
-72.14
-71.78
-66.17
-54.96
-38.96
-19.95
-0.22
18.10
33.46
45.14
53.14
57.75
59.36
58.26
54.79
49.44
42.92
36.09
29.72
24.37
20.27
17.39
15.51
14.37
13.74
13.42
13.25
13.02
12.46
11.19
8.80
5.01
-0.20
-6.45
-13.04
-19.11
-24.03
-27.62
-30.27
-32.80
-36.25
-41.42
-48.64
-57.45
-66.53
-73.98
-77.68
-75.95
-68.15
-54.93
-38.16
-20.31
-3.75
9.86
19.86
26.38
29.98
31.17
30.21
27.16
22.17
15.73
8.69
2.04
-3.34
-7.06
-9.30
-10.58
-11.52
-12.48
-13.62
-14.93
-16.48
-18.54
-21.48
-25.67
-31.21
-37.90
-45.23
-52.43
-58.74
-63.56
-66.66
-68.31
-69.29
-70.72
-73.72
-79.06
-86.75
-95.91
-104.73
-110.88
-111.96
-106.21
-93.07
-73.43
-49.49
-24.26
-0.73
18.79
33.11
42.10
46.39
46.91
44.55
40.06
34.02
27.00
19.58
12.34
5.69
-0.22
-5.58
-10.86
-16.59
-23.17
-30.75
-39.12
-47.94
-56.84
-65.66
-74.47
-83.47
-92.80
-102.29
-111.33
-118.95
-124.11
-126.03
-124.48
-119.98
-113.68
-107.18
-102.17
-100.03
-101.38
-105.78
-111.59
-116.22
-116.70
-110.52
-96.54
-75.34
-49.21
-21.43
4.73
26.90
44.07
56.56
65.52
72.27
77.87
82.81
87.21
91.02
94.27
97.16
99.99
103.06
106.52
110.31
114.19
117.74
120.53
122.25
122.75
122.02
120.07
116.83
112.11
105.72
97.60
88.02
77.58
67.04
57.06
48.05
39.98
32.57
25.32
17.66
8.94
-1.48
-14.10
-28.84
-44.72
-59.66
-70.77
-75.09
-70.60
-56.96
-35.82
-10.25
16.19
40.55
61.17
77.71
90.71
100.94
108.88
114.53
117.59
117.83
115.30
110.56
104.49
98.10
92.24
87.36
83.44
80.22
77.34
74.62
72.08
69.75
67.46
64.72
60.80
55.03
47.17
37.59
27.18
17.04
8.07
0.66
-5.42
-10.91
-16.81
-24.14
-33.65
-45.58
-59.40
-73.63
-85.96
-93.62
-94.11
-85.97
-69.38
-46.22
-19.58
7.08
30.85
49.87
63.44
71.63
74.94
73.98
69.44
62.19
53.34
44.17
35.84
29.10
24.15
20.72
18.35
16.63
15.40
14.63
14.23
13.83
12.68
9.91
4.80
-2.90
-12.75
-23.78
-34.76
-44.62
-52.79
-59.38
-65.07
-70.94
-78.00
-86.72
-96.64
-106.19
-112.84
-113.74
-106.53
-90.24
-65.72
-35.48
-3.01
28.22
55.60
77.75
94.33
105.69
112.37
114.86
113.72
109.67
103.74
97.15
91.03
86.10
82.53
79.95
77.72
75.28
72.39
69.21
66.11
63.43
61.11
58.68
55.28
50.09
42.63
33.07
22.18
11.07
0.73
-8.28
-16.10
-23.46
-31.42
-41.01
-52.83
-66.67
-81.32
-94.55
-103.50
-105.36
-98.29
-82.08
-58.42
-30.42
-1.78
24.30
45.76
61.89
72.98
79.79
83.11
83.57
81.65
77.86
72.83
67.34
62.16
57.91
54.92
53.17
52.36
52.03
51.74
51.24
50.44
49.33
47.84
45.75
42.67
38.16
31.96
24.09
15.00
5.40
-3.92
-12.36
-19.65
-25.97
-31.85
-38.05
-45.38
-54.40
-65.19
-77.04
-88.38
-96.88
-99.91
-95.34
-82.21
-61.35
-35.17
-7.13
19.27
41.39
57.98
69.10
75.63
78.71
79.25
77.81
74.75
70.40
65.26
59.92
54.99
50.88
47.79
45.67
44.34
43.52
42.97
42.48
41.84
40.88
39.39
37.17
34.01
29.81
24.56
18.38
11.52
4.29
-3.02
-10.17
-17.07
-23.67
-30.02
-36.18
-42.33
-48.77
-55.96
-64.42
-74.33
-85.15
-95.38
-102.65
-104.30
-98.31
-84.12
-63.00
-37.71
-11.73
11.77
30.72
44.38
53.14
58.02
60.12
60.33
59.23
57.18
54.51
51.53
48.61
46.09
44.19
43.02
42.51
42.59
43.14
44.09
45.27
46.30
46.60
45.48
42.32
36.88
29.35
20.37
10.76
1.27
-7.60
-15.59
-22.55
-28.40
-33.03
-36.41
-38.74
-40.55
-42.59
-45.72
-50.63
-57.49
-65.72
-73.86
-79.75
-81.00
-75.67
-62.94
-43.53
-19.55
6.00
29.98
49.93
64.40
73.07
76.45
75.53
71.45
65.29
57.99
50.40
43.23
37.07
32.34
29.20
27.48
26.71
26.27
25.61
24.42
22.72
20.75
18.79
16.96
15.08
12.79
9.64
5.30
-0.28
-6.88
-14.08
-21.37
-28.35
-34.76
-40.56
-45.84
-50.80
-55.77
-61.11
-67.19
-74.17
-81.85
-89.34
-95.12
-97.33
-94.26
-85.12
-70.36
-51.67
-31.49
-12.24
4.21
16.92
25.72
30.95
33.08
32.60
29.98
25.79
20.71
15.54
11.04
7.79
6.06
5.79
6.61
7.99
9.46
10.71
11.67
12.39
12.82
12.72
11.68
9.33
5.53
0.49
-5.21
-10.86
-15.89
-19.98
-23.24
-26.11
-29.24
-33.32
-38.88
-45.98
-54.04
-61.71
-67.18
-68.59
-64.70
-55.33
-41.48
-25.05
-8.26
6.98
19.45
28.64
34.58
37.49
37.63
35.28
30.86
25.07
18.82
13.10
8.74
6.20
5.49
6.17
7.56
8.93
9.79
9.92
9.40
8.43
7.15
5.46
3.03
-0.50
-5.31
-11.24
-17.69
-23.93
-29.33
-33.58
-36.87
-39.73
-42.87
-46.95
-52.41
-59.30
-67.08
-74.62
-80.23
-82.07
-78.64
-69.31
-54.67
-36.48
-17.15
0.92
15.96
27.16
34.59
38.85
40.73
40.85
39.61
37.30
34.20
30.71
27.36
24.63
22.90
22.19
22.27
22.68
22.96
22.82
22.20
21.20
19.95
18.44
16.50
13.81
10.07
5.17
-0.70
-7.08
-13.38
-19.08
-23.92
-28.00
-31.68
-35.48
-39.87
-45.24
-51.80
-59.48
-67.82
-75.80
-81.78
-83.87
-80.49
-70.95
-55.89
-37.17
-17.29
1.35
17.11
29.29
37.93
43.51
46.57
47.57
46.96
45.21
42.80
40.12
37.44
34.90
32.58
30.60
29.11
28.24
28.00
28.21
28.51
28.50
27.82
26.27
23.87
20.72
16.97
12.71
7.97
2.80
-2.72
-8.38
-13.94
-19.15
-23.87
-28.10
-31.98
-35.73
-39.64
-44.08
-49.45
-56.06
-63.79
-71.82
-78.59
-82.02
-80.17
-72.03
-57.97
-39.75
-19.96
-1.16
14.82
27.19
36.00
41.70
44.83
45.79
44.99
42.93
40.27
37.66
35.51
33.95
32.85
32.00
31.33
30.89
30.80
31.12
31.71
32.27
32.40
31.69
29.89
26.90
22.84
18.05
13.01
8.22
4.02
0.48
-2.70
-6.04
-10.03
-14.91
-20.55
-26.48
-32.08
-36.86
-40.63
-43.67
-46.58
-50.15
-55.18
-62.05
-70.56
-79.68
-87.61
-92.14
-91.26
-83.78
-69.85
-50.98
-29.62
-8.52
10.06
24.78
35.30
42.04
45.75
47.20
47.02
45.71
43.69
41.38
39.16
37.31
35.97
35.12
34.64
34.40
34.31
34.37
34.60
35.04
35.57
35.89
35.48
33.84
30.67
26.02
20.45
14.74
9.65
5.52
2.20
-0.87
-4.38
-8.77
-14.06
-19.86
-25.56
-30.62
-34.78
-38.16
-41.24
-44.76
-49.42
-55.68
-63.48
-72.00
-79.69
-84.56
-84.67
-78.74
-66.66
-49.57
-29.61
-9.29
9.19
24.37
35.73
43.43
48.00
49.96
49.72
47.67
44.25
40.02
35.68
31.85
28.99
27.27
26.60
26.77
27.50
28.58
29.83
31.05
31.94
32.12
31.20
28.91
25.30
20.71
15.73
10.91
6.55
2.60
-1.30
-5.53
-10.33
-15.60
-21.01
-26.17
-30.76
-34.73
-38.30
-41.94
-46.27
-51.86
-58.92
-66.98
-74.73
-80.15
-81.05
-75.81
-64.00
-46.66
-26.01
-4.79
14.53
30.29
41.79
49.14
52.85
53.62
52.10
48.90
44.60
39.80
35.04
30.87
27.71
25.85
25.38
26.19
27.94
30.12
32.12
33.37
33.41
32.07
29.40
25.67
21.28
16.56
11.72
6.80
1.69
-3.73
-9.46
-15.43
-21.44
-27.23
-32.61
-37.45
-41.79
-45.92
-50.38
-55.84
-62.83
-71.31
-80.38
-88.24
-92.53
-91.08
-82.63
-67.40
-47.04
-24.21
-1.80
17.78
33.12
43.85
50.40
53.64
54.47
53.55
51.37
48.23
44.38
40.22
36.21
32.86
30.60
29.63
29.90
31.08
32.70
34.24
35.27
35.43
34.50
32.34
29.00
24.63
19.52
13.98
8.24
2.42
-3.49
-9.55
-15.73
-21.86
-27.74
-33.16
-38.12
-42.83
-47.75
-53.46
-60.43
-68.81
-78.08
-86.92
-93.33
-95.06
-90.36
-78.65
-60.82
-39.07
-16.29
4.83
22.38
35.55
44.46
49.79
52.37
52.96
52.15
50.35
47.90
45.07
42.16
39.49
37.40
36.13
35.73
36.04
36.69
37.28
37.46
37.02
35.88
34.06
31.46
28.01
23.60
18.23
12.07
5.43
-1.27
-7.66
-13.50
-18.73
-23.51
-28.12
-32.92
-38.34
-44.86
-52.82
-62.25
-72.55
-82.36
-89.64
-92.13
-88.12
-77.06
-59.89
-38.84
-16.73
3.84
21.09
34.29
43.63
49.73
53.28
54.73
54.40
52.48
49.32
45.43
41.49
38.14
35.83
34.66
34.42
34.73
35.19
35.57
35.75
35.71
35.42
34.74
33.44
31.27
28.04
23.68
18.30
12.17
5.67
-0.77
-6.83
-12.32
-17.26
-21.85
-26.53
-31.82
-38.29
-46.30
-55.60
-65.19
-73.21
-77.36
-75.58
-66.84
-51.56
-31.58
-9.66
11.44
29.63
43.87
54.04
60.58
64.05
64.93
63.60
60.50
56.25
51.64
47.44
44.27
42.35
41.56
41.44
41.46
41.12
40.23
38.81
37.11
35.34
33.56
31.51
28.70
24.66
19.11
12.27
4.75
-2.66
-9.24
-14.66
-19.08
-23.04
-27.31
-32.65
-39.61
-48.27
-58.05
-67.60
-75.01
-78.19
-75.54
-66.45
-51.65
-33.04
-13.16
5.49
21.05
32.59
40.12
44.23
45.76
45.45
43.81
41.14
37.70
33.78
29.83
26.30
23.54
21.66
20.57
20.04
19.82
19.72
19.57
19.12
18.05
15.98
12.62
7.84
1.79
-5.05
-12.09
-18.79
-24.84
-30.36
-35.88
-42.16
-49.78
-58.68
-67.87
-75.49
-79.28
-77.32
-68.75
-54.23
-35.72
-15.97
2.30
17.13
27.64
33.95
36.75
36.91
35.11
31.78
27.23
21.92
16.49
11.73
8.36
6.80
6.96
8.40
10.47
12.49
13.90
14.31
13.41
11.06
7.33
2.47
-3.04
-8.73
-14.25
-19.56
-24.89
-30.68
-37.38
-45.22
-54.03
-62.98
-70.59
-74.87
-73.94
-66.61
-52.97
-34.60
-14.10
5.61
22.13
34.14
41.52
44.99
45.64
44.45
42.08
38.91
35.14
31.00
26.85
23.12
20.19
18.35
17.60
17.76
18.45
19.15
19.33
18.50
16.35
12.82
8.12
2.67
-3.10
-8.90
-14.62
-20.42
-26.53
-33.30
-40.88
-49.07
-57.15
-63.81
-67.31
-66.02
-58.94
-46.23
-29.31
-10.51
7.65
23.16
34.93
42.87
47.53
49.73
50.14
49.23
47.26
44.46
41.15
37.73
34.68
32.33
30.83
30.07
29.80
29.69
29.43
28.71
27.27
24.85
21.25
16.44
10.56
3.99
-2.77
-9.24
-15.18
-20.66
-26.12
-32.29
-39.80
-48.80
-58.55
-67.39
-73.03
-73.32
-67.02
-54.41
-37.21
-18.05
0.38
16.12
28.26
36.93
42.74
46.44
48.52
49.23
48.73
47.19
44.94
42.39
39.94
37.84
36.10
34.56
32.99
31.26
29.41
27.59
26.02
24.76
23.63
22.19
19.85
16.09
10.70
3.94
-3.55
-10.88
-17.32
-22.56
-26.81
-30.72
-35.21
-41.07
-48.70
-57.84
-67.47
-75.89
-81.06
-81.12
-74.97
-62.72
-45.73
-26.32
-7.09
9.82
23.16
32.75
39.17
43.32
46.02
47.70
48.50
48.40
47.40
45.69
43.60
41.47
39.56
37.99
36.80
35.99
35.57
35.47
35.46
35.12
33.98
31.68
28.12
23.57
18.50
13.36
8.41
3.65
-1.06
-5.94
-11.02
-16.25
-21.41
-26.34
-30.93
-35.30
-39.79
-44.88
-51.09
-58.66
-67.26
-75.83
-82.59
-85.50
-82.82
-73.84
-59.20
-40.79
-21.21
-2.91
12.43
24.19
32.67
38.59
42.63
45.22
46.49
46.51
45.49
43.82
41.98
40.39
39.25
38.54
38.07
37.68
37.27
36.91
36.63
36.32
35.68
34.26
31.72
28.01
23.47
18.70
14.24
10.30
6.65
2.79
-1.76
-7.16
-13.15
-19.14
-24.59
-29.17
-32.95
-36.35
-39.97
-44.43
-50.25
-57.58
-66.05
-74.56
-81.34
-84.33
-81.73
-72.72
-57.87
-39.08
-19.05
-0.47
14.72
25.71
32.77
36.84
38.97
39.98
40.24
39.84
38.77
37.12
35.16
33.16
31.34
29.74
28.32
27.11
26.23
25.82
25.88
26.12
25.95
24.70
22.00
17.91
13.01
8.12
3.96
0.79
-1.61
-3.88
-6.71
-10.54
-15.42
-20.97
-26.62
-31.88
-36.56
-40.85
-45.14
-49.94
-55.59
-62.21
-69.46
-76.52
-82.07
-84.54
-82.54
-75.37
-63.39
-48.03
-31.36
-15.44
-1.77
9.01
16.98
22.55
26.13
27.99
28.32
27.35
25.51
23.35
21.42
20.13
19.69
20.09
21.20
22.78
24.51
26.07
27.14
27.41
26.66
24.75
21.71
17.73
13.13
8.31
3.67
-0.54
-4.30
-7.81
-11.32
-15.03
-18.92
-22.71
-26.08
-28.84
-31.09
-33.27
-36.02
-39.93
-45.22
-51.51
-57.71
-62.26
-63.46
-60.01
-51.47
-38.52
-22.85
-6.68
7.84
19.23
26.99
31.49
33.65
34.43
34.49
34.13
33.42
32.49
31.61
31.18
31.57
32.89
34.95
37.33
39.60
41.48
42.88
43.86
44.41
44.34
43.32
41.06
37.46
32.77
27.48
22.16
17.15
12.51
7.93
3.04
-2.38
-8.27
-14.32
-20.10
-25.31
-29.90
-34.05
-38.16
-42.70
-48.15
-54.81
-62.59
-70.78
-77.92
-82.06
-81.33
-74.60
-62.07
-45.29
-26.72
-8.92
6.19
17.76
25.83
31.01
33.96
35.11
34.74
33.12
30.64
27.90
25.48
23.78
22.90
22.58
22.50
22.39
22.25
22.27
22.64
23.38
24.17
24.44
23.61
21.29
17.53
12.79
7.77
3.15
-0.71
-3.88
-6.83
-10.17
-14.39
-19.57
-25.41
-31.32
-36.72
-41.33
-45.23
-48.85
-52.85
-57.89
-64.47
-72.66
-81.86
-90.70
-97.16
-99.04
-94.66
-83.54
-66.68
-46.32
-25.30
-6.19
9.28
20.51
27.83
32.10
34.25
35.03
34.85
33.90
32.30
30.26
28.15
26.42
25.43
25.32
26.04
27.44
29.37
31.76
34.52
37.38
39.88
41.42
41.49
39.93
36.93
32.98
28.63
24.25
19.95
15.59
10.89
5.58
-0.38
-6.85
-13.43
-19.62
-25.00
-29.41
-33.09
-36.64
-40.90
-46.66
-54.39
-63.88
-74.00
-82.78
-87.80
-86.91
-78.98
-64.40
-45.08
-23.84
-3.58
13.56
26.57
35.51
41.03
43.98
45.09
44.93
43.97
42.67
41.38
40.35
39.67
39.32
39.22
39.37
39.87
40.85
42.38
44.31
46.20
47.43
47.36
45.56
41.99
37.00
31.18
25.11
19.17
13.38
7.46
1.08
-5.98
-13.60
-21.33
-28.43
-34.16
-38.10
-40.35
-41.59
-42.90
-45.31
-49.31
-54.48
-59.38
-61.97
-60.18
-52.70
-39.44
-21.64
-1.55
18.31
35.79
49.61
59.49
65.86
69.49
71.15
71.41
70.66
69.18
67.16
64.72
61.91
58.66
54.92
50.75
46.33
41.98
38.00
34.60
31.74
29.10
26.15
22.18
16.55
8.86
-0.90
-12.26
-24.32
-36.02
-46.39
-54.89
-61.56
-66.96
-71.99
-77.68
-84.76
-93.54
-103.56
-113.61
-121.86
-126.21
-124.90
-117.05
-102.99
-84.27
-63.21
-42.28
-23.44
-7.82
4.37
13.47
20.07
24.68
27.61
29.14
29.61
29.51
29.42
29.83
30.97
32.71
34.68
36.49
37.94
39.07
40.03
40.86
41.27
40.67
38.38
33.97
27.48
19.55
11.15
3.28
-3.41
-8.85
-13.50
-18.26
-24.13
-31.86
-41.64
-52.83
-63.88
-72.57
-76.58
-74.11
-64.56
-48.82
-28.98
-7.80
12.19
29.23
42.54
52.09
58.29
61.55
62.21
60.62
57.29
52.94
48.44
44.52
41.64
39.85
38.85
38.21
37.58
36.76
35.75
34.52
32.93
30.55
26.91
21.57
14.52
6.16
-2.74
-11.26
-18.71
-24.84
-29.88
-34.46
-39.44
-45.60
-53.48
-63.06
-73.52
-83.22
-89.84
-91.05
-85.24
-72.15
-53.12
-30.79
-8.22
11.97
28.26
40.37
48.86
54.62
58.31
60.27
60.60
59.43
57.09
54.14
51.25
48.99
47.66
47.22
47.37
47.66
47.63
46.96
45.58
43.56
41.10
38.33
35.26
31.65
27.22
21.71
15.11
7.70
0.02
-7.30
-13.79
-19.33
-24.12
-28.72
-33.79
-39.99
-47.74
-57.05
-67.37
-77.47
-85.51
-89.33
-87.12
-77.98
-62.41
-42.29
-20.35
0.68
18.74
32.85
43.01
49.83
54.04
56.26
56.98
56.55
55.42
53.98
52.57
51.42
50.53
49.87
49.34
48.96
48.77
48.85
49.20
49.65
49.83
49.23
47.35
43.89
38.94
32.99
26.79
21.03
16.12
11.95
8.01
3.62
-1.69
-7.98
-14.83
-21.56
-27.51
-32.38
-36.36
-40.16
-44.74
-50.95
-59.16
-68.87
-78.65
-86.33
-89.57
-86.53
-76.58
-60.54
-40.52
-19.27
0.60
17.26
29.99
39.02
45.12
49.13
51.63
52.93
53.16
52.47
51.15
49.64
48.37
47.61
47.34
47.33
47.27
47.03
46.70
46.52
46.68
47.05
47.11
46.10
43.39
38.82
32.80
26.20
19.94
14.65
10.43
6.85
3.24
-1.01
-6.17
-12.10
-18.28
-24.10
-29.09
-33.15
-36.60
-40.04
-44.25
-49.88
-57.20
-65.85
-74.74
-82.10
-85.85
-84.16
-76.11
-62.10
-43.88
-24.04
-5.31
10.27
21.72
29.16
33.36
35.31
35.79
35.26
33.94
31.97
29.60
27.20
25.20
23.95
23.62
24.15
25.25
26.58
27.77
28.53
28.66
28.01
26.48
24.04
20.80
16.95
12.81
8.62
4.53
0.49
-3.66
-8.07
-12.78
-17.63
-22.34
-26.62
-30.33
-33.56
-36.64
-40.09
-44.51
-50.29
-57.35
-64.92
-71.52
-75.19
-74.12
-67.25
-54.77
-38.10
-19.55
-1.59
13.80
25.58
33.62
38.36
40.52
40.71
39.39
36.90
33.65
30.13
26.91
24.50
23.20
23.02
23.75
25.00
26.47
27.91
29.15
30.03
30.29
29.61
27.71
24.44
19.96
14.67
9.14
3.93
-0.66
-4.64
-8.37
-12.30
-16.77
-21.82
-27.14
-32.24
-36.63
-40.11
-42.85
-45.37
-48.41
-52.69
-58.63
-66.08
-74.15
-81.23
-85.23
-84.27
-77.20
-64.18
-46.69
-27.11
-8.03
8.48
21.30
30.26
35.87
38.88
40.02
39.83
38.72
37.05
35.16
33.39
32.06
31.33
31.28
31.80
32.71
33.73
34.58
35.08
35.11
34.67
33.73
32.23
30.03
26.97
23.01
18.27
13.17
8.23
3.96
0.59
-2.00
-4.29
-6.89
-10.30
-14.71
-19.89
-25.34
-30.48
-34.86
-38.36
-41.28
-44.20
-47.84
-52.85
-59.58
-67.83
-76.69
-84.51
-89.17
-88.68
-81.77
-68.49
-50.30
-29.68
-9.44
8.17
21.89
31.55
37.76
41.37
43.14
43.57
43.00
41.71
40.01
38.23
36.61
35.32
34.38
33.76
33.46
33.49
33.88
34.56
35.36
35.98
36.02
35.10
32.98
29.63
25.27
20.34
15.39
10.88
7.04
3.76
0.65
-2.81
-7.01
-12.07
-17.74
-23.50
-28.81
-33.29
-36.93
-40.05
-43.29
-47.38
-52.93
-60.08
-68.28
-76.16
-81.71
-82.82
-77.97
-66.86
-50.57
-31.32
-11.73
5.88
20.09
30.44
37.18
40.91
42.26
41.80
40.05
37.52
34.75
32.18
30.09
28.55
27.49
26.85
26.57
26.70
27.28
28.24
29.36
30.20
30.30
29.25
26.91
23.45
19.26
14.82
10.48
6.37
2.40
-1.66
-6.05
-10.83
-15.95
-21.14
-26.13
-30.73
-34.93
-38.95
-43.25
-48.36
-54.71
-62.31
-70.48
-77.78
-82.28
-82.04
-75.82
-63.62
-46.75
-27.54
-8.60
7.89
20.67
29.43
34.53
36.66
36.41
34.22
30.48
25.67
20.47
15.69
12.14
10.38
10.53
12.22
14.77
17.40
19.44
20.56
20.73
20.09
18.79
16.87
14.20
10.54
5.72
-0.22
-6.95
-13.93
-20.52
-26.27
-31.06
-35.13
-38.95
-43.06
-47.97
-54.02
-61.38
-69.89
-78.83
-86.85
-91.99
-92.28
-86.31
-73.92
-56.33
-35.85
-15.22
3.23
18.06
28.87
36.02
40.21
42.07
42.09
40.57
37.85
34.37
30.74
27.62
25.64
25.12
26.02
27.91
30.12
31.94
32.88
32.75
31.69
29.99
27.82
25.14
21.65
17.02
11.10
4.15
-3.24
-10.38
-16.76
-22.24
-27.08
-31.77
-36.84
-42.77
-49.94
-58.53
-68.31
-78.40
-87.16
-92.45
-92.15
-84.98
-71.00
-51.79
-29.90
-8.20
11.03
26.51
38.01
46.00
51.25
54.46
56.07
56.35
55.51
53.82
51.71
49.63
48.00
47.02
46.65
46.65
46.66
46.40
45.68
44.47
42.84
40.84
38.47
35.60
31.98
27.33
21.47
14.48
6.78
-0.99
-8.14
-14.26
-19.35
-23.87
-28.60
-34.35
-41.74
-50.96
-61.61
-72.59
-82.18
-88.19
-88.55
-81.92
-68.24
-48.96
-26.59
-4.04
16.18
32.58
44.71
53.02
58.33
61.47
63.06
63.50
63.03
61.91
60.42
58.92
57.74
57.05
56.89
57.18
57.72
58.36
58.87
59.02
58.47
56.87
53.98
49.79
44.56
38.73
32.69
26.60
20.41
13.92
7.06
-0.05
-7.07
-13.56
-19.28
-24.25
-28.84
-33.63
-39.30
-46.36
-54.96
-64.69
-74.34
-82.04
-85.54
-82.91
-73.21
-56.94
-36.13
-13.69
7.40
24.95
37.95
46.55
51.56
53.93
54.35
53.22
50.75
47.23
43.12
39.07
35.74
33.60
32.81
33.12
34.03
34.94
35.40
35.20
34.37
33.06
31.33
29.04
25.89
21.54
15.80
8.85
1.19
-6.45
-13.34
-19.08
-23.60
-27.28
-30.73
-34.66
-39.64
-45.91
-53.25
-60.86
-67.44
-71.34
-70.96
-65.21
-53.95
-38.17
-19.74
-0.98
16.04
29.91
40.01
46.38
49.39
49.47
47.09
42.82
37.43
31.88
27.15
23.97
22.62
22.90
24.20
25.77
26.96
27.41
27.07
26.13
24.82
23.24
21.21
18.34
14.19
8.55
1.61
-6.00
-13.41
-19.86
-24.94
-28.77
-31.98
-35.43
-40.01
-46.33
-54.44
-63.61
-72.34
-78.57
-80.21
-75.80
-65.01
-48.93
-29.71
-9.94
8.04
22.73
33.57
40.74
44.81
46.39
46.01
44.13
41.15
37.63
34.19
31.48
29.92
29.62
30.28
31.28
32.00
32.04
31.39
30.32
29.20
28.16
26.96
25.05
21.78
16.79
10.15
2.41
-5.56
-12.90
-19.03
-23.83
-27.66
-31.23
-35.35
-40.74
-47.73
-56.12
-65.14
-73.30
-78.75
-79.62
-74.61
-63.45
-47.19
-27.98
-8.43
9.04
22.95
32.83
39.16
42.85
44.83
45.69
45.69
44.90
43.32
41.11
38.59
36.16
34.20
32.94
32.38
32.34
32.55
32.67
32.43
31.60
30.01
27.57
24.29
20.27
15.64
10.56
5.13
-0.58
-6.46
-12.34
-18.00
-23.20
-27.80
-31.87
-35.67
-39.68
-44.45
-50.47
-57.90
-66.38
-74.78
-81.34
-84.01
-81.14
-72.04
-57.39
-39.11
-19.76
-1.79
13.12
24.30
31.90
36.63
39.23
40.35
40.47
39.93
39.02
37.96
36.89
35.86
34.91
34.05
33.33
32.79
32.43
32.16
31.78
31.10
29.89
28.10
25.70
22.78
19.39
15.54
11.24
6.46
1.25
-4.26
-9.92
-15.54
-20.90
-25.83
-30.21
-34.07
-37.66
-41.45
-46.05
-52.02
-59.44
-67.71
-75.44
-80.64
-81.28
-75.95
-64.40
-47.74
-28.22
-8.52
8.97
22.72
32.28
38.11
41.13
42.32
42.46
41.99
41.18
40.18
39.09
37.99
36.97
36.07
35.31
34.74
34.43
34.45
34.80
35.40
35.93
35.97
35.00
32.64
28.81
23.80
18.18
12.62
7.57
3.16
-0.86
-4.87
-9.24
-14.05
-19.11
-24.02
-28.44
-32.22
-35.52
-38.76
-42.52
-47.38
-53.66
-61.18
-69.07
-75.76
-79.29
-77.84
-70.33
-56.96
-39.27
-19.71
-1.01
14.63
26.07
33.26
36.99
38.34
38.27
37.33
35.74
33.58
31.00
28.32
26.01
24.45
23.82
23.99
24.61
25.27
25.62
25.52
24.91
23.82
22.21
20.03
17.23
13.77
9.74
5.24
0.42
-4.56
-9.52
-14.30
-18.79
-22.88
-26.58
-29.98
-33.24
-36.67
-40.58
-45.34
-51.06
-57.46
-63.64
-68.15
-69.26
-65.61
-56.68
-43.18
-26.84
-9.95
5.37
17.70
26.46
31.81
34.22
34.23
32.30
28.88
24.52
19.82
15.46
12.04
9.95
9.32
10.00
11.58
13.48
15.09
15.91
15.72
14.57
12.73
10.48
7.98
5.17
1.86
-2.18
-6.99
-12.39
-18.01
-23.46
-28.45
-32.89
-36.95
-40.85
-44.87
-49.21
-54.04
-59.52
-65.62
-71.92
-77.42
-80.54
-79.51
-72.96
-60.60
-43.45
-23.67
-3.84
13.74
27.73
37.76
44.23
47.88
49.41
49.43
48.42
46.84
45.10
43.53
42.29
41.44
40.93
40.76
40.91
41.39
42.12
42.87
43.29
43.00
41.69
39.24
35.73
31.42
26.66
21.80
17.05
12.44
7.87
3.14
-1.90
-7.25
-12.79
-18.28
-23.49
-28.30
-32.85
-37.52
-42.92
-49.63
-57.93
-67.48
-77.06
-84.72
-88.27
-85.96
-77.16
-62.62
-44.32
-24.84
-6.60
8.69
20.24
28.14
33.00
35.57
36.58
36.57
35.91
34.86
33.66
32.50
31.60
31.10
31.01
31.22
31.51
31.65
31.47
30.86
29.68
27.75
24.87
20.89
15.87
10.14
4.24
-1.23
-5.86
-9.59
-12.70
-15.65
-18.85
-22.47
-26.34
-30.06
-33.20
-35.53
-37.25
-39.00
-41.72
-46.33
-53.21
-61.83
-70.57
-76.99
-78.58
-73.54
-61.46
-43.58
-22.37
-0.74
18.74
34.41
45.73
53.00
56.96
58.47
58.23
56.75
54.43
51.60
48.62
45.84
43.56
42.00
41.23
41.20
41.72
42.57
43.46
44.09
44.13
43.30
41.35
38.24
34.10
29.19
23.81
18.19
12.44
6.55
0.48
-5.76
-12.03
-18.09
-23.73
-28.86
-33.62
-38.33
-43.47
-49.53
-56.75
-64.91
-73.15
-79.95
-83.40
-81.75
-74.05
-60.57
-42.87
-23.37
-4.66
11.21
23.18
31.09
35.39
36.70
35.59
32.55
28.13
23.04
18.18
14.39
12.26
11.87
12.87
14.61
16.44
17.95
18.98
19.66
20.07
20.19
19.69
18.15
15.15
10.55
4.58
-2.20
-9.02
-15.23
-20.50
-24.87
-28.78
-32.92
-38.00
-44.54
-52.58
-61.56
-70.27
-76.94
-79.70
-77.05
-68.38
-54.22
-36.23
-16.67
2.09
18.19
30.59
39.05
43.88
45.65
44.96
42.39
38.51
33.96
29.49
25.80
23.38
22.38
22.55
23.38
24.29
24.88
25.05
24.88
24.46
23.69
22.20
19.48
15.08
8.92
1.35
-6.87
-14.89
-22.04
-28.07
-33.30
-38.42
-44.33
-51.80
-61.01
-71.37
-81.40
-88.95
-91.83
-88.46
-78.54
-63.16
-44.51
-25.17
-7.40
7.37
18.64
26.55
31.50
33.87
33.94
31.98
28.45
24.08
19.81
16.57
15.03
15.39
17.35
20.30
23.52
26.48
28.92
30.81
32.16
32.93
32.83
31.54
28.71
24.27
18.45
11.76
4.92
-1.35
-6.53
-10.43
-13.22
-15.41
-17.74
-21.05
-25.93
-32.54
-40.29
-47.73
-52.83
-53.49
-48.28
-37.06
-21.10
-2.78
15.23
30.76
42.65
50.87
56.15
59.51
61.81
63.54
64.86
65.73
66.09
65.95
65.48
64.84
64.16
63.41
62.34
60.59
57.87
54.10
49.52
44.57
39.69
35.15
30.90
26.68
22.21
17.41
12.47
7.76
3.60
0.03
-3.27
-6.89
-11.51
-17.66
-25.67
-35.56
-47.02
-59.26
-70.95
-80.23
-85.01
-83.55
-75.12
-60.41
-41.41
-20.91
-1.60
14.57
26.81
35.32
40.86
44.31
46.33
47.30
47.38
46.73
45.54
44.12
42.81
41.82
41.16
40.63
39.90
38.67
36.88
34.73
32.54
30.48
28.42
25.83
22.08
16.73
9.86
2.14
-5.45
-11.97
-16.93
-20.50
-23.40
-26.63
-31.14
-37.48
-45.59
-54.65
-63.22
-69.40
-71.30
-67.61
-58.00
-43.38
-25.68
-7.31
9.46
23.12
33.11
39.69
43.57
45.47
45.92
45.24
43.72
41.68
39.56
37.79
36.56
35.84
35.37
34.82
34.03
33.04
32.03
31.17
30.41
29.43
27.72
24.73
20.15
14.10
7.13
0.08
-6.23
-11.29
-15.11
-18.19
-21.40
-25.66
-31.63
-39.46
-48.62
-57.85
-65.31
-69.02
-67.37
-59.70
-46.62
-29.88
-11.86
5.06
19.21
29.80
36.91
41.06
42.93
43.04
41.82
39.66
36.94
34.06
31.31
28.84
26.60
24.49
22.45
20.58
19.13
18.30
18.13
18.34
18.32
17.30
14.72
10.36
4.54
-1.98
-8.35
-13.88
-18.36
-22.15
-25.99
-30.70
-36.87
-44.46
-52.73
-60.25
-65.18
-65.78
-60.95
-50.68
-36.09
-19.26
-2.58
11.85
22.74
29.71
33.09
33.58
31.89
28.56
24.01
18.69
13.16
8.04
3.90
1.10
-0.36
-0.74
-0.53
-0.17
-0.05
-0.38
-1.34
-3.00
-5.45
-8.75
-12.90
-17.84
-23.49
-29.72
-36.39
-43.37
-50.58
-57.98
-65.43
-72.55
-78.51
-82.02
-81.64
-76.23
-65.56
-50.59
-33.34
-16.27
-1.50
9.73
17.21
21.53
23.55
24.00
23.29
21.57
18.96
15.73
12.36
9.47
7.67
7.28
8.27
10.19
12.36
14.04
14.73
14.25
12.82
10.75
8.39
5.84
3.01
-0.32
-4.30
-9.05
-14.61
-21.07
-28.41
-36.32
-43.91
-49.67
-51.75
-48.63
-39.80
-26.16
-9.89
6.32
20.12
30.22
36.53
39.78
40.98
40.89
39.83
37.87
35.04
31.60
28.01
24.77
22.21
20.38
19.07
17.98
16.80
15.34
13.53
11.31
8.64
5.48
1.89
-2.02
-5.99
-9.82
-13.48
-17.20
-21.52
-26.96
-33.78
-41.55
-49.03
-54.33
-55.50
-51.19
-41.22
-26.81
-10.14
6.28
20.43
31.24
38.67
43.32
46.03
47.44
47.86
47.33
45.81
43.31
39.99
36.18
32.29
28.75
25.90
23.84
22.44
21.32
20.00
18.03
15.15
11.29
6.61
1.35
-4.25
-9.98
-15.75
-21.56
-27.54
-33.90
-40.77
-48.05
-55.16
-61.01
-64.14
-63.13
-57.10
-46.17
-31.55
-15.29
0.30
13.37
22.89
28.85
31.94
33.11
33.17
32.58
31.54
30.08
28.24
26.13
23.88
21.59
19.33
17.19
15.28
13.69
12.47
11.49
10.44
8.89
6.42
2.79
-1.91
-7.30
-12.82
-17.92
-22.29
-26.00
-29.51
-33.53
-38.77
-45.56
-53.56
-61.62
-67.96
-70.60
-68.00
-59.62
-46.22
-29.57
-12.02
4.33
18.05
28.61
36.12
41.03
43.75
44.56
43.70
41.46
38.29
34.73
31.26
28.23
25.70
23.59
21.73
20.04
18.61
17.56
16.93
16.55
15.95
14.46
11.39
6.38
-0.45
-8.49
-16.79
-24.41
-30.76
-35.76
-39.90
-44.01
-48.97
-55.38
-63.28
-71.98
-80.11
-85.85
-87.34
-83.27
-73.24
-58.06
-39.58
-20.15
-2.00
13.37
25.44
34.50
41.20
46.18
49.76
52.00
52.92
52.69
51.72
50.49
49.39
48.50
47.63
46.45
44.68
42.24
39.28
36.01
32.65
29.25
25.74
21.92
17.52
12.37
6.44
-0.11
-6.89
-13.48
-19.47
-24.67
-29.15
-33.24
-37.46
-42.35
-48.31
-55.34
-62.90
-69.79
-74.40
-75.02
-70.49
-60.56
-46.13
-28.92
-11.07
5.51
19.52
30.39
38.19
43.40
46.66
48.49
49.19
48.82
47.27
44.50
40.75
36.55
32.69
29.78
28.08
27.40
27.21
26.91
26.13
24.73
22.78
20.40
17.67
14.50
10.76
6.22
0.69
-5.90
-13.39
-21.34
-29.01
-35.63
-40.63
-43.88
-45.81
-47.21
-49.05
-52.16
-56.90
-63.06
-69.70
-75.31
-78.02
-76.19
-68.86
-56.20
-39.55
-21.08
-3.16
12.30
24.22
32.46
37.51
40.10
40.91
40.45
39.07
37.10
34.88
32.72
30.93
29.65
28.97
28.86
29.20
29.81
30.43
30.72
30.40
29.27
27.32
24.69
21.58
18.09
14.20
9.79
4.74
-0.90
-6.87
-12.80
-18.33
-23.24
-27.54
-31.41
-35.14
-39.11
-43.75
-49.42
-56.28
-64.07
-71.77
-77.73
-79.97
-76.81
-67.59
-52.98
-34.90
-15.91
1.61
16.12
27.12
34.95
40.32
43.86
45.99
46.87
46.71
45.79
44.51
43.28
42.30
41.61
41.04
40.45
39.80
39.22
38.83
38.70
38.72
38.57
37.80
35.99
32.90
28.56
23.35
17.85
12.70
8.31
4.69
1.52
-1.77
-5.65
-10.29
-15.45
-20.64
-25.37
-29.34
-32.67
-35.77
-39.28
-43.83
-49.91
-57.58
-66.30
-74.76
-81.09
-83.23
-79.62
-69.76
-54.50
-35.83
-16.29
1.78
16.78
28.09
35.88
40.70
43.17
43.78
42.92
40.99
38.51
36.09
34.30
33.49
33.72
34.71
36.02
37.22
38.04
38.44
38.54
38.44
38.13
37.34
35.72
32.89
28.77
23.58
17.88
12.36
7.53
3.55
0.19
-3.03
-6.60
-10.80
-15.56
-20.55
-25.34
-29.56
-33.12
-36.20
-39.21
-42.70
-47.15
-52.88
-59.83
-67.42
-74.48
-79.42
-80.49
-76.32
-66.43
-51.50
-33.29
-14.15
3.64
18.44
29.51
36.88
41.06
42.70
42.36
40.55
37.76
34.54
31.46
29.04
27.63
27.33
28.01
29.38
31.06
32.76
34.26
35.44
36.16
36.20
35.28
33.14
29.66
25.07
19.83
14.54
9.66
5.32
1.30
-2.83
-7.40
-12.54
-18.04
-23.50
-28.55
-32.97
-36.86
-40.59
-44.75
-49.96
-56.59
-64.51
-72.83
-79.96
-83.89
-82.78
-75.60
-62.55
-45.08
-25.47
-6.15
10.97
24.80
35.10
42.10
46.23
47.92
47.53
45.56
42.61
39.37
36.47
34.32
33.03
32.51
32.56
32.99
33.71
34.70
35.92
37.20
38.26
38.73
38.18
36.30
32.98
28.38
22.91
17.19
11.76
6.97
2.80
-1.12
-5.32
-10.18
-15.79
-21.85
-27.83
-33.21
-37.70
-41.38
-44.76
-48.52
-53.36
-59.74
-67.62
-76.28
-84.29
-89.75
-90.69
-85.71
-74.41
-57.67
-37.47
-16.30
3.41
19.93
32.42
40.91
45.96
48.35
48.78
47.79
45.80
43.15
40.18
37.24
34.66
32.73
31.59
31.32
31.86
33.06
34.68
36.43
37.93
38.77
38.52
36.88
33.78
29.36
24.05
18.35
12.74
7.45
2.49
-2.37
-7.45
-12.90
-18.71
-24.57
-30.08
-34.92
-38.99
-42.56
-46.26
-50.84
-56.92
-64.68
-73.47
-81.85
-87.76
-89.09
-84.28
-72.94
-56.00
-35.52
-14.07
5.94
22.79
35.63
44.46
49.71
52.07
52.25
50.86
48.47
45.56
42.55
39.74
37.34
35.48
34.28
33.81
34.17
35.29
36.95
38.70
39.93
40.03
38.56
35.43
30.92
25.61
20.16
15.08
10.59
6.53
2.49
-2.00
-7.26
-13.28
-19.76
-26.21
-32.17
-37.41
-42.04
-46.51
-51.48
-57.59
-65.18
-74.00
-83.00
-90.41
-94.07
-92.09
-83.47
-68.51
-48.81
-26.80
-5.06
14.29
29.96
41.48
49.02
53.09
54.39
53.62
51.52
48.69
45.63
42.70
40.16
38.20
37.02
36.74
37.42
38.91
40.87
42.82
44.15
44.34
43.07
40.27
36.17
31.21
25.90
20.66
15.66
10.84
5.92
0.62
-5.20
-11.46
-17.85
-23.93
-29.40
-34.18
-38.50
-42.92
-48.11
-54.65
-62.63
-71.38
-79.44
-84.76
-85.24
-79.47
-67.24
-49.76
-29.32
-8.64
9.89
24.76
35.44
42.18
45.63
46.50
45.36
42.69
38.96
34.74
30.71
27.56
25.80
25.54
26.50
28.06
29.54
30.48
30.73
30.44
29.86
29.06
27.85
25.84
22.60
17.97
12.15
5.67
-0.83
-6.75
-11.77
-15.89
-19.45
-23.04
-27.34
-32.95
-40.15
-48.64
-57.37
-64.73
-68.78
-67.86
-61.09
-48.77
-32.32
-13.91
4.18
20.07
32.69
41.70
47.30
49.90
49.92
47.78
43.98
39.21
34.30
30.09
27.24
26.07
26.44
27.87
29.70
31.28
32.13
32.08
31.19
29.68
27.72
25.33
22.37
18.59
13.76
7.89
1.24
-5.72
-12.40
-18.37
-23.40
-27.57
-31.21
-34.83
-38.98
-44.18
-50.80
-58.79
-67.49
-75.48
-80.77
-81.31
-75.62
-63.48
-46.05
-25.64
-4.96
13.67
28.79
39.97
47.46
51.86
53.75
53.60
51.85
48.99
45.58
42.17
39.29
37.27
36.25
36.20
36.94
38.23
39.74
41.13
42.05
42.20
41.28
39.13
35.73
31.28
26.13
20.70
15.33
10.18
5.15
0.06
-5.26
-10.79
-16.37
-21.71
-26.61
-31.04
-35.22
-39.58
-44.69
-51.08
-58.99
-68.09
-77.26
-84.62
-87.89
-85.16
-75.54
-59.66
-39.55
-18.05
2.08
18.88
31.56
40.35
46.00
49.35
50.98
51.27
50.49
48.99
47.19
45.47
44.08
43.08
42.36
41.79
41.32
41.03
41.02
41.33
41.84
42.21
41.96
40.61
37.87
33.80
28.79
23.43
18.28
13.54
9.12
4.57
-0.51
-6.31
-12.61
-18.90
-24.57
-29.26
-33.00
-36.29
-39.97
-44.91
-51.72
-60.32
-69.79
-78.34
-83.69
-83.73
-77.14
-63.96
-45.61
-24.56
-3.71
14.41
28.21
37.28
42.16
43.99
43.94
42.93
41.44
39.70
37.80
35.94
34.32
33.17
32.55
32.35
32.41
32.59
32.90
33.42
34.16
34.93
35.33
34.85
33.08
29.89
25.52
20.49
15.44
10.82
6.79
3.09
-0.74
-5.19
-10.46
-16.38
-22.44
-28.00
-32.61
-36.22
-39.30
-42.65
-47.16
-53.33
-61.02
-69.20
-76.10
-79.62
-77.98
-70.27
-56.87
-39.32
-20.00
-1.38
14.53
26.61
34.63
39.06
40.70
40.34
38.56
35.77
32.28
28.48
24.90
22.09
20.44
20.05
20.66
21.81
23.00
23.91
24.42
24.50
24.15
23.30
21.82
19.61
16.64
12.96
8.69
3.93
-1.18
-6.48
-11.75
-16.71
-21.14
-24.97
-28.33
-31.54
-35.11
-39.53
-45.16
-51.91
-59.09
-65.35
-68.94
-68.20
-62.10
-50.71
-35.23
-17.71
-0.40
14.76
26.58
34.71
39.43
41.36
41.17
39.44
36.67
33.27
29.67
26.35
23.72
22.10
21.61
22.12
23.33
24.80
26.09
26.84
26.80
25.90
24.16
21.69
18.65
15.17
11.30
7.05
2.41
-2.58
-7.82
-13.14
-18.29
-23.05
-27.32
-31.11
-34.59
-38.07
-41.89
-46.42
-51.94
-58.51
-65.78
-72.78
-77.96
-79.44
-75.62
-65.75
-50.44
-31.56
-11.74
6.47
21.29
32.07
39.11
43.23
45.28
45.88
45.41
44.14
42.34
40.32
38.36
36.63
35.24
34.16
33.35
32.77
32.37
32.16
32.08
32.04
31.79
30.98
29.22
26.20
21.92
16.67
10.99
5.46
0.45
-4.09
-8.55
-13.46
-19.18
-25.66
-32.46
-38.89
-44.35
-48.58
-51.83
-54.79
-58.41
-63.49
-70.29
-78.27
-86.00
-91.45
-92.51
-87.67
-76.57
-60.19
-40.63
-20.43
-1.91
13.40
24.93
32.88
37.85
40.53
41.50
41.21
40.08
38.57
37.09
35.96
35.29
35.06
35.10
35.27
35.52
35.87
36.40
37.16
38.08
38.93
39.33
38.77
36.81
33.26
28.32
22.59
16.87
11.94
8.16
5.36
2.91
0.03
-3.90
-9.00
-14.93
-21.02
-26.53
-30.99
-34.37
-37.06
-39.78
-43.39
-48.60
-55.69
-64.23
-72.98
-79.99
-83.02
-80.25
-70.92
-55.73
-36.66
-16.43
2.35
17.86
29.34
36.91
41.17
42.89
42.75
41.38
39.37
37.25
35.37
33.86
32.63
31.55
30.57
29.79
29.41
29.51
30.03
30.68
31.04
30.73
29.46
27.14
23.84
19.78
15.36
10.96
6.85
3.10
-0.43
-4.06
-8.00
-12.23
-16.51
-20.50
-23.96
-26.94
-29.72
-32.77
-36.59
-41.51
-47.70
-54.95
-62.56
-69.27
-73.37
-73.14
-67.38
-56.00
-40.18
-22.13
-4.44
10.75
22.23
29.87
34.26
36.23
36.46
35.27
32.81
29.26
25.05
20.84
17.40
15.34
14.94
16.03
18.11
20.48
22.52
23.78
24.06
23.40
21.92
19.73
16.87
13.31
8.99
3.99
-1.50
-7.13
-12.51
-17.40
-21.70
-25.50
-29.03
-32.54
-36.28
-40.54
-45.60
-51.65
-58.56
-65.66
-71.58
-74.51
-72.66
-64.96
-51.58
-34.01
-14.69
3.76
19.34
31.02
38.80
43.34
45.46
45.80
44.70
42.32
38.77
34.38
29.67
25.26
21.76
19.57
18.84
19.41
20.88
22.71
24.31
25.15
24.86
23.32
20.70
17.41
13.89
10.59
7.67
5.02
2.37
-0.61
-4.09
-7.97
-11.92
-15.52
-18.41
-20.47
-21.98
-23.59
-26.27
-31.09
-38.75
-49.24
-61.49
-73.44
-82.51
-86.37
-83.78
-75.04
-61.86
-46.78
-32.29
-20.06
-10.67
-3.74
1.59
6.18
10.52
14.72
18.65
22.09
24.96
27.34
29.45
31.50
33.59
35.69
37.60
39.11
40.04
40.28
39.81
38.62
36.73
34.21
31.21
27.89
24.34
20.59
16.55
12.14
7.33
2.26
-2.84
-7.72
-12.23
-16.40
-20.43
-24.66
-29.54
-35.48
-42.68
-50.88
-59.18
-65.95
-69.22
-67.24
-59.11
-45.22
-27.23
-7.59
11.18
27.15
39.36
47.77
52.94
55.62
56.42
55.80
54.07
51.53
48.56
45.55
42.90
40.91
39.69
39.16
39.15
39.39
39.60
39.55
39.05
38.02
36.40
34.23
31.52
28.23
24.29
19.57
14.08
8.02
1.74
-4.31
-9.74
-14.45
-18.60
-22.56
-26.79
-31.70
-37.53
-44.30
-51.64
-58.73
-64.27
-66.73
-64.62
-57.16
-44.48
-27.80
-9.12
9.32
25.55
38.30
47.05
51.99
53.68
52.88
50.34
46.83
43.08
39.82
37.59
36.65
36.82
37.55
38.11
37.90
36.74
34.88
32.84
31.06
29.63
28.20
26.09
22.68
17.67
11.23
3.94
-3.43
-10.18
-15.90
-20.56
-24.43
-28.07
-32.09
-37.00
-42.96
-49.60
-55.91
-60.36
-61.25
-57.24
-47.84
-33.71
-16.60
1.21
17.49
30.72
40.35
46.67
50.39
52.24
52.66
51.86
49.96
47.26
44.20
41.37
39.26
38.15
38.04
38.75
40.00
41.46
42.79
43.65
43.71
42.66
40.26
36.34
30.83
23.72
15.17
5.57
-4.47
-14.16
-22.78
-29.91
-35.61
-40.45
-45.30
-51.10
-58.52
-67.72
-78.20
-88.75
-97.68
-103.09
-103.37
-97.69
-86.31
-70.59
-52.67
-34.93
-19.39
-7.30
1.01
5.88
8.13
8.65
8.20
7.27
6.13
4.84
3.46
2.02
0.62
-0.56
-1.40
-1.84
-1.95
-1.93
-2.00
-2.39
-3.22
-4.59
-6.51
-8.99
-12.02
-15.62
-19.79
-24.52
-29.74
-35.24
-40.67
-45.48
-49.14
-51.22
-51.66
-50.85
-49.56
-48.75
-49.27
-51.59
-55.53
-60.20
-64.02
-65.03
-61.35
-51.78
-36.26
-15.97
6.88
29.65
49.97
66.22
77.75
84.78
88.10
88.73
87.70
85.88
83.92
82.18
80.77
79.59
78.45
77.21
75.78
74.22
72.62
71.06
69.58
68.12
66.64
65.05
63.21
60.88
57.71
53.38
47.70
40.70
32.68
24.09
15.38
6.91
-1.08
-8.45
-15.09
-20.99
-26.27
-31.26
-36.48
-42.52
-49.84
-58.48
-67.80
-76.43
-82.45
-83.86
-79.30
-68.54
-52.82
-34.51
-16.44
-0.96
10.63
18.27
22.78
25.26
26.58
27.17
27.10
26.36
25.10
23.67
22.55
22.13
22.56
23.72
25.31
26.99
28.53
29.79
30.78
31.45
31.72
31.37
30.15
27.85
24.41
19.96
14.83
9.42
4.18
-0.52
-4.52
-7.83
-10.69
-13.49
-16.64
-20.50
-25.32
-31.07
-37.40
-43.50
-48.12
-49.80
-47.26
-39.85
-27.88
-12.65
3.85
19.54
32.74
42.54
48.80
51.89
52.37
50.78
47.60
43.26
38.25
33.04
28.12
23.78
20.06
16.81
13.75
10.68
7.61
4.75
2.39
0.62
-0.83
-2.60
-5.51
-10.17
-16.78
-24.93
-33.78
-42.36
-49.90
-56.10
-61.13
-65.63
-70.43
-76.29
-83.61
-92.14
-100.76
-107.64
-110.65
-107.99
-98.91
-84.01
-65.20
-45.09
-26.25
-10.46
1.49
9.71
14.79
17.33
17.73
16.23
13.12
8.99
4.79
1.63
0.42
1.60
4.92
9.64
14.78
19.49
23.21
25.77
27.20
27.61
27.04
25.44
22.77
18.99
14.15
8.47
2.27
-3.96
-9.69
-14.54
-18.42
-21.62
-24.76
-28.64
-33.87
-40.68
-48.63
-56.60
-62.90
-65.67
-63.42
-55.51
-42.53
-26.14
-8.71
7.45
20.65
30.16
36.12
39.21
40.22
39.78
38.31
36.03
33.21
30.15
27.18
24.62
22.68
21.44
20.79
20.57
20.53
20.52
20.37
19.98
19.21
17.95
16.07
13.57
10.47
6.88
2.85
-1.62
-6.57
-12.00
-17.74
-23.42
-28.61
-33.01
-36.64
-39.89
-43.45
-48.04
-54.08
-61.40
-69.10
-75.58
-78.90
-77.32
-69.84
-56.65
-39.14
-19.57
-0.40
16.34
29.52
38.90
44.95
48.42
50.07
50.50
50.18
49.51
48.80
48.35
48.28
48.50
48.78
48.83
48.47
47.78
47.04
46.61
46.70
47.14
47.39
46.72
44.46
40.40
34.90
28.75
22.88
17.98
14.25
11.33
8.49
4.99
0.35
-5.47
-12.01
-18.57
-24.45
-29.18
-32.80
-35.81
-39.11
-43.71
-50.32
-58.95
-68.65
-77.51
-83.10
-83.21
-76.56
-63.34
-45.17
-24.62
-4.44
13.24
27.21
37.29
43.92
47.83
49.72
50.17
49.64
48.51
47.10
45.67
44.41
43.43
42.78
42.40
42.21
42.10
42.04
42.11
42.42
42.97
43.50
43.46
42.16
39.07
34.14
27.89
21.25
15.15
10.12
6.08
2.40
-1.74
-6.98
-13.38
-20.45
-27.32
-33.16
-37.54
-40.60
-43.02
-45.76
-49.75
-55.58
-63.27
-72.11
-80.72
-87.17
-89.41
-85.83
-75.85
-60.26
-41.14
-21.31
-3.43
10.61
20.14
25.48
27.56
27.39
25.73
23.06
19.73
16.09
12.57
9.64
7.67
6.85
7.16
8.40
10.32
12.64
15.10
17.45
19.38
20.57
20.72
19.69
17.58
14.67
11.32
7.81
4.22
0.48
-3.56
-7.97
-12.62
-17.25
-21.56
-25.42
-28.89
-32.31
-36.15
-40.87
-46.80
-53.93
-61.70
-68.98
-74.12
-75.29
-71.04
-60.89
-45.62
-27.16
-8.07
9.20
22.97
32.60
38.27
40.63
40.39
38.05
34.06
28.95
23.46
18.45
14.74
12.88
13.01
14.86
17.85
21.27
24.42
26.75
27.94
27.98
27.00
25.27
22.98
20.20
16.88
12.88
8.13
2.69
-3.26
-9.42
-15.46
-21.09
-26.12
-30.53
-34.47
-38.36
-42.71
-48.11
-54.84
-62.74
-70.90
-77.74
-81.27
-79.63
-71.75
-57.79
-39.23
-18.50
1.77
19.39
33.12
42.72
48.70
51.90
53.08
52.78
51.31
48.90
45.88
42.68
39.83
37.72
36.57
36.30
36.66
37.37
38.23
39.16
40.09
40.84
41.05
40.24
38.01
34.20
29.05
23.17
17.32
12.17
7.99
4.60
1.43
-2.20
-6.71
-12.06
-17.77
-23.10
-27.45
-30.67
-33.13
-35.59
-38.97
-44.04
-51.13
-59.92
-69.26
-77.30
-81.72
-80.33
-71.78
-56.09
-34.79
-10.51
13.81
35.69
53.67
67.42
77.38
84.28
88.82
91.52
92.83
93.29
93.59
94.46
96.47
99.81
104.25
109.28
114.38
119.35
124.27
129.54
135.52
142.36
149.79
157.09
163.15
166.61
166.14
160.58
149.25
131.94
108.93
80.79
48.31
12.49
-25.36
-63.46
-99.68
-131.86
-158.30
-178.25
-192.18
-201.57
-208.48
-214.78
-221.48
-228.24
-233.33
-234.13
-227.90
-212.79
-188.51
-156.59
-119.88
-81.86
-45.71
-13.71
12.95
34.02
49.89
61.21
68.61
72.55
73.23
70.73
65.19
57.02
47.09
36.68
27.19
19.80
15.08
12.91
12.50
12.68
12.31
10.47
6.66
0.78
-6.95
-16.11
-26.21
-36.81
-47.63
-58.56
-69.68
-81.12
-92.93
-104.87
-116.35
-126.55
-134.74
-140.60
-144.47
-147.33
-150.40
-154.56
-159.88
-165.31
-168.95
-168.57
-162.41
-149.75
-131.19
-108.43
-83.71
-59.22
-36.55
-16.52
0.70
15.36
27.77
38.12
46.51
53.01
57.84
61.45
64.36
67.11
69.99
73.03
75.98
78.55
80.54
82.00
83.16
84.19
85.04
85.30
84.34
81.55
76.67
69.99
62.22
54.33
47.13
41.00
35.81
30.97
25.69
19.31
11.41
2.00
-8.45
-19.04
-28.48
-35.28
-37.96
-35.39
-27.19
-13.95
2.82
20.96
38.20
52.68
63.30
69.80
72.57
72.30
69.76
65.61
60.39
54.63
48.88
43.77
39.91
37.76
37.49
38.91
41.50
44.48
47.01
48.35
48.09
46.20
43.06
39.38
35.94
33.38
31.88
31.06
29.91
27.00
20.90
10.61
-3.85
-21.23
-39.00
-53.91
-62.86
-63.80
-56.40
-42.17
-23.97
-5.10
11.57
24.21
32.24
36.05
36.60
34.92
31.92
28.20
24.10
19.82
15.53
11.50
8.12
5.76
4.58
4.49
5.03
5.49
5.16
3.44
0.02
-5.14
-11.86
-19.85
-28.71
-38.02
-47.37
-56.50
-65.44
-74.51
-84.19
-94.75
-105.78
-115.97
-123.21
-125.16
-120.04
-107.40
-88.30
-65.10
-40.75
-17.91
1.61
17.11
28.80
37.39
43.67
48.28
51.63
53.97
55.51
56.54
57.37
58.34
59.72
61.72
64.49
68.10
72.53
77.57
82.71
87.16
90.07
90.76
89.05
85.34
80.56
75.88
72.38
70.72
70.80
71.78
72.19
70.38
65.13
56.20
44.56
32.22
21.53
14.43
11.79
13.25
17.47
22.78
27.75
31.57
34.01
35.23
35.48
34.86
33.32
30.77
27.21
22.92
18.42
14.40
11.53
10.30
10.90
13.22
16.89
21.35
25.94
30.02
32.93
34.06
32.82
28.70
21.44
11.18
-1.36
-15.01
-28.32
-40.04
-49.44
-56.49
-61.75
-66.12
-70.55
-75.79
-82.29
-90.07
-98.60
-106.72
-112.76
-114.86
-111.50
-102.09
-87.24
-68.60
-48.46
-29.04
-12.02
1.76
12.17
19.61
24.65
27.84
29.58
30.11
29.63
28.37
26.67
24.99
23.83
23.51
24.14
25.51
27.22
28.80
29.81
29.92
28.96
26.95
24.13
20.90
17.71
14.85
12.29
9.67
6.45
2.20
-3.12
-9.07
-15.00
-20.30
-24.70
-28.43
-32.03
-36.20
-41.55
-48.41
-56.59
-65.30
-73.05
-77.91
-77.96
-71.96
-59.90
-43.15
-24.12
-5.55
10.30
22.18
30.00
34.45
36.52
37.09
36.67
35.53
33.79
31.68
29.50
27.66
26.50
26.21
26.76
27.93
29.41
30.89
32.11
32.85
32.97
32.32
30.85
28.56
25.53
21.93
17.91
13.61
9.19
4.76
0.47
-3.51
-7.09
-10.26
-13.14
-15.92
-18.84
-22.11
-25.91
-30.29
-35.17
-40.06
-44.03
-45.67
-43.47
-36.33
-24.05
-7.66
10.83
29.05
44.97
57.47
66.43
72.43
76.26
78.58
79.75
80.08
79.93
79.80
80.15
81.15
82.55
83.67
83.65
81.67
77.10
69.65
59.26
46.12
30.65
13.49
-4.60
-22.79
-40.30
-56.52
-71.00
-83.47
-93.83
-102.01
-107.95
-111.48
-112.32
-110.17
-105.00
-97.19
-87.62
-77.52
-68.19
-60.60
-55.20
-51.88
-49.99
-48.60
-46.70
-43.47
-38.50
-31.99
-24.67
-17.65
-12.02
-8.52
-7.24
-7.76
-9.30
-11.03
-12.35
-12.96
-12.80
-11.99
-10.64
-8.83
-6.57
-3.90
-0.90
2.24
5.25
7.82
9.72
10.81
11.06
10.55
9.33
7.47
5.02
2.05
-1.32
-4.94
-8.67
-12.41
-16.07
-19.56
-22.73
-25.43
-27.55
-29.16
-30.57
-32.35
-35.14
-39.45
-45.32
-52.14
-58.58
-62.83
-63.13
-58.29
-48.19
-33.93
-17.49
-1.14
13.19
24.46
32.50
37.80
40.99
42.55
42.67
41.42
38.95
35.69
32.27
29.34
27.34
26.36
26.21
26.55
27.09
27.61
27.97
28.02
27.51
26.23
24.05
21.08
17.58
13.89
10.17
6.43
2.47
-1.91
-6.74
-11.78
-16.57
-20.63
-23.72
-25.89
-27.59
-29.45
-32.20
-36.37
-42.17
-49.36
-57.11
-64.03
-68.36
-68.38
-62.93
-51.88
-36.29
-18.19
-0.01
16.06
28.61
37.20
42.26
44.64
45.28
44.94
44.04
42.77
41.23
39.52
37.79
36.24
34.98
34.10
33.59
33.44
33.63
34.07
34.52
34.54
33.60
31.28
27.52
22.67
17.37
12.30
7.85
4.00
0.38
-3.45
-7.80
-12.67
-17.81
-22.85
-27.49
-31.61
-35.26
-38.73
-42.41
-46.83
-52.36
-59.04
-66.25
-72.68
-76.47
-75.82
-69.59
-57.77
-41.69
-23.58
-5.95
9.16
20.60
28.23
32.66
34.80
35.46
35.13
34.08
32.50
30.68
29.05
28.01
27.75
28.13
28.80
29.38
29.71
29.80
29.84
29.91
29.86
29.33
27.95
25.52
22.12
18.12
14.00
10.12
6.61
3.28
-0.23
-4.32
-9.20
-14.75
-20.56
-26.07
-30.83
-34.73
-38.12
-41.73
-46.39
-52.79
-61.05
-70.52
-79.73
-86.63
-89.09
-85.55
-75.54
-59.97
-40.89
-20.93
-2.53
12.56
23.62
30.84
34.96
36.85
37.27
36.70
35.45
33.76
31.91
30.22
28.95
28.25
28.07
28.22
28.46
28.59
28.47
28.04
27.21
25.94
24.15
21.84
19.09
15.97
12.55
8.89
5.03
0.98
-3.26
-7.71
-12.37
-17.14
-21.86
-26.30
-30.29
-33.89
-37.44
-41.51
-46.71
-53.44
-61.47
-69.85
-76.93
-80.77
-79.66
-72.78
-60.56
-44.58
-27.13
-10.52
3.59
14.43
21.98
26.61
28.75
28.68
26.63
22.97
18.37
13.66
9.73
7.17
6.19
6.50
7.54
8.64
9.25
9.09
8.14
6.49
4.26
1.37
-2.38
-7.28
-13.51
-20.96
-29.20
-37.62
-45.57
-52.63
-58.71
-63.95
-68.62
-72.95
-76.95
-80.36
-82.65
-82.98
-80.27
-73.51
-61.94
-45.51
-25.04
-2.21
20.84
41.99
59.69
73.17
82.36
87.67
89.61
88.71
85.45
80.43
74.39
68.20
62.63
58.23
55.16
53.21
51.94
50.88
49.70
48.30
46.75
45.10
43.21
40.72
37.10
31.88
24.95
16.67
7.83
-0.65
-8.07
-14.18
-19.31
-24.23
-29.87
-36.98
-45.79
-55.82
-65.76
-73.72
-77.62
-75.85
-67.81
-54.15
-36.63
-17.62
0.59
16.30
28.63
37.46
43.14
46.15
46.97
46.03
43.81
40.88
37.84
35.28
33.57
32.79
32.76
33.13
33.54
33.80
33.85
33.71
33.31
32.40
30.59
27.46
22.74
16.47
9.00
0.96
-6.92
-14.05
-20.11
-25.21
-29.84
-34.82
-40.93
-48.65
-57.85
-67.55
-76.05
-81.21
-81.08
-74.52
-61.63
-43.88
-23.63
-3.51
14.34
28.74
39.49
47.08
52.18
55.34
56.83
56.82
55.52
53.36
50.91
48.78
47.35
46.71
46.63
46.73
46.66
46.17
45.24
43.92
42.32
40.44
38.18
35.33
31.63
26.86
20.96
14.09
6.60
-0.95
-8.04
-14.26
-19.57
-24.20
-28.73
-33.83
-40.08
-47.78
-56.65
-65.75
-73.47
-77.91
-77.37
-70.87
-58.60
-41.88
-22.84
-3.77
13.41
27.53
38.19
45.54
50.03
52.21
52.62
51.79
50.21
48.36
46.62
45.26
44.35
43.84
43.61
43.58
43.67
43.86
44.00
43.88
43.17
41.61
39.12
35.80
31.93
27.79
23.57
19.26
14.71
9.75
4.25
-1.74
-7.97
-14.12
-19.83
-24.87
-29.24
-33.26
-37.53
-42.73
-49.31
-57.18
-65.40
-72.34
-75.97
-74.52
-67.07
-53.94
-36.63
-17.39
1.42
17.90
30.96
40.32
46.32
49.56
50.75
50.52
49.46
48.08
46.77
45.79
45.19
44.84
44.50
43.99
43.29
42.54
41.99
41.81
41.91
41.96
41.41
39.80
36.90
32.87
28.18
23.39
18.93
14.96
11.32
7.69
3.77
-0.61
-5.38
-10.29
-15.03
-19.35
-23.15
-26.56
-29.96
-33.93
-39.03
-45.60
-53.34
-61.25
-67.58
-70.32
-67.83
-59.48
-46.01
-29.33
-11.99
3.64
16.03
24.70
30.04
32.85
33.87
33.57
32.16
29.83
26.86
23.76
21.13
19.43
18.89
19.38
20.54
21.95
23.21
24.07
24.33
23.86
22.54
20.27
17.11
13.20
8.89
4.53
0.43
-3.23
-6.45
-9.35
-12.07
-14.73
-17.37
-19.97
-22.53
-25.18
-28.18
-31.96
-36.86
-42.92
-49.65
-55.97
-60.36
-61.32
-57.83
-49.69
-37.68
-23.29
-8.36
5.42
16.81
25.18
30.45
32.88
32.99
31.35
28.66
25.60
22.87
21.02
20.38
20.99
22.65
24.95
27.43
29.68
31.37
32.29
32.23
31.07
28.73
25.28
20.89
15.85
10.48
5.07
-0.20
-5.22
-9.95
-14.37
-18.46
-22.19
-25.56
-28.61
-31.49
-34.39
-37.63
-41.61
-46.60
-52.70
-59.46
-65.84
-70.27
-71.09
-67.06
-57.89
-44.47
-28.56
-12.29
2.51
14.76
24.16
30.96
35.66
38.66
40.23
40.62
40.12
39.10
37.98
37.15
36.82
36.99
37.55
38.31
39.13
39.94
40.76
41.64
42.54
43.33
43.73
43.43
42.21
40.03
37.08
33.66
30.16
26.82
23.74
20.85
18.05
15.37
12.91
10.88
9.39
8.35
7.34
5.70
2.71
-2.24
-9.48
-18.89
-29.82
-41.07
-50.93
-57.48
-59.08
-54.95
-45.51
-32.40
-17.97
-4.61
5.93
12.92
16.54
17.50
16.65
14.68
12.09
9.24
6.47
4.09
2.28
1.10
0.43
0.04
-0.26
-0.53
-0.64
-0.35
0.58
2.23
4.36
6.45
7.81
7.91
6.60
4.21
1.43
-0.99
-2.58
-3.33
-3.74
-4.53
-6.32
-9.30
-13.18
-17.24
-20.74
-23.22
-24.76
-25.93
-27.63
-30.73
-35.80
-42.88
-51.32
-59.86
-66.69
-69.98
-68.26
-61.07
-49.14
-34.30
-18.90
-5.15
5.47
12.43
16.01
16.93
15.99
13.85
11.05
8.06
5.28
3.02
1.45
0.52
0.07
-0.08
-0.01
0.32
0.99
2.01
3.21
4.21
4.59
4.07
2.61
0.44
-2.05
-4.50
-6.75
-8.84
-10.97
-13.38
-16.17
-19.29
-22.56
-25.74
-28.63
-31.15
-33.36
-35.53
-38.02
-41.26
-45.57
-51.03
-57.21
-63.07
-67.08
-67.53
-63.14
-53.56
-39.67
-23.37
-6.98
7.42
18.57
26.14
30.51
32.31
32.12
30.27
27.03
22.76
18.09
13.83
10.72
9.20
9.21
10.31
11.82
13.20
14.11
14.54
14.58
14.38
13.93
13.05
11.47
8.96
5.40
0.85
-4.37
-9.84
-15.05
-19.61
-23.37
-26.48
-29.39
-32.73
-37.13
-43.01
-50.33
-58.49
-66.28
-72.08
-74.26
-71.63
-63.94
-51.98
-37.41
-22.31
-8.61
2.38
10.10
14.62
16.34
15.73
13.18
9.02
3.68
-2.24
-7.95
-12.67
-15.86
-17.40
-17.62
-17.20
-16.91
-17.35
-18.78
-21.17
-24.27
-27.89
-32.00
-36.82
-42.62
-49.58
-57.63
-66.39
-75.32
-83.89
-91.77
-98.92
-105.55
-112.11
-119.07
-126.79
-135.33
-144.31
-152.76
-159.03
-161.03
-156.60
-144.15
-123.27
-95.10
-62.25
-28.17
3.74
30.97
52.36
68.11
79.20
86.78
91.70
94.39
95.02
93.87
91.45
88.51
85.82
83.91
82.92
82.60
82.54
82.35
81.76
80.70
79.18
77.16
74.55
71.22
67.01
61.78
55.40
47.83
39.24
29.98
20.59
11.65
3.57
-3.63
-10.26
-16.92
-24.22
-32.64
-42.43
-53.50
-65.26
-76.54
-85.58
-90.26
-88.76
-80.16
-64.93
-44.95
-22.95
-1.71
16.72
31.34
42.17
49.78
54.92
58.25
60.18
61.08
61.27
61.11
60.96
61.11
61.69
62.60
63.56
64.23
64.34
63.80
62.70
61.24
59.56
57.62
55.15
51.71
46.89
40.49
32.66
23.87
14.80
6.16
-1.58
-8.28
-14.17
-19.76
-25.71
-32.66
-41.06
-51.00
-61.92
-72.50
-80.76
-84.43
-81.68
-71.75
-55.40
-34.72
-12.59
8.23
25.82
39.37
49.01
55.37
59.09
60.63
60.29
58.45
55.67
52.66
50.07
48.23
47.15
46.52
46.01
45.46
44.86
44.34
43.89
43.26
41.92
39.34
35.14
29.36
22.47
15.24
8.41
2.40
-2.90
-8.08
-14.04
-21.54
-30.91
-41.69
-52.66
-61.99
-67.59
-67.74
-61.54
-49.27
-32.36
-13.10
6.01
22.81
35.91
44.78
49.68
51.26
50.30
47.53
43.51
38.72
33.68
28.94
25.11
22.66
21.79
22.25
23.44
24.49
24.61
23.23
20.17
15.55
9.63
2.78
-4.64
-12.22
-19.57
-26.41
-32.73
-38.93
-45.72
-53.75
-63.19
-73.22
-82.01
-87.07
-86.04
-77.58
-61.91
-40.84
-17.20
5.95
26.20
42.16
53.49
60.61
64.35
65.56
65.04
63.41
61.15
58.57
55.89
53.27
50.95
49.17
48.20
48.10
48.72
49.60
50.14
49.75
47.94
44.45
39.27
32.59
24.83
16.52
8.31
0.68
-6.19
-12.61
-19.34
-27.32
-37.15
-48.66
-60.58
-70.66
-76.29
-75.28
-66.69
-51.16
-30.85
-8.73
12.22
29.83
43.11
52.18
57.89
61.25
63.02
63.55
62.97
61.34
58.87
55.96
53.04
50.46
48.34
46.61
45.09
43.68
42.34
41.06
39.74
38.11
35.74
32.17
27.08
20.51
12.88
4.89
-2.68
-9.28
-14.81
-19.69
-24.75
-30.95
-39.00
-48.91
-59.77
-69.80
-76.67
-78.16
-72.90
-60.85
-43.41
-23.03
-2.48
15.90
30.74
41.69
49.17
53.96
56.73
57.90
57.70
56.33
54.15
51.63
49.32
47.64
46.71
46.37
46.21
45.81
44.90
43.48
41.78
40.09
38.53
36.94
34.84
31.64
26.90
20.63
13.29
5.69
-1.31
-7.19
-11.85
-15.65
-19.24
-23.28
-28.31
-34.66
-42.31
-50.84
-59.29
-66.19
-69.76
-68.44
-61.41
-49.02
-32.80
-15.04
1.84
16.04
26.69
33.89
38.31
40.72
41.71
41.53
40.27
38.05
35.14
32.01
29.21
27.17
26.07
25.77
25.89
25.95
25.60
24.65
23.12
21.09
18.54
15.30
11.14
5.86
-0.45
-7.34
-14.11
-20.07
-24.79
-28.32
-31.17
-34.15
-38.07
-43.45
-50.24
-57.72
-64.57
-69.14
-69.86
-65.71
-56.61
-43.50
-28.14
-12.58
1.43
12.75
21.02
26.40
29.28
30.02
28.97
26.52
23.30
20.11
17.71
16.62
16.84
17.94
19.22
20.06
20.14
19.51
18.47
17.33
16.19
14.87
12.95
10.03
5.86
0.54
-5.53
-11.74
-17.46
-22.27
-26.06
-29.14
-32.12
-35.86
-41.09
-48.07
-56.37
-64.69
-71.20
-73.95
-71.54
-63.62
-51.00
-35.52
-19.40
-4.69
7.27
15.99
21.75
25.20
27.04
27.69
27.32
26.04
24.05
21.82
20.00
19.15
19.49
20.77
22.43
23.84
24.70
25.09
25.38
25.89
26.65
27.24
27.08
25.69
23.03
19.57
16.11
13.48
12.23
12.44
13.73
15.41
16.70
16.95
15.84
13.53
10.82
9.08
10.11
15.74
27.28
45.12
68.33
94.72
121.31
144.91
162.83
173.39
175.89
170.37
157.24
136.99
110.31
78.28
42.66
5.81
-29.60
-61.21
-87.43
-107.69
-122.30
-132.11
-138.09
-141.04
-141.49
-139.75
-136.02
-130.48
-123.43
-115.27
-106.48
-97.52
-88.75
-80.29
-72.03
-63.73
-55.15
-46.10
-36.60
-26.76
-16.71
-6.63
3.28
12.65
21.03
27.92
32.99
36.21
37.78
37.97
36.94
34.63
30.94
25.86
19.62
12.61
5.10
-2.89
-11.80
-22.32
-35.05
-50.26
-67.56
-86.01
-104.03
-119.79
-131.37
-137.17
-136.22
-128.41
-114.54
-96.11
-74.95
-52.76
-30.81
-9.84
9.70
27.46
42.94
55.57
65.00
71.20
74.52
75.41
74.03
70.16
63.36
53.34
40.40
25.51
10.15
-4.02
-15.54
-23.25
-26.36
-24.56
-18.13
-8.10
3.75
15.28
24.48
29.99
31.43
29.32
24.73
18.89
12.77
7.00
1.83
-2.64
-6.40
-9.37
-11.49
-12.87
-13.78
-14.63
-15.82
-17.46
-19.31
-20.97
-22.13
-22.91
-23.88
-25.81
-29.30
-34.42
-40.62
-46.97
-52.52
-56.67
-59.36
-60.98
-62.16
-63.61
-65.84
-69.09
-73.19
-77.44
-80.72
-81.64
-78.99
-72.08
-61.12
-47.19
-31.99
-17.37
-4.81
4.86
11.49
15.31
16.73
16.05
13.45
9.15
3.55
-2.55
-8.12
-12.11
-13.83
-13.16
-10.65
-7.24
-4.04
-1.91
-1.36
-2.53
-5.27
-9.29
-14.26
-19.75
-25.31
-30.52
-35.17
-39.43
-43.89
-49.44
-56.84
-66.27
-76.98
-87.26
-94.86
-97.60
-94.14
-84.41
-69.67
-52.13
-34.29
-18.26
-5.31
4.18
10.50
14.17
15.52
14.63
11.42
6.02
-0.99
-8.53
-15.31
-20.27
-22.95
-23.61
-22.96
-21.89
-21.09
-20.97
-21.75
-23.57
-26.52
-30.60
-35.62
-41.21
-46.93
-52.46
-57.69
-62.72
-67.75
-72.83
-77.68
-81.54
-83.26
-81.51
-75.12
-63.53
-47.08
-27.04
-5.40
15.56
33.93
48.46
58.84
65.48
69.23
70.96
71.33
70.64
68.93
66.17
62.47
58.20
54.00
50.59
48.56
48.12
49.04
50.59
51.80
51.69
49.56
45.22
38.96
31.45
23.43
15.48
7.82
0.36
-7.27
-15.56
-24.91
-35.35
-46.28
-56.37
-63.65
-66.06
-62.13
-51.55
-35.46
-16.06
3.98
22.33
37.50
48.88
56.57
61.08
63.02
63.02
61.67
59.51
56.97
54.36
51.85
49.57
47.58
45.90
44.53
43.40
42.45
41.59
40.67
39.45
37.58
34.68
30.48
25.04
18.75
12.23
6.15
0.93
-3.44
-7.41
-11.83
-17.62
-25.37
-34.95
-45.22
-54.09
-59.00
-57.69
-49.09
-33.73
-13.70
8.06
28.61
45.90
59.03
68.16
74.05
77.55
79.32
79.74
79.03
77.38
75.04
72.31
69.47
66.69
64.08
61.68
59.56
57.83
56.54
55.66
54.90
53.80
51.76
48.28
43.17
36.60
29.17
21.60
14.54
8.33
2.80
-2.63
-8.81
-16.45
-25.73
-35.95
-45.52
-52.19
-53.72
-48.66
-36.90
-19.82
0.11
20.09
37.74
51.65
61.50
67.71
71.12
72.50
72.50
71.56
70.08
68.38
66.75
65.34
64.13
62.98
61.79
60.55
59.42
58.60
58.21
58.10
57.85
56.85
54.59
50.87
45.87
40.14
34.37
29.07
24.36
19.94
15.12
9.14
1.48
-7.80
-17.86
-27.11
-33.52
-35.22
-31.14
-21.47
-7.73
7.69
22.26
34.08
42.27
46.97
48.99
49.25
48.44
46.88
44.67
41.82
38.44
34.75
31.02
27.53
24.47
21.96
20.05
18.66
17.65
16.75
15.63
13.98
11.50
8.03
3.57
-1.69
-7.41
-13.11
-18.34
-22.82
-26.65
-30.20
-34.01
-38.28
-42.63
-45.90
-46.52
-43.03
-34.75
-22.16
-6.86
8.94
23.09
34.08
41.39
45.32
46.71
46.56
45.60
44.24
42.62
40.70
38.44
35.86
33.06
30.12
27.12
24.14
21.25
18.55
16.02
13.52
10.72
7.22
2.67
-3.00
-9.61
-16.71
-23.79
-30.48
-36.71
-42.76
-49.20
-56.68
-65.65
