1520865224.00
64.000000
-0.00
-0.00
-0.00
-0.00
-0.00
-0.00
-0.00
-0.00
-0.00
-0.00
0.00
0.01
0.01
-0.00
-0.03
-0.05
-0.05
0.00
0.13
0.36
0.66
1.01
1.37
1.72
2.06
2.40
2.79
3.24
3.80
4.42
5.06
5.66
6.20
6.68
7.15
7.68
8.31
9.14
10.09
11.04
11.88
12.56
13.14
13.76
14.65
15.96
17.91
20.32
22.90
25.38
27.58
29.57
31.68
34.32
37.81
42.54
48.15
54.10
59.83
64.97
69.58
74.14
79.34
85.71
93.76
103.00
112.62
121.73
129.77
136.75
143.30
150.75
157.77
166.64
177.95
191.79
206.97
220.57
228.25
225.36
208.53
176.87
132.76
80.05
23.07
-34.94
-92.44
-149.16
-205.23
-260.37
-313.74
-363.87
-409.83
-450.91
-486.50
-515.74
-537.23
-549.22
-549.96
-538.37
-514.21
-478.67
-433.88
-382.45
-327.02
-269.84
-212.63
-156.66
-102.95
-52.37
-5.90
35.58
71.43
101.35
125.50
144.38
158.69
169.15
176.37
180.75
182.57
182.07
179.51
175.23
169.65
163.18
156.15
148.81
141.30
133.69
126.02
118.33
110.69
103.16
95.80
88.68
81.83
75.25
68.95
62.95
57.25
51.86
46.78
42.03
37.58
33.45
29.61
26.07
22.81
19.82
17.12
14.67
12.49
10.56
8.87
7.40
6.15
5.08
4.19
3.44
2.84
2.35
1.96
1.65
1.42
1.25
1.12
1.04
0.98
0.96
0.96
0.98
1.01
1.06
1.13
1.21
1.30
1.41
1.54
1.68
1.84
2.02
2.22
2.45
2.70
2.97
3.28
3.61
3.98
4.39
4.83
5.30
5.82
6.37
6.97
7.61
8.30
9.03
9.82
10.65
11.52
12.45
13.42
14.44
15.53
16.68
17.91
19.19
20.52
21.87
23.19
24.40
25.40
26.07
26.29
25.93
24.89
23.11
20.58
17.34
13.45
9.08
4.44
-0.29
-4.86
-9.07
-12.73
-15.72
-17.96
-19.42
-20.11
-20.12
-19.55
-18.51
-17.11
-15.47
-13.66
-11.74
-9.77
-7.74
-5.70
-3.66
-1.64
0.38
2.42
4.51
6.67
8.98
11.51
14.20
17.00
19.89
22.84
25.82
28.84
31.93
35.20
38.78
42.54
46.40
50.32
54.26
58.23
62.27
66.50
71.09
76.32
81.95
87.87
93.95
100.06
106.12
112.06
117.97
124.01
130.45
136.91
143.05
148.44
152.56
154.84
154.68
151.39
143.87
134.91
125.33
115.46
105.16
94.12
82.03
68.83
54.87
40.84
27.59
15.15
3.32
-8.50
-21.15
-35.31
-51.20
-68.43
-86.14
-103.27
-119.54
-135.00
-150.18
-165.91
-183.15
-202.88
-225.82
-252.04
-280.33
-308.20
-331.73
-346.59
-349.62
-339.96
-319.53
-292.14
-262.04
-232.42
-204.91
-179.66
-156.29
-134.67
-115.12
-98.18
-83.94
-71.94
-61.24
-51.02
-40.92
-31.19
-22.58
-15.89
-11.57
-9.50
-8.99
-9.04
-8.81
-7.96
-6.80
-6.16
-6.91
-9.47
-13.46
-17.67
-20.52
-20.62
-17.23
-10.52
-1.44
8.72
18.75
27.78
35.39
41.43
45.93
48.90
50.36
50.40
49.28
47.50
45.66
44.35
43.86
44.18
45.00
45.88
46.46
46.61
46.44
46.11
45.76
45.30
44.48
42.96
40.54
37.21
33.22
28.99
24.91
21.25
17.98
14.82
11.30
7.00
1.71
-4.37
-10.63
-16.11
-19.73
-20.59
-18.24
-12.86
-5.18
3.69
12.61
20.68
27.39
32.54
36.13
38.16
38.70
37.82
35.78
33.06
30.20
27.69
25.80
24.52
23.66
23.03
22.50
22.08
21.80
21.63
21.41
20.92
19.91
18.24
15.89
12.92
9.52
5.95
2.51
-0.58
-3.21
-5.55
-7.98
-11.01
-15.05
-20.14
-25.84
-31.29
-35.34
-36.90
-35.29
-30.40
-22.74
-13.32
-3.34
6.09
14.20
20.57
25.10
27.89
29.12
29.07
28.12
26.71
25.31
24.30
23.84
23.90
24.20
24.40
24.17
23.35
22.05
20.52
19.08
17.89
16.91
15.83
14.27
11.90
8.69
4.83
0.77
-3.09
-6.45
-9.28
-11.76
-14.25
-17.16
-20.77
-25.17
-30.10
-34.89
-38.63
-40.32
-39.19
-34.96
-27.95
-19.06
-9.49
-0.39
7.41
13.54
18.02
21.08
22.90
23.61
23.26
22.05
20.37
18.76
17.71
17.48
17.99
18.89
19.76
20.30
20.41
20.17
19.67
18.95
17.95
16.60
14.85
12.70
10.23
7.50
4.58
1.54
-1.49
-4.35
-6.91
-9.10
-11.05
-13.03
-15.40
-18.43
-22.20
-26.46
-30.59
-33.73
-34.96
-33.59
-29.42
-22.81
-14.57
-5.77
2.64
9.94
15.81
20.15
23.03
24.57
24.91
24.24
22.84
21.07
19.36
18.09
17.50
17.66
18.41
19.40
20.20
20.46
20.01
18.92
17.45
15.92
14.51
13.20
11.79
10.01
7.68
4.81
1.58
-1.72
-4.80
-7.50
-9.75
-11.60
-13.19
-14.72
-16.48
-18.76
-21.85
-25.74
-30.06
-34.00
-36.46
-36.41
-33.30
-27.24
-19.05
-9.97
-1.23
6.30
12.19
16.44
19.13
20.39
20.30
19.01
16.88
14.47
12.41
11.22
11.10
11.92
13.34
14.96
16.48
17.71
18.57
18.99
18.94
18.36
17.31
15.87
14.19
12.38
10.53
8.65
6.68
4.57
2.31
-0.01
-2.26
-4.28
-6.03
-7.64
-9.43
-11.79
-14.98
-18.98
-23.40
-27.50
-30.41
-31.31
-29.72
-25.57
-19.22
-11.41
-3.04
4.98
11.86
17.13
20.59
22.29
22.46
21.43
19.53
17.12
14.60
12.36
10.74
9.94
9.94
10.48
11.16
11.63
11.67
11.29
10.70
10.07
9.48
8.90
8.17
7.14
5.74
3.99
1.93
-0.36
-2.79
-5.22
-7.47
-9.41
-10.99
-12.34
-13.71
-15.43
-17.75
-20.65
-23.74
-26.32
-27.55
-26.77
-23.77
-18.80
-12.58
-5.91
0.50
6.19
10.89
14.43
16.66
17.46
16.83
15.04
12.60
10.10
8.06
6.73
6.11
6.02
6.16
6.35
6.45
6.46
6.41
6.33
6.20
5.91
5.35
4.37
2.89
0.94
-1.35
-3.73
-5.98
-7.93
-9.57
-11.00
-12.42
-14.08
-16.19
-18.86
-21.98
-25.18
-27.80
-29.12
-28.49
-25.60
-20.64
-14.21
-7.19
-0.43
5.43
10.03
13.27
15.16
15.79
15.34
14.07
12.34
10.56
9.09
8.14
7.70
7.61
7.61
7.50
7.16
6.64
6.06
5.51
4.99
4.35
3.39
1.83
-0.41
-3.27
-6.43
-9.47
-12.01
-13.86
-15.18
-16.36
-17.89
-20.12
-23.15
-26.72
-30.26
-33.07
-34.45
-33.87
-31.09
-26.19
-19.60
-12.01
-4.23
2.99
9.06
13.68
16.73
18.28
18.55
17.80
16.36
14.57
12.80
11.26
10.11
9.37
8.95
8.75
8.59
8.37
7.99
7.45
6.78
6.00
5.07
3.88
2.33
0.37
-1.94
-4.41
-6.84
-9.11
-11.21
-13.24
-15.34
-17.67
-20.35
-23.46
-26.98
-30.71
-34.13
-36.49
-36.92
-34.76
-29.83
-22.60
-14.04
-5.33
2.49
8.81
13.48
16.66
18.56
19.32
18.97
17.62
15.55
13.26
11.35
10.27
10.19
10.91
12.00
13.01
13.64
13.85
13.73
13.46
13.06
12.47
11.49
9.89
7.58
4.62
1.26
-2.12
-5.20
-7.81
-10.00
-12.07
-14.35
-17.13
-20.52
-24.35
-28.20
-31.48
-33.50
-33.62
-31.39
-26.74
-19.99
-11.88
-3.36
4.59
11.20
16.00
18.89
19.99
19.64
18.22
16.12
13.76
11.51
9.71
8.57
8.15
8.34
8.90
9.59
10.20
10.63
10.89
10.98
10.88
10.43
9.44
7.77
5.42
2.53
-0.55
-3.43
-5.81
-7.54
-8.78
-9.88
-11.35
-13.67
-17.04
-21.22
-25.56
-29.10
-30.87
-30.14
-26.70
-20.91
-13.53
-5.57
2.04
8.55
13.51
16.74
18.27
18.28
17.08
15.06
12.64
10.24
8.16
6.59
5.59
5.11
5.10
5.48
6.20
7.14
8.10
8.76
8.84
8.15
6.66
4.58
2.17
-0.29
-2.62
-4.75
-6.72
-8.65
-10.69
-13.06
-15.95
-19.43
-23.31
-27.03
-29.81
-30.83
-29.49
-25.61
-19.55
-12.03
-3.99
3.68
10.25
15.27
18.49
19.94
19.85
18.62
16.76
14.76
13.03
11.77
11.12
11.04
11.43
12.12
12.86
13.41
13.57
13.24
12.41
11.17
9.54
7.55
5.18
2.46
-0.48
-3.42
-6.12
-8.44
-10.47
-12.55
-15.16
-18.72
-23.40
-28.87
-34.34
-38.69
-40.83
-40.04
-36.17
-29.73
-21.61
-12.83
-4.29
3.42
9.88
14.83
18.09
19.53
19.29
17.75
15.58
13.53
12.18
11.78
12.23
13.19
14.27
15.20
15.89
16.32
16.51
16.42
15.97
15.09
13.75
11.95
9.75
7.21
4.39
1.37
-1.69
-4.66
-7.43
-9.99
-12.52
-15.30
-18.64
-22.64
-27.03
-31.09
-33.81
-34.20
-31.67
-26.30
-18.79
-10.23
-1.74
5.82
11.94
16.42
19.20
20.36
20.10
18.84
17.09
15.43
14.28
13.83
13.99
14.58
15.38
16.20
16.98
17.64
18.09
18.23
17.91
17.06
15.63
13.66
11.24
8.51
5.61
2.68
-0.18
-2.94
-5.67
-8.55
-11.82
-15.72
-20.33
-25.39
-30.23
-33.90
-35.42
-34.11
-29.86
-23.14
-14.86
-6.01
2.52
10.17
16.56
21.45
24.65
26.13
25.95
24.44
22.15
19.69
17.67
16.47
16.21
16.70
17.57
18.37
18.75
18.55
17.82
16.72
15.35
13.72
11.72
9.25
6.36
3.27
0.32
-2.25
-4.33
-6.12
-8.01
-10.48
-13.86
-18.19
-23.08
-27.78
-31.29
-32.68
-31.32
-27.12
-20.52
-12.36
-3.63
4.71
11.92
17.51
21.23
23.02
23.04
21.67
19.42
16.92
14.77
13.47
13.26
14.11
15.74
17.69
19.49
20.76
21.33
21.18
20.36
18.95
16.96
14.43
11.45
8.21
5.01
2.11
-0.41
-2.68
-4.98
-7.68
-10.97
-14.82
-18.86
-22.50
-25.04
-25.84
-24.49
-20.85
-15.17
-8.03
-0.23
7.26
13.57
18.08
20.52
21.02
20.00
17.96
15.39
12.73
10.34
8.52
7.49
7.34
7.96
9.10
10.36
11.35
11.81
11.57
10.64
9.15
7.31
5.39
3.61
2.14
0.97
-0.05
-1.16
-2.60
-4.58
-7.21
-10.54
-14.44
-18.57
-22.31
-24.83
-25.33
-23.34
-18.90
-12.54
-5.19
2.21
8.83
14.12
17.76
19.67
19.94
18.82
16.77
14.35
12.02
10.13
8.80
7.98
7.60
7.57
7.86
8.35
8.87
9.13
8.90
8.05
6.62
4.79
2.80
0.83
-0.99
-2.61
-4.01
-5.22
-6.39
-7.78
-9.68
-12.27
-15.41
-18.58
-20.95
-21.64
-20.01
-15.93
-9.81
-2.46
5.10
11.94
17.35
20.92
22.58
22.49
21.00
18.57
15.69
12.80
10.25
8.32
7.10
6.60
6.67
7.10
7.60
7.93
7.92
7.45
6.50
5.08
3.26
1.08
-1.39
-4.05
-6.83
-9.66
-12.52
-15.46
-18.57
-21.96
-25.63
-29.36
-32.67
-34.84
-35.14
-32.97
-28.20
-21.20
-12.83
-4.18
3.69
10.04
14.47
16.97
17.70
16.93
14.90
11.98
8.60
5.35
2.77
1.26
0.89
1.43
2.42
3.41
4.06
4.19
3.71
2.61
0.88
-1.43
-4.18
-7.15
-10.06
-12.63
-14.71
-16.28
-17.56
-18.92
-20.82
-23.62
-27.37
-31.60
-35.41
-37.66
-37.35
-34.05
-28.02
-20.12
-11.52
-3.31
3.78
9.37
13.35
15.73
16.51
15.74
13.68
10.79
7.72
5.11
3.41
2.69
2.70
3.02
3.22
3.08
2.54
1.75
0.81
-0.18
-1.29
-2.66
-4.37
-6.40
-8.55
-10.48
-11.88
-12.64
-13.03
-13.57
-14.92
-17.52
-21.34
-25.83
-30.04
-32.88
-33.47
-31.32
-26.52
-19.58
-11.34
-2.76
5.31
12.20
17.58
21.29
23.41
24.16
23.79
22.59
20.89
19.00
17.23
15.84
14.99
14.74
15.03
15.71
16.53
17.29
17.78
17.85
17.42
16.43
14.90
12.93
10.68
8.36
6.14
4.08
2.10
0.05
-2.26
-5.07
-8.44
-12.27
-16.20
-19.60
-21.68
-21.68
-19.16
-14.13
-7.16
0.80
8.68
15.53
20.75
24.08
25.60
25.58
24.40
22.50
20.31
18.19
16.45
15.22
14.53
14.28
14.30
14.41
14.46
14.38
14.07
13.41
12.29
10.66
8.59
6.30
4.03
1.95
0.10
-1.70
-3.70
-6.17
-9.32
-13.25
-17.88
-22.89
-27.59
-31.10
-32.49
-31.16
-27.02
-20.58
-12.74
-4.50
3.30
10.08
15.49
19.30
21.42
21.87
20.86
18.79
16.19
13.55
11.32
9.73
8.85
8.58
8.70
8.91
8.98
8.71
8.01
6.86
5.30
3.38
1.18
-1.14
-3.41
-5.44
-7.05
-8.22
-9.03
-9.77
-10.83
-12.61
-15.30
-18.78
-22.52
-25.69
-27.36
-26.84
-23.84
-18.63
-11.96
-4.76
2.08
7.88
12.24
14.98
16.05
15.55
13.67
10.85
7.73
5.05
3.39
3.01
3.72
4.95
6.04
6.56
6.42
5.90
5.35
5.02
4.85
4.58
3.85
2.47
0.49
-1.83
-4.14
-6.19
-7.91
-9.44
-11.11
-13.22
-16.03
-19.57
-23.57
-27.44
-30.42
-31.66
-30.54
-26.79
-20.61
-12.64
-3.78
5.04
13.07
19.77
24.91
28.49
30.59
31.43
31.22
30.24
28.76
27.03
25.32
23.81
22.57
21.55
20.60
19.53
18.24
16.74
15.10
13.40
11.60
9.56
7.07
4.01
0.46
-3.34
-7.04
-10.35
-13.15
-15.51
-17.66
-19.94
-22.60
-25.83
-29.59
-33.54
-37.06
-39.30
-39.46
-37.03
-32.05
-25.13
-17.29
-9.62
-2.96
2.25
5.96
8.29
9.46
9.63
9.01
7.86
6.57
5.58
5.20
5.57
6.63
8.15
9.84
11.41
12.69
13.64
14.31
14.82
15.26
15.58
15.64
15.21
14.11
12.32
9.99
7.40
4.89
2.78
1.23
0.28
-0.25
-0.66
-1.36
-2.73
-5.03
-8.18
-11.69
-14.76
-16.43
-15.90
-12.80
-7.32
-0.17
7.63
15.04
21.21
25.56
27.84
28.10
26.65
24.05
20.94
17.94
15.48
13.73
12.63
12.03
11.78
11.73
11.80
11.83
11.63
11.02
9.99
8.61
7.07
5.48
3.87
2.17
0.30
-1.66
-3.55
-5.12
-6.25
-7.02
-7.66
-8.47
-9.67
-11.29
-13.24
-15.37
-17.52
-19.53
-21.10
-21.78
-21.05
-18.54
-14.27
-8.69
-2.60
3.10
7.78
11.16
13.31
14.43
14.70
14.18
12.88
10.97
8.83
6.97
5.86
5.71
6.33
7.30
8.11
8.45
8.29
7.86
7.40
7.06
6.70
6.09
4.95
3.19
0.97
-1.44
-3.70
-5.59
-7.09
-8.34
-9.63
-11.24
-13.34
-15.90
-18.72
-21.45
-23.67
-24.96
-25.02
-23.66
-20.87
-16.81
-11.77
-6.18
-0.56
4.55
8.67
11.45
12.78
12.79
11.83
10.33
8.70
7.19
5.97
5.06
4.48
4.23
4.27
4.52
4.84
5.11
5.22
5.09
4.70
4.04
3.06
1.77
0.21
-1.50
-3.18
-4.65
-5.84
-6.79
-7.64
-8.64
-10.05
-12.05
-14.67
-17.62
-20.33
-22.03
-21.97
-19.76
-15.48
-9.79
-3.61
2.12
6.75
10.00
11.94
12.81
12.88
12.33
11.33
10.04
8.66
7.36
6.24
5.31
4.55
3.86
3.23
2.69
2.28
1.97
1.68
1.24
0.48
-0.70
-2.30
-4.16
-6.13
-8.00
-9.61
-10.88
-11.84
-12.62
-13.47
-14.62
-16.19
-18.05
-19.76
-20.70
-20.25
-18.01
-14.04
-8.87
-3.31
1.81
5.85
8.57
10.03
10.48
10.13
9.15
7.58
5.52
3.17
0.89
-0.93
-2.00
-2.28
-1.88
-1.13
-0.34
0.28
0.62
0.65
0.36
-0.27
-1.26
-2.55
-4.03
-5.51
-6.86
-8.05
-9.23
-10.61
-12.44
-14.81
-17.55
-20.23
-22.21
-22.81
-21.56
-18.35
-13.53
-7.84
-2.14
2.75
6.34
8.48
9.33
9.19
8.35
7.00
5.29
3.37
1.44
-0.24
-1.42
-1.93
-1.79
-1.14
-0.31
0.34
0.47
-0.06
-1.16
-2.58
-3.98
-5.17
-6.17
-7.21
-8.57
-10.44
-12.77
-15.38
-18.03
-20.54
-22.79
-24.55
-25.47
-25.04
-22.85
-18.75
-13.07
-6.57
-0.20
5.23
9.18
11.55
12.55
12.50
11.70
10.34
8.58
6.56
4.50
2.64
1.24
0.48
0.39
0.87
1.65
2.40
2.82
2.69
2.02
0.92
-0.39
-1.72
-3.00
-4.30
-5.78
-7.60
-9.90
-12.76
-16.14
-19.87
-23.60
-26.75
-28.65
-28.68
-26.50
-22.21
-16.29
-9.57
-2.90
2.97
7.58
10.71
12.42
12.93
12.54
11.56
10.26
8.85
7.49
6.32
5.46
5.01
4.98
5.33
5.86
6.32
6.45
6.03
4.96
3.30
1.27
-0.87
-2.93
-4.87
-6.81
-8.96
-11.52
-14.58
-18.04
-21.62
-24.94
-27.56
-29.00
-28.78
-26.59
-22.36
-16.38
-9.33
-2.13
4.30
9.28
12.49
13.98
13.98
12.77
10.66
7.97
5.07
2.42
0.46
-0.52
-0.51
0.24
1.28
2.15
2.58
2.48
1.96
1.19
0.29
-0.74
-1.94
-3.36
-4.96
-6.69
-8.48
-10.41
-12.70
-15.56
-19.08
-22.99
-26.66
-29.18
-29.68
-27.67
-23.20
-16.87
-9.62
-2.42
3.98
9.11
12.78
14.95
15.66
15.05
13.41
11.14
8.75
6.73
5.39
4.81
4.93
5.55
6.48
7.55
8.58
9.34
9.57
9.04
7.66
5.54
2.93
0.17
-2.49
-4.94
-7.26
-9.65
-12.34
-15.51
-19.21
-23.32
-27.44
-30.93
-33.00
-32.90
-30.19
-24.95
-17.80
-9.79
-2.05
4.52
9.48
12.86
14.97
16.08
16.38
15.87
14.61
12.80
10.90
9.44
8.82
9.09
10.00
11.09
11.94
12.27
12.06
11.36
10.29
8.92
7.30
5.51
3.61
1.69
-0.29
-2.49
-5.24
-8.85
-13.46
-18.89
-24.53
-29.47
-32.68
-33.32
-30.98
-25.85
-18.57
-10.17
-1.72
5.85
11.85
15.95
18.12
18.58
17.76
16.16
14.29
12.56
11.32
10.75
10.88
11.61
12.63
13.58
14.10
13.96
13.11
11.72
10.00
8.15
6.25
4.28
2.18
-0.08
-2.49
-5.10
-8.03
-11.50
-15.68
-20.48
-25.44
-29.68
-32.10
-31.74
-28.15
-21.63
-13.07
-3.77
5.06
12.60
18.48
22.72
25.45
26.89
27.15
26.44
25.05
23.40
21.89
20.86
20.46
20.63
21.23
22.06
22.91
23.58
23.83
23.42
22.20
20.12
17.32
14.08
10.69
7.41
4.33
1.44
-1.38
-4.36
-7.74
-11.84
-16.84
-22.64
-28.68
-33.92
-37.06
-36.95
-33.05
-25.64
-15.80
-5.02
5.20
13.82
20.34
24.77
27.42
28.61
28.68
27.89
26.57
25.12
23.95
23.41
23.62
24.39
25.37
26.17
26.56
26.54
26.29
25.96
25.54
24.83
23.52
21.40
18.48
14.98
11.35
7.99
5.11
2.70
0.42
-2.25
-5.85
-10.69
-16.71
-23.32
-29.51
-34.08
-35.98
-34.69
-30.28
-23.42
-15.13
-6.48
1.63
8.57
13.98
17.70
19.70
20.12
19.31
17.79
16.16
14.95
14.41
14.55
15.15
15.86
16.46
16.86
17.07
17.17
17.19
17.07
16.67
15.75
14.11
11.62
8.28
4.29
0.05
-3.99
-7.48
-10.31
-12.68
-15.06
-17.95
-21.64
-26.02
-30.55
-34.31
-36.30
-35.69
-32.12
-25.85
-17.61
-8.47
0.53
8.51
14.95
19.58
22.30
23.16
22.34
20.27
17.58
15.05
13.40
13.00
13.79
15.29
16.85
17.89
18.13
17.61
16.60
15.40
14.21
13.04
11.84
10.48
8.95
7.30
5.67
4.16
2.73
1.21
-0.67
-3.22
-6.63
-10.87
-15.62
-20.34
-24.27
-26.65
-26.80
-24.30
-19.17
-11.84
-3.13
5.96
14.45
21.61
27.01
30.52
32.27
32.48
31.51
29.73
27.60
25.56
24.04
23.25
23.17
23.55
24.01
24.23
24.03
23.45
22.60
21.53
20.20
18.48
16.24
13.52
10.53
7.60
5.00
2.85
1.07
-0.60
-2.44
-4.78
-7.84
-11.67
-16.10
-20.68
-24.71
-27.36
-27.90
-25.86
-21.27
-14.62
-6.76
1.29
8.63
14.61
18.94
21.60
22.72
22.48
21.12
18.92
16.26
13.63
11.52
10.30
10.08
10.66
11.67
12.73
13.53
13.94
13.92
13.45
12.46
10.94
8.90
6.53
4.07
1.81
-0.12
-1.75
-3.29
-4.99
-7.02
-9.46
-12.29
-15.51
-19.15
-23.17
-27.33
-31.11
-33.70
-34.27
-32.21
-27.46
-20.55
-12.44
-4.24
3.14
9.16
13.62
16.51
17.88
17.79
16.43
14.15
11.48
9.05
7.36
6.65
6.86
7.72
8.84
9.90
10.65
10.99
10.89
10.42
9.70
8.82
7.85
6.80
5.61
4.19
2.46
0.44
-1.79
-4.09
-6.27
-8.22
-9.93
-11.55
-13.34
-15.60
-18.50
-21.95
-25.56
-28.62
-30.31
-29.91
-27.03
-21.82
-14.88
-7.16
0.31
6.67
11.41
14.37
15.62
15.39
14.02
11.87
9.38
7.04
5.24
4.24
4.11
4.71
5.78
7.02
8.12
8.81
8.95
8.50
7.60
6.48
5.33
4.25
3.15
1.89
0.33
-1.48
-3.39
-5.17
-6.71
-8.03
-9.25
-10.50
-11.86
-13.39
-15.16
-17.31
-19.96
-23.12
-26.50
-29.50
-31.32
-31.16
-28.61
-23.71
-17.07
-9.62
-2.39
3.80
8.48
11.60
13.32
13.96
13.81
13.14
12.20
11.25
10.56
10.32
10.64
11.44
12.50
13.52
14.26
14.59
14.52
14.14
13.54
12.76
11.75
10.43
8.79
6.89
4.86
2.77
0.68
-1.51
-3.87
-6.38
-8.87
-11.09
-12.77
-13.81
-14.40
-14.93
-15.88
-17.63
-20.18
-23.15
-25.83
-27.36
-27.04
-24.56
-20.08
-14.22
-7.81
-1.66
3.61
7.70
10.55
12.24
12.89
12.64
11.68
10.25
8.67
7.23
6.22
5.77
5.91
6.51
7.41
8.40
9.27
9.85
10.04
9.78
9.11
8.11
6.86
5.41
3.77
1.93
-0.03
-2.00
-3.76
-5.18
-6.20
-6.90
-7.50
-8.18
-9.15
-10.47
-12.21
-14.37
-16.94
-19.86
-22.89
-25.60
-27.38
-27.62
-25.86
-22.07
-16.63
-10.24
-3.79
1.99
6.61
9.94
12.03
13.09
13.26
12.63
11.35
9.60
7.76
6.21
5.27
5.09
5.54
6.29
6.99
7.40
7.47
7.31
7.04
6.72
6.22
5.38
4.09
2.38
0.47
-1.41
-3.07
-4.51
-5.84
-7.22
-8.70
-10.24
-11.73
-13.13
-14.48
-15.95
-17.74
-19.93
-22.39
-24.74
-26.39
-26.71
-25.23
-21.81
-16.76
-10.71
-4.52
1.02
5.40
8.39
10.06
10.63
10.36
9.46
8.09
6.43
4.70
3.14
2.02
1.48
1.51
1.96
2.54
2.99
3.19
3.23
3.27
3.52
3.97
4.43
4.65
4.35
3.41
1.90
-0.03
-2.18
-4.34
-6.33
-8.04
-9.47
-10.76
-12.20
-14.10
-16.55
-19.33
-21.86
-23.45
-23.49
-21.74
-18.39
-13.91
-8.92
-3.93
0.61
4.41
7.26
9.02
9.63
9.18
7.93
6.19
4.31
2.54
1.05
-0.07
-0.71
-0.79
-0.32
0.62
1.80
2.87
3.52
3.57
3.00
1.95
0.58
-1.01
-2.81
-4.89
-7.24
-9.76
-12.19
-14.29
-15.89
-17.00
-17.90
-18.96
-20.57
-22.88
-25.75
-28.71
-31.12
-32.32
-31.84
-29.46
-25.27
-19.57
-12.91
-6.00
0.45
5.74
9.46
11.48
11.95
11.28
9.94
8.35
6.80
5.50
4.55
4.01
3.88
4.09
4.51
4.96
5.30
5.43
5.28
4.85
4.15
3.19
1.94
0.42
-1.31
-3.18
-5.13
-7.08
-9.02
-10.92
-12.79
-14.71
-16.81
-19.24
-22.04
-25.03
-27.77
-29.63
-30.01
-28.53
-25.16
-20.26
-14.40
-8.23
-2.34
2.82
6.93
9.73
11.14
11.16
10.02
8.07
5.82
3.85
2.62
2.39
3.13
4.54
6.20
7.67
8.67
9.08
8.93
8.32
7.26
5.76
3.79
1.41
-1.24
-3.90
-6.31
-8.28
-9.81
-11.01
-12.22
-13.80
-16.12
-19.34
-23.30
-27.51
-31.17
-33.39
-33.38
-30.81
-25.84
-19.18
-11.82
-4.71
1.46
6.35
9.87
12.09
13.07
12.86
11.69
9.93
8.13
6.78
6.19
6.36
7.00
7.79
8.52
9.10
9.58
9.92
10.02
9.65
8.66
7.02
4.93
2.70
0.63
-1.11
-2.49
-3.67
-4.87
-6.29
-8.06
-10.29
-13.01
-16.18
-19.62
-22.98
-25.65
-26.90
-26.08
-22.88
-17.43
-10.41
-2.72
4.69
11.10
16.07
19.44
21.23
21.61
20.83
19.33
17.61
16.20
15.49
15.66
16.58
17.99
19.54
20.90
21.87
22.33
22.31
21.88
21.13
20.05
18.62
16.79
14.54
11.97
9.28
6.75
4.55
2.68
0.87
-1.29
-4.24
-8.16
-12.82
-17.63
-21.68
-24.07
-24.11
-21.61
-16.84
-10.53
-3.58
3.07
8.70
12.88
15.49
16.65
16.60
15.64
14.05
12.18
10.40
9.09
8.55
8.89
9.97
11.49
13.02
14.20
14.75
14.58
13.75
12.43
10.84
9.15
7.45
5.77
4.04
2.18
0.14
-2.05
-4.40
-6.93
-9.73
-12.92
-16.46
-20.01
-22.97
-24.49
-23.86
-20.71
-15.19
-7.96
-0.00
7.64
14.10
18.80
21.47
22.15
21.07
18.65
15.43
12.04
9.07
7.01
6.03
6.10
6.93
8.14
9.33
10.14
10.35
9.84
8.67
6.99
5.10
3.24
1.56
0.03
-1.53
-3.36
-5.73
-8.78
-12.50
-16.73
-21.08
-24.98
-27.64
-28.32
-26.51
-22.16
-15.75
-8.15
-0.43
6.49
11.98
15.79
17.95
18.64
18.12
16.65
14.55
12.19
9.94
8.09
6.85
6.27
6.30
6.80
7.59
8.44
9.09
9.28
8.81
7.58
5.65
3.20
0.49
-2.25
-4.90
-7.52
-10.30
-13.49
-17.27
-21.53
-25.89
-29.65
-31.93
-31.97
-29.33
-24.00
-16.52
-7.79
1.09
9.08
15.45
19.83
22.25
23.01
22.51
21.10
19.13
16.89
14.70
12.88
11.68
11.22
11.44
12.11
12.91
13.51
13.62
13.05
11.72
9.66
7.05
4.13
1.14
-1.69
-4.25
-6.60
-8.92
-11.50
-14.66
-18.53
-22.93
-27.26
-30.58
-31.85
-30.30
-25.74
-18.59
-9.87
-0.80
7.53
14.36
19.37
22.53
24.08
24.21
23.21
21.41
19.23
17.13
15.58
14.86
14.99
15.70
16.60
17.32
17.61
17.42
16.80
15.77
14.30
12.27
9.64
6.49
3.12
-0.16
-3.04
-5.51
-7.79
-10.31
-13.56
-17.77
-22.83
-28.09
-32.59
-35.26
-35.22
-32.14
-26.21
-18.13
-8.88
0.46
8.99
16.05
21.29
24.62
26.16
26.26
25.31
23.76
22.00
20.32
18.95
18.01
17.54
17.52
17.80
18.19
18.49
18.52
18.18
17.42
16.24
14.65
12.68
10.37
7.81
5.13
2.45
-0.21
-2.97
-6.08
-9.80
-14.23
-19.17
-24.02
-27.92
-29.97
-29.49
-26.23
-20.46
-12.87
-4.35
4.16
11.85
18.12
22.61
25.16
25.90
25.14
23.35
21.08
18.84
16.97
15.59
14.63
13.91
13.31
12.79
12.44
12.31
12.41
12.55
12.41
11.71
10.28
8.22
5.75
3.18
0.71
-1.57
-3.71
-5.81
-7.99
-10.45
-13.37
-16.82
-20.62
-24.25
-26.86
-27.52
-25.52
-20.73
-13.69
-5.42
2.90
10.34
16.35
20.79
23.70
25.20
25.33
24.16
21.84
18.74
15.39
12.38
10.17
8.94
8.53
8.62
8.81
8.87
8.76
8.61
8.55
8.57
8.44
7.81
6.43
4.26
1.55
-1.29
-3.89
-6.13
-8.09
-10.02
-12.18
-14.72
-17.64
-20.86
-24.18
-27.18
-29.30
-29.86
-28.25
-24.24
-18.06
-10.43
-2.31
5.35
11.85
16.79
20.03
21.59
21.56
20.18
17.77
14.78
11.73
9.12
7.32
6.52
6.70
7.61
8.94
10.33
11.49
12.18
12.19
11.37
9.63
7.04
3.85
0.43
-2.85
-5.76
-8.25
-10.43
-12.51
-14.67
-17.07
-19.82
-22.99
-26.46
-29.84
-32.47
-33.52
-32.30
-28.52
-22.47
-14.91
-6.89
0.59
6.83
11.52
14.67
16.48
17.20
17.04
16.13
14.72
13.07
11.55
10.45
9.94
9.92
10.10
10.17
9.91
9.34
8.59
7.84
7.14
6.35
5.25
3.64
1.48
-1.06
-3.65
-5.96
-7.82
-9.30
-10.65
-12.24
-14.36
-17.13
-20.41
-23.82
-26.86
-28.90
-29.34
-27.71
-23.84
-17.96
-10.67
-2.93
4.31
10.31
14.70
17.43
18.71
18.77
17.89
16.33
14.45
12.63
11.23
10.46
10.39
10.87
11.65
12.42
12.95
13.06
12.70
11.89
10.73
9.27
7.56
5.61
3.44
1.10
-1.28
-3.58
-5.66
-7.44
-8.94
-10.24
-11.57
-13.25
-15.59
-18.71
-22.36
-25.88
-28.33
-28.86
-26.98
-22.87
-17.17
-10.80
-4.50
1.21
6.13
10.20
13.25
15.14
15.73
15.09
13.53
11.54
9.67
8.33
7.79
8.12
9.18
10.71
12.31
13.58
14.22
14.10
13.32
12.08
10.64
9.14
7.63
6.07
4.35
2.42
0.28
-2.01
-4.32
-6.50
-8.38
-9.88
-11.00
-11.89
-12.81
-14.05
-15.81
-18.11
-20.73
-23.18
-24.80
-24.98
-23.23
-19.52
-14.18
-7.96
-1.66
3.98
8.55
11.85
13.88
14.70
14.41
13.16
11.24
9.05
7.05
5.67
5.16
5.57
6.73
8.29
9.75
10.69
10.85
10.22
9.10
7.91
6.95
6.25
5.56
4.57
3.08
1.16
-0.89
-2.72
-4.21
-5.47
-6.75
-8.33
-10.29
-12.56
-15.05
-17.69
-20.50
-23.44
-26.27
-28.45
-29.28
-28.16
-24.82
-19.55
-13.02
-6.15
0.23
5.53
9.50
12.09
13.34
13.28
12.03
9.85
7.23
4.79
3.14
2.61
3.16
4.45
5.89
7.00
7.48
7.31
6.70
5.92
5.16
4.47
3.77
2.93
1.83
0.46
-1.12
-2.77
-4.37
-5.83
-7.18
-8.42
-9.63
-10.86
-12.22
-13.82
-15.81
-18.21
-20.84
-23.28
-24.90
-25.03
-23.20
-19.32
-13.78
-7.27
-0.62
5.47
10.45
14.06
16.15
16.72
15.88
13.92
11.29
8.57
6.32
4.87
4.33
4.52
5.10
5.78
6.38
6.86
7.23
7.49
7.55
7.25
6.44
5.04
3.12
0.89
-1.35
-3.41
-5.23
-6.89
-8.51
-10.14
-11.77
-13.29
-14.72
-16.21
-18.03
-20.35
-23.07
-25.66
-27.28
-27.14
-24.79
-20.35
-14.48
-8.04
-1.86
3.47
7.67
10.62
12.26
12.60
11.72
9.91
7.63
5.42
3.76
2.91
2.89
3.47
4.37
5.34
6.24
7.06
7.81
8.47
8.92
8.94
8.29
6.87
4.73
2.12
-0.62
-3.14
-5.25
-6.91
-8.28
-9.58
-11.12
-13.13
-15.72
-18.74
-21.79
-24.23
-25.36
-24.63
-21.85
-17.26
-11.45
-5.19
0.75
5.80
9.55
11.83
12.60
12.02
10.42
8.25
5.98
4.05
2.77
2.24
2.39
3.02
3.86
4.65
5.17
5.32
5.10
4.62
4.00
3.27
2.35
1.13
-0.46
-2.33
-4.29
-6.11
-7.70
-9.21
-10.98
-13.39
-16.58
-20.28
-23.86
-26.49
-27.46
-26.35
-23.19
-18.34
-12.38
-5.97
0.25
5.66
9.79
12.35
13.26
12.72
11.13
8.98
6.72
4.71
3.14
2.10
1.59
1.56
1.94
2.62
3.46
4.31
5.01
5.37
5.23
4.50
3.15
1.23
-1.11
-3.67
-6.24
-8.63
-10.79
-12.80
-14.91
-17.39
-20.37
-23.72
-26.94
-29.26
-29.88
-28.24
-24.20
-18.16
-10.91
-3.46
3.24
8.50
11.95
13.65
13.89
13.15
11.87
10.33
8.72
7.14
5.71
4.64
4.13
4.28
5.03
6.15
7.31
8.26
8.85
9.05
8.83
8.12
6.81
4.78
2.07
-1.15
-4.59
-7.94
-11.05
-13.92
-16.79
-19.93
-23.49
-27.36
-31.07
-33.84
-34.79
-33.23
-28.94
-22.24
-13.99
-5.27
2.87
9.65
14.68
17.78
19.05
18.69
17.03
14.56
11.89
9.59
8.06
7.50
7.81
8.74
9.99
11.28
12.38
13.12
13.38
13.08
12.19
10.73
8.73
6.26
3.43
0.44
-2.47
-5.06
-7.23
-9.09
-10.97
-13.35
-16.62
-20.88
-25.78
-30.55
-34.09
-35.37
-33.70
-29.02
-21.84
-13.13
-4.02
4.50
11.75
17.38
21.29
23.54
24.32
23.93
22.78
21.39
20.20
19.54
19.51
20.00
20.69
21.30
21.60
21.49
21.05
20.42
19.72
19.00
18.16
17.02
15.36
13.03
10.07
6.70
3.23
-0.03
-2.91
-5.40
-7.71
-10.19
-13.18
-16.93
-21.44
-26.41
-31.16
-34.80
-36.44
-35.44
-31.61
-25.32
-17.30
-8.50
0.16
7.96
14.39
19.20
22.30
23.82
23.97
23.14
21.76
20.30
19.18
18.69
18.95
19.82
20.98
21.99
22.48
22.27
21.36
20.01
18.54
17.24
16.18
15.25
14.15
12.62
10.51
7.88
5.04
2.31
-0.04
-1.92
-3.46
-4.96
-6.81
-9.41
-12.97
-17.45
-22.38
-26.93
-30.06
-30.82
-28.67
-23.68
-16.51
-8.23
0.01
7.21
12.77
16.54
18.69
19.60
19.66
19.19
18.43
17.59
16.91
16.70
17.14
18.21
19.63
20.94
21.69
21.68
20.98
19.87
18.66
17.53
16.51
15.46
14.20
12.56
10.47
8.00
5.34
2.76
0.55
-1.14
-2.37
-3.35
-4.48
-6.12
-8.54
-11.81
-15.77
-20.02
-23.94
-26.76
-27.72
-26.29
-22.37
-16.30
-8.89
-1.12
6.12
12.21
16.87
20.06
21.87
22.42
21.85
20.41
18.45
16.43
14.79
13.79
13.43
13.53
13.79
14.00
14.04
13.92
13.62
13.11
12.30
11.16
9.74
8.19
6.66
5.26
4.06
3.05
2.18
1.37
0.51
-0.57
-1.95
-3.71
-5.86
-8.36
-11.25
-14.54
-18.20
-21.99
-25.43
-27.82
-28.46
-26.87
-23.02
-17.33
-10.59
-3.67
2.66
7.84
11.62
13.94
14.88
14.60
13.41
11.69
9.93
8.58
7.91
7.96
8.50
9.25
9.93
10.42
10.71
10.83
10.72
10.32
9.50
8.23
6.56
4.66
2.74
0.94
-0.63
-1.93
-2.96
-3.72
-4.30
-4.86
-5.66
-6.97
-8.97
-11.63
-14.65
-17.47
-19.42
-19.85
-18.39
-15.04
-10.21
-4.61
0.97
5.83
9.53
11.86
12.85
12.64
11.44
9.50
7.14
4.74
2.72
1.42
1.04
1.56
2.77
4.31
5.87
7.20
8.22
8.94
9.31
9.22
8.47
6.96
4.79
2.33
0.03
-1.76
-2.96
-3.83
-4.74
-6.08
-8.04
-10.59
-13.64
-16.98
-20.32
-23.23
-25.11
-25.29
-23.35
-19.28
-13.60
-7.21
-1.07
4.08
7.85
10.21
11.33
11.46
10.91
9.94
8.80
7.75
6.95
6.50
6.40
6.65
7.19
7.95
8.79
9.46
9.68
9.28
8.21
6.57
4.50
2.16
-0.36
-2.96
-5.46
-7.60
-9.13
-9.97
-10.26
-10.48
-11.23
-12.99
-15.94
-19.74
-23.69
-26.83
-28.27
-27.41
-24.11
-18.75
-12.05
-4.91
1.85
7.61
12.03
15.02
16.61
16.95
16.16
14.47
12.23
9.86
7.82
6.43
5.86
6.01
6.63
7.41
8.04
8.38
8.39
8.13
7.63
6.86
5.72
4.13
2.06
-0.34
-2.83
-5.12
-7.00
-8.43
-9.55
-10.70
-12.26
-14.53
-17.56
-21.10
-24.61
-27.33
-28.47
-27.47
-24.18
-18.90
-12.37
-5.50
0.86
6.16
10.15
12.86
14.43
15.02
14.68
13.51
11.69
9.58
7.63
6.26
5.68
5.85
6.50
7.31
8.02
8.52
8.79
8.86
8.63
8.00
6.86
5.23
3.29
1.27
-0.61
-2.20
-3.54
-4.77
-6.17
-8.00
-10.49
-13.74
-17.55
-21.40
-24.48
-25.88
-24.92
-21.41
-15.74
-8.81
-1.73
4.52
9.27
12.29
13.66
13.65
12.61
10.86
8.71
6.41
4.18
2.26
0.90
0.28
0.52
1.48
2.84
4.17
5.06
5.30
4.87
3.92
2.63
1.15
-0.46
-2.14
-3.82
-5.44
-6.98
-8.56
-10.39
-12.73
-15.64
-18.97
-22.28
-24.84
-25.90
-24.84
-21.43
-15.95
-9.15
-2.05
4.40
9.48
12.90
14.68
15.02
14.17
12.39
9.95
7.24
4.72
2.82
1.81
1.66
2.12
2.87
3.61
4.18
4.54
4.62
4.29
3.40
1.81
-0.46
-3.18
-6.00
-8.55
-10.62
-12.24
-13.64
-15.16
-17.11
-19.61
-22.49
-25.38
-27.64
-28.55
-27.54
-24.31
-18.98
-12.16
-4.80
2.09
7.69
11.58
13.77
14.55
14.33
13.47
12.23
10.83
9.48
8.40
7.74
7.57
7.82
8.29
8.80
9.12
9.13
8.70
7.76
6.29
4.31
1.94
-0.59
-3.05
-5.25
-7.12
-8.76
-10.37
-12.24
-14.60
-17.62
-21.27
-25.26
-29.04
-31.78
-32.68
-31.09
-26.86
-20.38
-12.55
-4.45
2.88
8.73
12.78
15.02
15.69
15.17
13.87
12.20
10.55
9.24
8.47
8.31
8.68
9.40
10.24
10.99
11.51
11.78
11.80
11.58
11.04
10.07
8.52
6.34
3.61
0.58
-2.39
-4.99
-7.06
-8.66
-10.14
-11.97
-14.62
-18.29
-22.84
-27.66
-31.82
-34.30
-34.29
-31.41
-25.89
-18.48
-10.22
-2.15
4.91
10.49
14.53
17.13
18.47
18.76
18.19
17.03
15.64
14.45
13.76
13.75
14.39
15.47
16.66
17.65
18.18
18.13
17.56
16.56
15.30
13.88
12.27
10.36
8.07
5.40
2.55
-0.19
-2.61
-4.65
-6.45
-8.31
-10.47
-13.13
-16.37
-20.20
-24.48
-28.91
-32.86
-35.53
-36.05
-33.83
-28.85
-21.68
-13.32
-4.83
2.94
9.56
14.91
18.98
21.78
23.24
23.41
22.47
20.82
19.01
17.55
16.81
16.88
17.61
18.66
19.62
20.14
20.01
19.20
17.89
16.41
15.06
14.01
13.15
12.20
10.79
8.72
5.99
2.82
-0.45
-3.52
-6.30
-8.76
-11.00
-13.15
-15.35
-17.82
-20.79
-24.33
-28.17
-31.64
-33.74
-33.44
-30.14
-23.88
-15.43
-6.01
3.08
10.88
16.89
21.00
23.35
24.15
23.63
22.06
19.92
17.77
16.24
15.73
16.35
17.80
19.59
21.19
22.25
22.68
22.52
21.91
20.92
19.58
17.92
15.99
13.91
11.83
9.83
7.91
5.95
3.83
1.47
-1.09
-3.74
-6.34
-8.77
-11.00
-13.10
-15.22
-17.53
-20.16
-23.04
-25.85
-28.00
-28.77
-27.52
-24.04
-18.60
-11.91
-4.87
1.67
7.23
11.64
14.93
17.16
18.32
18.35
17.33
15.51
13.38
11.51
10.38
10.25
11.05
12.45
14.02
15.33
16.11
16.21
15.69
14.68
13.36
11.92
10.43
8.90
7.23
5.35
3.25
1.04
-1.08
-2.89
-4.31
-5.42
-6.47
-7.86
-9.88
-12.70
-16.20
-20.01
-23.50
-25.94
-26.65
-25.19
-21.53
-15.98
-9.23
-2.07
4.68
10.36
14.54
17.05
17.96
17.48
15.95
13.78
11.42
9.29
7.74
6.98
7.02
7.68
8.65
9.56
10.09
10.14
9.78
9.21
8.57
7.93
7.18
6.11
4.62
2.68
0.44
-1.86
-3.98
-5.81
-7.37
-8.81
-10.41
-12.38
-14.92
-18.08
-21.65
-25.21
-28.08
-29.49
-28.79
-25.69
-20.33
-13.40
-5.86
1.24
7.11
11.36
14.01
15.35
15.73
15.40
14.51
13.21
11.70
10.29
9.28
8.87
9.03
9.52
9.99
10.11
9.75
8.94
7.90
6.90
6.06
5.34
4.48
3.14
1.08
-1.72
-4.94
-8.13
-10.80
-12.72
-13.89
-14.62
-15.31
-16.37
-18.08
-20.57
-23.74
-27.22
-30.37
-32.39
-32.51
-30.28
-25.73
-19.41
-12.16
-4.92
1.61
7.03
11.28
14.40
16.49
17.60
17.79
17.13
15.83
14.25
12.77
11.77
11.42
11.68
12.32
13.01
13.52
13.75
13.72
13.51
13.13
12.46
11.33
9.59
7.21
4.34
1.22
-1.84
-4.59
-6.90
-8.76
-10.30
-11.79
-13.56
-15.97
-19.23
-23.24
-27.55
-31.31
-33.54
-33.44
-30.67
-25.48
-18.58
-10.94
-3.47
3.12
8.43
12.30
14.74
15.93
16.12
15.61
14.67
13.49
12.20
10.92
9.82
9.10
8.89
9.19
9.77
10.27
10.43
10.13
9.51
8.76
7.98
7.11
5.94
4.27
2.12
-0.28
-2.51
-4.21
-5.24
-5.78
-6.26
-7.18
-8.96
-11.75
-15.39
-19.46
-23.32
-26.21
-27.48
-26.63
-23.57
-18.58
-12.33
-5.65
0.62
5.89
9.87
12.52
13.97
14.35
13.81
12.52
10.79
8.98
7.52
6.72
6.70
7.31
8.22
9.08
9.63
9.80
9.66
9.38
9.03
8.58
7.88
6.75
5.13
3.11
0.92
-1.21
-3.11
-4.74
-6.22
-7.72
-9.48
-11.67
-14.35
-17.44
-20.62
-23.29
-24.69
-24.16
-21.40
-16.62
-10.57
-4.25
1.41
5.84
8.92
10.81
11.75
11.92
11.37
10.17
8.47
6.60
4.97
3.93
3.68
4.18
5.26
6.63
7.99
9.06
9.62
9.53
8.79
7.43
5.61
3.47
1.17
-1.09
-3.13
-4.80
-6.11
-7.27
-8.61
-10.52
-13.24
-16.69
-20.40
-23.64
-25.60
-25.66
-23.58
-19.49
-13.83
-7.24
-0.50
5.69
10.70
14.07
15.63
15.48
13.99
11.71
9.24
7.07
5.56
4.89
5.06
5.90
7.08
8.20
8.91
9.02
8.51
7.54
6.25
4.69
2.83
0.66
-1.74
-4.13
-6.26
-7.94
-9.21
-10.35
-11.70
-13.63
-16.31
-19.68
-23.37
-26.81
-29.26
-30.06
-28.73
-25.15
-19.65
-12.87
-5.66
1.12
6.80
11.01
13.66
14.87
14.88
13.92
12.22
10.03
7.74
5.76
4.50
4.18
4.71
5.74
6.81
7.55
7.83
7.70
7.31
6.77
5.99
4.83
3.20
1.11
-1.22
-3.48
-5.41
-6.94
-8.22
-9.65
-11.67
-14.55
-18.30
-22.53
-26.58
-29.62
-30.89
-29.88
-26.47
-20.94
-13.96
-6.43
0.75
6.82
11.34
14.21
15.55
15.67
14.97
13.83
12.66
11.78
11.40
11.55
12.07
12.67
13.11
13.27
13.21
13.04
12.84
12.55
11.97
10.91
9.23
6.96
4.34
1.61
-0.98
-3.29
-5.32
-7.17
-9.04
-11.16
-13.74
-16.86
-20.34
-23.69
-26.15
-26.94
-25.50
-21.74
-16.10
-9.37
-2.43
3.95
9.28
13.33
16.05
17.44
17.61
16.77
15.28
13.56
12.03
10.96
10.47
10.48
10.84
11.34
11.80
12.07
12.08
11.79
11.19
10.24
8.91
7.14
4.97
2.54
0.12
-1.96
-3.50
-4.49
-5.19
-6.05
-7.57
-10.04
-13.45
-17.45
-21.38
-24.48
-26.03
-25.49
-22.69
-17.85
-11.57
-4.61
2.17
8.05
12.51
15.29
16.42
16.11
14.78
12.93
11.04
9.49
8.50
8.15
8.41
9.18
10.34
11.77
13.29
14.69
15.72
16.16
15.87
14.76
12.91
10.53
7.93
5.48
3.38
1.66
0.12
-1.54
-3.64
-6.36
-9.70
-13.45
-17.20
-20.39
-22.34
-22.44
-20.36
-16.22
-10.61
-4.39
1.53
6.51
10.23
12.67
13.89
13.98
13.01
11.07
8.44
5.56
2.96
1.15
0.42
0.71
1.70
2.87
3.75
4.02
3.58
2.51
0.94
-1.02
-3.26
-5.73
-8.28
-10.74
-13.02
-15.15
-17.36
-19.98
-23.29
-27.33
-31.81
-36.07
-39.27
-40.59
-39.47
-35.81
-29.92
-22.55
-14.51
-6.59
0.67
6.92
12.00
15.85
18.45
19.91
20.43
20.34
19.99
19.67
19.50
19.48
19.50
19.43
19.17
18.66
17.84
16.67
15.14
13.24
11.02
8.62
6.19
3.90
1.82
-0.11
-2.04
-4.21
-6.80
-9.94
-13.59
-17.54
-21.42
-24.64
-26.57
-26.63
-24.49
-20.25
-14.42
-7.81
-1.32
4.34
8.75
11.78
13.53
14.18
13.96
13.05
11.66
9.96
8.16
6.49
5.18
4.43
4.32
4.74
5.47
6.19
6.63
6.66
6.24
5.37
4.06
2.32
0.20
-2.16
-4.54
-6.74
-8.67
-10.43
-12.31
-14.65
-17.61
-21.02
-24.31
-26.61
-27.07
-25.09
-20.63
-14.18
-6.59
1.14
8.20
14.07
18.51
21.43
22.86
22.88
21.74
19.81
17.62
15.67
14.29
13.58
13.40
13.52
13.68
13.68
13.47
13.04
12.36
11.50
10.48
9.31
8.00
6.51
4.73
2.56
-0.08
-3.24
-6.94
-11.11
-15.60
-20.08
-24.04
-26.79
-27.69
-26.26
-22.44
-16.62
-9.57
-2.21
4.60
10.20
14.28
16.74
17.68
17.28
15.86
13.74
11.39
9.26
7.74
7.08
7.30
8.22
9.50
10.77
11.67
11.99
11.69
10.82
9.54
7.92
5.99
3.68
0.99
-2.08
-5.39
-8.83
-12.27
-15.68
-18.95
-21.87
-24.03
-24.88
-23.96
-20.97
-15.99
-9.42
-1.96
5.57
12.34
17.72
21.37
23.31
23.81
23.22
21.84
19.81
17.34
14.70
12.37
10.83
10.42
11.02
12.15
13.16
13.56
13.18
12.20
10.94
9.59
8.15
6.52
4.60
2.49
0.28
-1.97
-4.42
-7.36
-10.97
-15.16
-19.33
-22.56
-23.90
-22.80
-19.25
-13.84
-7.51
-1.16
4.49
9.06
12.38
14.36
14.94
14.18
12.30
9.73
7.08
4.94
3.75
3.64
4.48
5.94
7.60
9.05
9.97
10.15
9.51
8.10
6.12
3.83
1.49
-0.69
-2.61
-4.30
-5.89
-7.59
-9.65
-12.19
-15.08
-17.89
-20.00
-20.69
-19.47
-16.22
-11.30
-5.33
0.91
6.75
11.65
15.23
17.30
17.76
16.72
14.46
11.44
8.22
5.36
3.33
2.41
2.65
3.85
5.61
7.37
8.60
8.93
8.25
6.73
4.73
2.69
0.89
-0.59
-1.87
-3.20
-4.86
-7.04
-9.80
-13.02
-16.38
-19.38
-21.35
-21.64
-19.86
-16.01
-10.53
-4.24
1.98
7.38
11.49
14.10
15.22
14.91
13.34
10.83
7.79
4.78
2.35
0.88
0.48
0.99
2.01
3.13
3.95
4.29
4.14
3.66
3.03
2.39
1.71
0.80
-0.52
-2.38
-4.79
-7.64
-10.79
-14.14
-17.53
-20.70
-23.16
-24.25
-23.38
-20.22
-14.95
-8.29
-1.20
5.32
10.60
14.34
16.57
17.49
17.25
15.99
13.90
11.31
8.70
6.59
5.38
5.15
5.67
6.42
6.90
6.69
5.69
4.02
1.97
-0.13
-2.07
-3.78
-5.36
-6.97
-8.78
-10.88
-13.31
-16.03
-18.99
-22.02
-24.75
-26.62
-26.87
-24.88
-20.43
-13.93
-6.28
1.32
7.80
12.53
15.38
16.58
16.55
15.65
14.14
12.20
10.03
7.90
6.16
5.16
5.06
5.73
6.82
7.81
8.30
8.06
7.16
5.82
4.29
2.73
1.16
-0.44
-2.12
-3.90
-5.81
-7.96
-10.52
-13.62
-17.24
-21.05
-24.42
-26.49
-26.46
-23.88
-18.81
-11.91
-4.22
3.13
9.23
13.58
16.10
17.03
16.68
15.47
13.74
11.83
10.07
8.75
8.08
8.14
8.85
9.92
10.93
11.48
11.25
10.14
8.28
5.95
3.50
1.20
-0.80
-2.44
-3.77
-4.91
-6.05
-7.45
-9.39
-12.04
-15.37
-19.01
-22.31
-24.51
-24.86
-22.97
-18.90
-13.10
-6.36
0.45
6.56
11.47
14.90
16.78
17.24
16.48
14.80
12.64
10.45
8.70
7.67
7.44
7.83
8.56
9.24
9.63
9.62
9.19
8.40
7.30
5.90
4.25
2.37
0.36
-1.68
-3.64
-5.50
-7.35
-9.36
-11.75
-14.60
-17.75
-20.80
-23.08
-23.91
-22.80
-19.58
-14.50
-8.13
-1.24
5.35
10.93
14.95
17.15
17.52
16.36
14.12
11.34
8.50
5.98
4.07
2.92
2.61
3.10
4.19
5.53
6.69
7.23
6.90
5.64
3.63
1.23
-1.12
-3.12
-4.61
-5.65
-6.55
-7.64
-9.24
-11.53
-14.45
-17.68
-20.76
-23.08
-24.06
-23.28
-20.59
-16.17
-10.49
-4.22
1.87
7.13
11.11
13.57
14.56
14.28
13.01
11.06
8.75
6.40
4.35
2.91
2.28
2.49
3.31
4.35
5.22
5.58
5.31
4.44
3.08
1.35
-0.68
-2.92
-5.30
-7.69
-9.94
-11.93
-13.65
-15.23
-16.94
-19.01
-21.50
-24.09
-26.10
-26.67
-25.06
-21.05
-15.02
-7.84
-0.62
5.71
10.58
13.82
15.45
15.63
14.56
12.51
9.92
7.28
5.10
3.73
3.27
3.56
4.33
5.25
6.11
6.79
7.19
7.26
6.92
6.12
4.84
3.14
1.13
-1.05
-3.28
-5.45
-7.54
-9.61
-11.78
-14.28
-17.29
-20.81
-24.54
-27.86
-29.93
-29.96
-27.48
-22.56
-15.78
-8.08
-0.50
6.11
11.22
14.64
16.45
16.86
16.14
14.62
12.70
10.80
9.35
8.65
8.81
9.71
11.09
12.60
13.91
14.77
14.98
14.43
13.11
11.13
8.71
6.08
3.43
0.87
-1.59
-4.00
-6.36
-8.66
-10.88
-13.06
-15.37
-17.99
-20.99
-24.17
-27.00
-28.72
-28.59
-26.18
-21.50
-15.06
-7.68
-0.27
6.39
11.75
15.53
17.71
18.47
18.14
17.07
15.64
14.16
12.85
11.91
11.49
11.66
12.34
13.33
14.29
14.87
14.88
14.28
13.21
11.78
10.11
8.16
5.95
3.51
1.03
-1.23
-3.10
-4.57
-5.87
-7.36
-9.47
-12.42
-16.14
-20.25
-24.05
-26.73
-27.54
-26.09
-22.37
-16.81
-10.13
-3.10
3.55
9.31
13.80
16.77
18.08
17.77
16.12
13.65
11.01
8.81
7.45
7.01
7.33
8.10
9.06
10.04
10.97
11.78
12.37
12.59
12.30
11.44
10.02
8.18
6.08
3.92
1.84
-0.08
-1.88
-3.66
-5.58
-7.83
-10.57
-13.85
-17.59
-21.45
-24.88
-27.17
-27.60
-25.68
-21.32
-14.91
-7.25
0.66
7.86
13.64
17.58
19.60
19.83
18.58
16.27
13.42
10.55
8.21
6.76
6.37
6.96
8.21
9.71
11.07
12.04
12.52
12.54
12.12
11.25
9.84
7.83
5.26
2.32
-0.71
-3.54
-6.04
-8.24
-10.27
-12.33
-14.58
-17.17
-20.15
-23.48
-26.83
-29.67
-31.25
-30.88
-28.18
-23.22
-16.52
-8.88
-1.18
5.85
11.69
15.98
18.55
19.37
18.61
16.71
14.24
11.85
10.04
9.07
8.92
9.31
9.90
10.38
10.63
10.69
10.68
10.66
10.53
10.06
8.98
7.18
4.82
2.32
0.27
-0.78
-0.55
0.84
2.88
4.70
5.25
3.53
-1.08
-8.53
-17.88
-27.48
-35.36
-39.83
-40.01
-36.05
-28.95
-20.22
-11.38
-3.65
2.22
5.91
7.44
7.09
5.44
3.24
1.35
0.52
1.23
3.54
7.11
11.36
15.63
19.33
22.11
23.76
24.20
23.41
21.44
18.40
14.61
10.50
6.59
3.27
0.77
-0.93
-2.14
-3.35
-5.10
-7.81
-11.64
-16.39
-21.48
-26.07
-29.34
-30.67
-29.76
-26.71
-21.90
-15.90
-9.30
-2.68
3.45
8.66
12.60
15.11
16.23
16.24
15.54
14.59
13.71
13.02
12.45
11.85
11.12
10.28
9.50
8.97
8.85
9.06
9.38
9.47
9.04
7.89
6.08
3.79
1.32
-1.09
-3.28
-5.23
-7.01
-8.81
-10.90
-13.56
-16.98
-21.17
-25.79
-30.24
-33.72
-35.43
-34.90
-32.04
-27.25
-21.24
-14.82
-8.78
-3.68
0.24
2.91
4.54
5.36
5.66
5.70
5.69
5.76
6.00
6.42
7.03
7.78
8.64
9.58
10.52
11.32
11.76
11.58
10.60
8.81
6.44
3.90
1.59
-0.22
-1.51
-2.49
-3.50
-4.88
-6.87
-9.53
-12.71
-16.04
-18.94
-20.69
-20.62
-18.35
-13.97
-8.02
-1.38
5.08
10.67
15.03
18.04
19.69
20.00
19.10
17.27
14.97
12.77
11.15
10.33
10.27
10.76
11.52
12.33
13.02
13.36
13.19
12.32
10.68
8.34
5.51
2.51
-0.29
-2.60
-4.24
-5.28
-6.00
-6.83
-8.26
-10.60
-13.94
-18.02
-22.31
-26.07
-28.51
-28.89
-26.77
-22.11
-15.38
-7.44
0.65
7.88
13.59
17.49
19.56
19.93
18.84
16.58
13.58
10.36
7.52
5.55
4.70
4.97
6.09
7.63
9.17
10.35
10.92
10.78
9.94
8.50
6.63
4.46
2.16
-0.11
-2.22
-4.08
-5.68
-7.12
-8.71
-10.78
-13.66
-17.34
-21.45
-25.20
-27.60
-27.76
-25.22
-20.09
-13.04
-5.12
2.59
9.19
14.14
17.20
18.48
18.21
16.80
14.71
12.43
10.39
8.93
8.18
8.12
8.57
9.33
10.19
11.01
11.66
12.03
12.01
11.48
10.40
8.78
6.76
4.52
2.25
0.08
-1.93
-3.82
-5.67
-7.70
-10.15
-13.22
-16.92
-20.87
-24.32
-26.33
-26.03
-23.04
-17.60
-10.52
-2.91
4.23
10.26
14.92
18.22
20.25
21.08
20.73
19.39
17.40
15.28
13.56
12.67
12.76
13.71
15.19
16.82
18.29
19.38
19.97
19.92
19.13
17.57
15.28
12.49
9.51
6.69
4.25
2.21
0.40
-1.46
-3.67
-6.46
-9.93
-14.02
-18.40
-22.52
-25.61
-26.87
-25.77
-22.24
-16.80
-10.37
-3.96
1.64
5.99
9.00
10.74
11.28
10.68
9.07
6.75
4.16
1.83
0.23
-0.48
-0.34
0.38
1.39
2.42
3.34
4.12
4.78
5.31
5.66
5.69
5.25
4.21
2.55
0.42
-1.98
-4.45
-6.89
-9.36
-12.00
-14.97
-18.23
-21.47
-24.20
-25.77
-25.57
-23.31
-19.07
-13.33
-6.86
-0.47
5.17
9.68
12.94
15.05
16.17
16.42
15.92
14.81
13.34
11.87
10.78
10.36
10.69
11.63
12.90
14.08
14.73
14.40
12.78
9.73
5.56
0.88
-3.43
-6.58
-8.08
-7.96
-6.59
-4.68
-2.98
-2.23
-3.03
-5.80
-10.53
-16.60
-22.74
-27.31
-28.71
-26.04
-19.38
-9.76
1.23
11.88
20.83
27.27
30.91
31.96
30.92
28.56
25.75
23.29
21.82
21.68
22.77
24.61
26.41
27.24
26.33
23.37
18.65
13.04
7.73
3.82
2.04
2.53
4.89
8.34
11.87
14.31
14.55
11.70
5.40
-3.89
-14.84
-25.51
-33.76
-37.94
-37.20
-31.77
-22.80
-12.07
-1.51
7.17
12.80
14.97
14.00
10.85
6.74
2.90
0.23
-0.89
-0.53
0.92
2.94
5.03
6.79
7.96
8.38
8.07
7.17
5.99
4.84
3.95
3.35
2.85
2.14
0.85
-1.20
-4.01
-7.29
-10.69
-13.80
-16.34
-18.24
-19.55
-20.36
-20.66
-20.30
-19.09
-16.99
-14.15
-11.02
-8.13
-5.85
-4.15
-2.64
-0.75
2.00
5.66
9.80
13.54
15.82
15.83
13.29
8.63
2.98
-2.25
-5.78
-6.96
-5.89
-3.27
-0.09
2.79
4.79
5.68
5.42
4.06
1.76
-1.23
-4.53
-7.78
-10.72
-13.27
-15.51
-17.47
-18.95
-19.54
-18.69
-16.07
-11.72
-6.16
-0.25
5.08
9.13
11.56
12.41
11.96
10.60
8.71
6.64
4.72
3.28
2.60
2.77
3.71
5.10
6.52
7.51
7.73
7.05
5.57
3.57
1.32
-0.95
-3.19
-5.48
-7.97
-10.75
-13.80
-16.96
-20.08
-23.03
-25.70
-28.02
-29.80
-30.70
-30.26
-28.09
-24.06
-18.45
-11.90
-5.25
0.66
5.27
8.35
9.96
10.35
9.87
8.81
7.44
5.94
4.48
3.18
2.19
1.56
1.27
1.15
0.97
0.42
-0.73
-2.52
-4.86
-7.49
-10.17
-12.68
-14.92
-16.82
-18.30
-19.35
-19.96
-20.33
-20.79
-21.72
-23.31
-25.36
-27.20
-27.95
-26.73
-23.14
-17.33
-9.99
-2.10
5.42
11.94
17.10
20.76
22.88
23.44
22.58
20.60
18.07
15.66
14.00
13.55
14.40
16.29
18.71
21.01
22.61
23.17
22.64
21.22
19.25
17.04
14.75
12.50
10.37
8.46
6.86
5.50
4.07
2.07
-0.92
-4.95
-9.51
-13.59
-16.10
-16.23
-13.83
-9.39
-3.82
1.95
7.18
11.43
14.53
16.44
17.17
16.77
15.36
13.15
10.46
7.70
5.27
3.53
2.66
2.67
3.41
4.53
5.65
6.37
6.37
5.45
3.62
1.05
-1.95
-4.97
-7.62
-9.65
-11.03
-11.91
-12.72
-13.90
-15.84
-18.62
-21.94
-25.09
-27.17
-27.35
-25.21
-20.84
-14.84
-8.09
-1.49
4.25
8.56
11.04
11.47
9.82
6.38
1.74
-3.29
-7.95
-11.68
-14.33
-16.08
-17.27
-18.24
-19.18
-20.09
-20.77
-20.95
-20.31
-18.63
-15.96
-12.68
-9.54
-7.42
-7.07
-8.68
-11.87
-15.65
-18.76
-20.13
-19.19
-16.00
-11.04
-5.02
1.43
7.86
13.95
19.48
24.23
28.01
30.72
32.43
33.30
33.49
33.12
32.18
30.67
28.67
26.33
23.87
21.48
19.23
17.06
14.86
12.57
10.17
7.73
5.34
3.08
0.95
-1.08
-3.06
-5.06
-7.17
-9.54
-12.30
-15.48
-18.82
-21.80
-23.66
-23.74
-21.69
-17.67
-12.27
-6.35
-0.70
4.10
7.72
10.08
11.25
11.33
10.48
8.90
6.81
4.49
2.22
0.29
-1.12
-1.96
-2.40
-2.74
-3.29
-4.26
-5.68
-7.37
-9.08
-10.54
-11.62
-12.30
-12.73
-13.16
-13.87
-15.10
-16.92
-19.15
-21.38
-23.03
-23.51
-22.43
-19.64
-15.33
-9.94
-4.08
1.66
6.78
10.94
13.99
15.92
16.81
16.78
15.99
14.69
13.20
11.89
11.03
10.76
10.98
11.38
11.62
11.44
10.81
9.87
8.89
8.04
7.37
6.75
6.01
5.04
3.79
2.27
0.45
-1.73
-4.31
-7.17
-9.91
-12.00
-12.86
-12.15
-9.93
-6.59
-2.74
1.00
4.21
6.67
8.32
9.20
9.36
8.82
7.66
6.06
4.34
2.82
1.79
1.36
1.46
1.90
2.46
3.03
3.56
4.04
4.38
4.35
3.66
2.05
-0.54
-3.90
-7.66
-11.34
-14.60
-17.23
-19.09
-20.06
-19.90
-18.44
-15.61
-11.61
-6.93
-2.15
2.19
5.81
8.65
10.77
12.24
12.99
12.91
11.94
10.21
8.10
6.11
4.74
4.25
4.60
5.46
6.31
6.68
6.31
5.19
3.53
1.55
-0.49
-2.48
-4.40
-6.27
-8.24
-10.52
-13.36
-16.82
-20.62
-24.10
-26.34
-26.54
-24.28
-19.75
-13.62
-6.81
-0.18
5.67
10.41
13.87
16.01
16.81
16.32
14.71
12.25
9.36
6.54
4.23
2.74
2.14
2.23
2.63
2.94
2.87
2.36
1.48
0.41
-0.78
-2.12
-3.68
-5.63
-8.06
-10.99
-14.39
-18.11
-21.82
-25.05
-27.22
-27.77
-26.36
-23.00
-18.05
-12.14
-5.95
-0.08
5.06
9.19
12.16
13.87
14.28
13.45
11.63
9.26
6.94
5.23
4.52
4.84
5.86
7.00
7.66
7.48
6.39
4.68
2.72
0.91
-0.57
-1.70
-2.65
-3.67
-5.04
-7.01
-9.71
-13.01
-16.46
-19.33
-20.79
-20.17
-17.22
-12.20
-5.80
1.10
7.69
13.48
18.26
22.04
24.87
26.79
27.81
28.02
27.58
26.79
25.96
25.35
25.09
25.17
25.45
25.71
25.74
25.41
24.61
23.32
21.53
19.29
16.62
13.53
10.02
6.07
1.69
-3.04
-7.93
-12.66
-16.79
-19.81
-21.26
-20.82
-18.41
-14.16
-8.43
-1.73
5.33
12.10
17.94
22.36
25.11
26.28
26.28
25.75
25.29
25.29
25.92
27.01
28.24
29.12
29.02
27.33
23.61
17.84
10.52
2.54
-5.14
-11.97
-18.01
-23.87
-30.32
-37.77
-46.13
-54.72
-62.63
-69.01
-73.27
-75.08
-74.32
-71.00
-65.32
-57.71
-48.86
-39.64
-30.91
-23.28
-17.10
-12.39
-8.95
-6.50
-4.77
-3.55
-2.61
-1.76
-0.79
0.42
1.89
3.46
4.92
6.05
6.73
6.94
6.78
6.34
5.65
4.73
3.57
2.14
0.38
-1.79
-4.55
-8.02
-12.16
-16.69
-21.06
-24.57
-26.52
-26.43
-24.14
-19.89
-14.25
-7.93
-1.63
4.13
9.07
13.06
16.04
17.91
18.56
17.99
16.39
14.22
12.05
10.45
9.67
9.70
10.24
10.94
11.54
11.90
11.97
11.75
11.19
10.26
8.98
7.37
5.47
3.27
0.72
-2.24
-5.62
-9.37
-13.31
-17.10
-20.23
-22.14
-22.29
-20.31
-16.19
-10.33
-3.47
3.45
9.62
14.45
17.74
19.57
20.21
19.94
19.01
17.59
15.94
14.37
13.23
12.84
13.28
14.32
15.43
16.05
15.73
14.37
12.15
9.45
6.63
3.93
1.44
-0.80
-2.88
-4.89
-7.02
-9.52
-12.60
-16.31
-20.36
-24.08
-26.53
-26.82
-24.43
-19.41
-12.42
-4.50
3.23
9.86
14.90
18.29
20.25
21.06
21.00
20.27
19.09
17.71
16.45
15.64
15.47
15.91
16.69
17.41
17.64
17.09
15.68
13.50
10.74
7.61
4.30
0.98
-2.22
-5.20
-7.91
-10.38
-12.78
-15.35
-18.42
-22.13
-26.31
-30.34
-33.25
-33.94
-31.67
-26.34
-18.59
-9.60
-0.69
7.06
13.13
17.45
20.26
21.85
22.43
22.22
21.41
20.34
19.32
18.63
18.39
18.59
19.07
19.66
20.18
20.53
20.56
20.14
19.17
17.59
15.45
12.91
10.21
7.59
5.20
3.10
1.21
-0.65
-2.73
-5.35
-8.74
-13.01
-17.96
-23.07
-27.45
-30.14
-30.32
-27.65
-22.41
-15.36
-7.58
-0.05
6.56
11.96
16.11
19.06
20.81
21.34
20.74
19.33
17.60
16.11
15.27
15.19
15.69
16.43
17.11
17.56
17.76
17.71
17.39
16.69
15.48
13.71
11.41
8.72
5.84
2.96
0.23
-2.23
-4.43
-6.47
-8.59
-11.09
-14.18
-17.88
-21.91
-25.74
-28.67
-30.01
-29.26
-26.26
-21.19
-14.61
-7.27
0.05
6.67
12.10
16.08
18.55
19.51
19.14
17.74
15.80
13.90
12.53
11.99
12.18
12.76
13.31
13.53
13.39
13.02
12.62
12.23
11.76
10.97
9.68
7.82
5.53
3.05
0.62
-1.62
-3.64
-5.54
-7.52
-9.83
-12.71
-16.24
-20.33
-24.60
-28.44
-31.11
-31.86
-30.20
-26.04
-19.80
-12.30
-4.61
2.35
7.93
11.94
14.56
16.11
16.90
17.07
16.71
15.96
15.05
14.31
14.04
14.31
14.97
15.69
16.15
16.18
15.79
15.11
14.27
13.29
12.08
10.53
8.61
6.33
3.85
1.33
-1.07
-3.24
-5.20
-7.08
-9.12
-11.65
-14.91
-18.99
-23.69
-28.48
-32.58
-35.16
-35.51
-33.25
-28.50
-21.75
-13.81
-5.56
2.18
8.81
13.95
17.43
19.27
19.62
18.81
17.31
15.65
14.34
13.73
13.91
14.76
15.97
17.17
18.04
18.41
18.25
17.66
16.77
15.71
14.49
13.02
11.15
8.83
6.14
3.30
0.60
-1.74
-3.69
-5.36
-6.97
-8.77
-10.92
-13.52
-16.66
-20.33
-24.36
-28.32
-31.56
-33.26
-32.75
-29.72
-24.38
-17.44
-9.84
-2.57
3.63
8.35
11.47
13.08
13.41
12.79
11.60
10.28
9.22
8.68
8.76
9.31
10.06
10.72
11.13
11.25
11.17
11.01
10.82
10.60
10.22
9.50
8.26
6.41
3.99
1.24
-1.54
-4.07
-6.18
-7.94
-9.61
-11.54
-14.04
-17.30
-21.20
-25.29
-28.87
-31.10
-31.28
-29.01
-24.40
-18.06
-10.82
-3.62
2.80
8.03
11.94
14.59
16.12
16.63
16.20
15.00
13.31
11.55
10.19
9.59
9.85
10.74
11.84
12.69
13.05
12.90
12.42
11.81
11.14
10.30
9.09
7.37
5.14
2.57
-0.10
-2.64
-4.96
-7.05
-9.03
-11.00
-13.07
-15.33
-17.86
-20.81
-24.24
-28.02
-31.78
-34.83
-36.33
-35.55
-32.17
-26.43
-19.11
-11.24
-3.83
2.44
7.32
10.84
13.20
14.56
15.07
14.82
14.02
12.94
11.93
11.33
11.32
11.96
13.06
14.34
15.40
15.97
15.93
15.35
14.44
13.39
12.29
11.09
9.69
7.98
5.99
3.82
1.55
-0.76
-3.13
-5.62
-8.23
-10.91
-13.59
-16.29
-19.15
-22.40
-26.21
-30.43
-34.56
-37.64
-38.68
-36.93
-32.26
-25.22
-16.84
-8.33
-0.66
5.63
10.42
13.80
15.94
17.02
17.22
16.76
15.93
15.03
14.27
13.79
13.65
13.82
14.23
14.79
15.35
15.79
16.02
15.93
15.51
14.73
13.60
12.12
10.31
8.25
6.05
3.80
1.56
-0.66
-2.89
-5.16
-7.44
-9.72
-11.99
-14.30
-16.73
-19.41
-22.45
-25.84
-29.44
-32.90
-35.66
-37.03
-36.30
-33.04
-27.28
-19.61
-11.03
-2.71
4.40
9.76
13.28
15.15
15.63
14.96
13.37
11.18
8.81
6.76
5.47
5.18
5.83
7.13
8.65
9.97
10.84
11.16
11.07
10.79
10.51
10.38
10.37
10.37
10.24
9.81
9.00
7.71
5.91
3.61
0.93
-1.99
-4.97
-7.88
-10.76
-13.78
-17.17
-21.09
-25.41
-29.64
-32.98
-34.55
-33.68
-30.19
-24.41
-17.12
-9.25
-1.69
4.91
10.09
13.59
15.36
15.56
14.64
13.21
11.90
11.15
11.12
11.74
12.78
14.01
15.19
16.15
16.74
16.86
16.56
16.05
15.56
15.30
15.21
15.01
14.26
12.66
10.14
7.02
3.82
1.10
-0.84
-2.06
-2.94
-4.02
-5.77
-8.50
-12.31
-17.04
-22.28
-27.38
-31.48
-33.68
-33.35
-30.33
-25.07
-18.53
-11.85
-6.01
-1.55
1.44
3.18
3.97
4.11
3.82
3.35
3.01
3.09
3.76
4.99
6.53
7.95
8.91
9.14
8.69
7.75
6.60
5.44
4.28
2.94
1.18
-1.20
-4.22
-7.66
-11.18
-14.41
-17.09
-19.21
-20.98
-22.68
-24.60
-26.90
-29.61
-32.61
-35.64
-38.21
-39.69
-39.38
-36.74
-31.58
-24.26
-15.62
-6.74
1.34
7.99
13.01
16.57
19.00
20.65
21.78
22.69
23.70
25.15
27.28
30.10
33.35
36.54
39.14
40.75
41.25
40.78
39.63
38.14
36.63
35.32
34.29
33.50
32.73
31.64
29.92
27.33
23.90
19.86
15.58
11.40
7.46
3.64
-0.36
-4.94
-10.36
-16.59
-23.20
-29.42
-34.27
-36.84
-36.54
-33.29
-27.59
-20.36
-12.64
-5.40
0.72
5.38
8.57
10.48
11.40
11.69
11.71
11.77
12.05
12.57
13.14
13.52
13.49
13.03
12.36
11.82
11.74
12.31
13.35
14.48
15.17
15.00
13.76
11.58
8.78
5.82
3.07
0.78
-0.98
-2.34
-3.54
-4.94
-6.87
-9.57
-13.08
-17.08
-20.97
-23.98
-25.34
-24.49
-21.31
-16.13
-9.69
-2.94
3.19
8.03
11.31
13.10
13.74
13.60
13.03
12.24
11.36
10.50
9.74
9.19
8.84
8.67
8.55
8.36
8.00
7.45
6.75
5.95
5.06
4.03
2.75
1.14
-0.79
-2.98
-5.33
-7.73
-10.21
-12.85
-15.74
-18.90
-22.21
-25.38
-28.00
-29.57
-29.62
-27.81
-24.00
-18.46
-11.80
-4.89
1.39
6.42
9.94
12.10
13.23
13.63
13.48
12.85
11.79
10.48
9.18
8.14
7.48
7.10
6.77
6.25
5.44
4.43
3.39
2.46
1.64
0.82
-0.18
-1.40
-2.78
-4.14
-5.34
-6.40
-7.48
-8.91
-10.96
-13.76
-17.25
-21.13
-24.99
-28.29
-30.47
-30.97
-29.43
-25.67
-19.95
-12.86
-5.28
1.87
7.85
12.26
15.11
16.68
17.39
17.62
17.61
17.50
17.33
17.12
16.92
16.81
16.86
17.10
17.47
17.73
17.63
16.92
15.56
13.67
11.52
9.33
7.19
4.96
2.48
-0.30
-3.18
-5.77
-7.72
-8.96
-9.78
-10.77
-12.54
-15.48
-19.52
-24.17
-28.64
-32.08
-33.76
-33.26
-30.46
-25.57
-19.08
-11.64
-3.96
3.31
9.66
14.81
18.67
21.28
22.79
23.32
23.07
22.24
21.14
20.05
19.25
18.90
18.97
19.28
19.55
19.53
19.02
17.97
16.44
14.60
12.64
10.71
8.94
7.37
5.99
4.75
3.52
2.17
0.61
-1.25
-3.43
-5.91
-8.60
-11.39
-14.23
-17.15
-20.34
-24.00
-28.26
-33.00
-37.70
-41.57
-43.71
-43.47
-40.62
-35.54
-28.95
-21.74
-14.62
-8.05
-2.25
2.69
6.71
9.73
11.75
12.87
13.39
13.65
13.98
14.52
15.23
15.95
16.48
16.70
16.63
16.36
15.99
15.62
15.24
14.76
13.97
12.68
10.78
8.37
5.72
3.20
1.05
-0.71
-2.29
-4.07
-6.31
-9.09
-12.20
-15.30
-18.07
-20.35
-22.22
-23.98
-26.06
-28.80
-32.38
-36.59
-40.81
-44.12
-45.54
-44.37
-40.45
-34.18
-26.40
-18.10
-10.10
-2.91
3.31
8.63
13.18
17.03
20.14
22.43
23.85
24.48
24.55
24.39
24.33
24.57
25.08
25.70
26.19
26.37
26.22
25.82
25.28
24.61
23.72
22.41
20.55
18.15
15.39
12.59
10.06
8.01
6.42
5.08
3.65
1.81
-0.57
-3.42
-6.50
-9.52
-12.25
-14.68
-16.98
-19.48
-22.49
-26.27
-30.84
