1520260057.00
64.000000
-0.00
-0.00
-0.00
-0.00
-0.00
-0.00
-0.00
-0.00
-0.00
-0.00
0.00
0.01
0.01
-0.00
-0.03
-0.05
-0.05
0.00
0.13
0.36
0.66
1.01
1.37
1.72
2.06
2.40
2.79
3.24
3.80
4.42
5.06
5.66
6.20
6.68
7.15
7.68
8.31
9.14
10.09
11.04
11.88
12.56
13.14
13.76
14.65
15.96
17.91
20.32
22.90
25.38
27.58
29.57
31.68
34.32
37.81
42.54
48.15
54.10
59.83
64.97
69.58
74.14
79.34
85.71
93.76
103.00
112.62
121.73
129.77
136.75
143.30
150.75
157.77
166.64
177.95
191.79
206.97
220.57
228.25
225.36
208.53
176.87
132.76
80.05
23.07
-34.94
-92.44
-149.16
-205.23
-260.37
-313.74
-363.87
-409.83
-450.91
-486.50
-515.74
-537.23
-549.22
-549.96
-538.37
-514.21
-478.67
-433.88
-382.45
-327.02
-269.84
-212.64
-156.66
-102.95
-52.37
-5.90
35.59
71.44
101.38
125.54
144.44
158.78
169.27
176.52
180.94
182.81
182.36
179.85
175.63
170.11
163.69
156.72
149.45
142.00
134.46
126.87
119.26
111.70
104.25
97.00
89.99
83.25
76.81
70.66
64.83
59.31
54.13
49.29
44.80
40.65
36.83
33.35
30.19
27.35
24.84
22.64
20.74
19.16
17.86
16.85
16.11
15.63
15.40
15.38
15.57
15.95
16.50
17.21
18.06
19.05
20.18
21.44
22.81
24.28
25.80
27.32
28.75
29.99
30.90
31.34
31.18
30.28
28.56
25.99
22.59
18.42
13.63
8.41
2.98
-2.40
-7.50
-12.08
-15.98
-19.08
-21.30
-22.65
-23.17
-22.96
-22.13
-20.79
-19.10
-17.14
-15.01
-12.77
-10.45
-8.09
-5.73
-3.37
-1.01
1.35
3.74
6.17
8.68
11.32
14.04
16.84
19.71
22.66
25.70
28.87
32.20
35.74
39.57
43.58
47.72
51.96
56.30
60.77
65.39
70.22
75.34
80.88
86.62
92.49
98.40
104.34
110.28
116.22
122.20
128.26
134.49
140.58
146.28
151.39
155.65
158.74
160.23
159.44
155.38
149.70
142.89
135.29
127.17
118.75
110.21
101.71
93.33
85.19
77.41
69.79
62.27
54.92
47.87
41.23
35.13
29.59
24.61
20.26
16.28
12.62
9.30
6.40
3.92
1.75
-0.39
-2.90
-6.09
-10.25
-15.35
-21.00
-26.67
-31.94
-36.75
-41.45
-46.68
-53.08
-61.08
-70.52
-80.79
-91.01
-100.63
-109.61
-118.64
-128.82
-141.22
-156.47
-174.44
-194.47
-215.78
-237.84
-260.58
-284.34
-309.60
-336.95
-367.36
-402.16
-442.58
-488.36
-536.33
-579.83
-609.83
-617.69
-598.34
-552.43
-486.10
-408.64
-328.98
-253.18
-183.53
-119.39
-58.92
-0.19
58.75
120.42
187.80
263.16
345.83
430.75
508.81
569.50
604.76
612.32
596.39
565.59
529.14
493.42
460.56
429.41
397.83
364.75
330.68
296.85
263.81
230.70
195.49
156.20
111.99
63.71
13.67
-35.45
-81.72
-124.70
-165.44
-205.93
-248.32
-294.27
-344.56
-398.70
-454.45
-507.74
-553.14
-585.19
-600.29
-597.88
-580.53
-552.46
-517.57
-477.99
-434.08
-385.75
-333.84
-280.72
-229.62
-183.38
-143.43
-109.61
-80.53
-54.25
-28.69
-2.10
26.26
55.22
81.08
98.01
99.67
81.54
42.87
-12.65
-77.83
-143.95
-202.79
-248.17
-276.50
-286.88
-280.73
-261.29
-232.92
-200.24
-167.41
-137.40
-111.72
-90.39
-72.36
-55.98
-39.57
-21.85
-2.17
19.25
41.43
62.88
82.03
97.63
109.16
116.85
121.52
124.06
125.10
124.95
123.77
121.86
119.74
117.91
116.43
114.57
110.97
104.05
92.73
76.87
57.49
36.55
16.65
0.53
-9.32
-11.26
-4.85
9.00
28.29
50.65
74.11
97.75
121.71
146.67
172.96
199.81
225.15
246.09
259.94
265.23
262.21
252.81
239.79
225.80
212.69
201.20
191.27
182.49
174.47
166.88
159.43
151.69
143.15
133.42
122.39
110.35
97.85
85.30
72.64
59.18
43.78
25.51
4.41
-17.95
-38.56
-53.60
-59.63
-54.70
-39.04
-14.93
13.95
43.67
70.98
93.84
111.51
124.10
132.20
136.43
137.27
135.10
130.34
123.53
115.41
106.80
98.47
90.97
84.54
79.03
74.02
69.04
63.70
57.80
51.36
44.51
37.36
29.97
22.27
14.08
5.06
-5.34
-17.76
-32.55
-49.21
-65.98
-79.78
-86.93
-84.28
-70.41
-46.28
-14.99
19.10
51.60
79.11
99.76
113.20
120.28
122.53
121.66
119.00
115.19
110.16
103.54
95.16
85.58
76.02
67.96
62.37
59.05
56.73
53.66
48.62
41.64
34.03
27.43
22.65
18.56
12.12
-0.59
-22.74
-55.20
-95.84
-139.91
-181.31
-214.10
-233.82
-238.16
-227.03
-202.27
-167.11
-125.52
-81.57
-38.86
-0.06
33.21
60.45
81.89
98.23
110.18
118.22
122.46
122.73
118.91
111.23
100.61
88.58
76.98
67.46
61.03
57.74
56.84
57.04
57.03
55.88
53.31
49.67
45.75
42.44
40.29
39.23
38.52
36.96
33.38
27.46
20.28
14.54
14.27
23.65
45.59
80.23
124.06
170.45
211.26
239.29
250.44
244.69
225.62
198.58
168.64
139.21
111.74
86.37
62.85
40.97
20.31
-0.16
-22.18
-47.56
-77.05
-109.46
-141.68
-169.61
-189.54
-199.38
-199.00
-189.75
-173.80
-153.67
-132.22
-112.73
-98.69
-92.92
-96.73
-109.33
-128.12
-149.62
-170.48
-188.04
-200.33
-205.78
-203.26
-192.43
-174.18
-150.66
-124.74
-98.83
-74.17
-50.55
-27.10
-3.13
20.95
43.52
62.13
74.20
77.86
72.56
59.38
40.83
20.24
0.78
-15.64
-28.91
-40.66
-53.19
-68.19
-85.57
-103.29
-118.20
-127.46
-129.95
-126.98
-121.89
-118.88
-121.49
-131.34
-147.59
-167.16
-185.59
-198.22
-201.43
-193.56
-175.09
-148.35
-116.52
-82.60
-48.55
-14.89
19.13
55.16
94.98
139.58
188.24
238.18
284.89
323.45
350.23
364.30
367.73
364.47
358.50
352.13
345.43
336.88
324.89
308.95
290.10
270.32
251.38
234.01
217.64
200.88
182.37
161.55
138.94
115.73
93.10
71.47
50.33
28.58
5.29
-19.80
-46.08
-72.44
-97.79
-121.37
-142.78
-161.81
-178.12
-191.21
-200.48
-205.43
-205.76
-201.50
-192.98
-180.83
-165.94
-149.34
-132.09
-115.16
-99.39
-85.48
-73.98
-65.13
-58.73
-54.12
-50.45
-47.12
-44.10
-41.94
-41.48
-43.33
-47.51
-53.43
-60.23
-67.18
-73.87
-80.08
-85.54
-89.67
-91.69
-91.16
-88.41
-84.92
-83.04
-85.15
-92.46
-104.06
-116.74
-125.64
-125.85
-114.08
-89.83
-55.56
-15.85
23.98
59.21
86.62
104.83
114.02
115.75
112.55
107.46
103.55
103.03
106.63
113.21
120.14
124.24
123.06
115.85
103.78
89.39
75.49
64.22
56.51
52.34
51.22
52.63
56.13
61.04
66.26
70.28
71.70
69.96
65.73
60.80
57.47
57.62
62.05
70.22
80.54
90.83
98.73
102.10
99.33
89.55
72.85
50.32
23.93
-3.89
-30.49
-53.50
-71.05
-82.17
-87.01
-86.92
-84.24
-81.58
-81.05
-83.56
-88.67
-94.95
-100.73
-104.77
-106.62
-106.57
-105.22
-103.16
-100.80
-98.28
-95.69
-93.12
-90.73
-88.72
-87.16
-85.98
-84.98
-83.89
-82.55
-80.95
-79.17
-77.25
-75.09
-72.44
-69.04
-64.76
-59.71
-54.26
-48.80
-43.72
-39.27
-35.54
-32.60
-30.45
-29.04
-28.25
-27.86
-27.67
-27.46
-27.10
-26.55
-25.81
-24.93
-23.99
-23.08
-22.30
-21.74
-21.47
-21.44
-21.65
-22.01
-22.49
-23.01
-23.55
-24.04
-24.43
-24.75
-25.09
-25.62
-26.58
-28.11
-30.12
-32.23
-33.75
-33.98
-32.44
-29.13
-24.62
-19.79
-15.48
-12.16
-9.85
-8.21
-6.89
-5.74
-4.81
-4.30
-4.26
-4.58
-5.00
-5.30
-5.38
-5.31
-5.28
-5.44
-5.87
-6.55
-7.36
-8.22
-9.07
-9.87
-10.62
-11.39
-12.25
-13.29
-14.57
-16.08
-17.70
-19.28
-20.72
-22.04
-23.39
-24.95
-26.81
-28.78
-30.36
-30.97
-30.07
-27.54
-23.69
-19.16
-14.65
-10.66
-7.31
-4.44
-1.85
0.53
2.55
3.92
4.46
4.20
3.48
2.75
2.33
2.31
2.50
2.61
2.40
1.84
1.06
0.27
-0.42
-1.07
-1.82
-2.86
-4.26
-5.97
-7.82
-9.67
-11.49
-13.33
-15.43
-18.01
-21.22
-25.04
-29.23
-33.39
-37.02
-39.67
-41.03
-40.98
-39.64
-37.27
-34.22
-30.85
-27.48
-24.35
-21.55
-19.15
-17.14
-15.54
-14.40
-13.73
-13.55
-13.80
-14.36
-15.09
-15.89
-16.72
-17.49
-18.11
-18.40
-18.10
-16.99
-15.05
-12.55
-10.11
-8.55
-8.66
-10.88
-15.08
-20.61
-26.37
-31.28
-34.54
-35.95
-35.88
-35.02
-34.14
-33.70
-33.85
-34.29
-34.45
-33.63
-31.14
-26.52
-19.58
-10.47
0.31
12.04
23.86
34.88
44.39
51.97
57.49
61.13
63.29
64.44
64.99
65.26
65.40
65.43
65.25
64.76
63.82
62.37
60.52
58.48
56.49
54.69
53.01
51.12
48.54
44.85
39.75
33.21
25.44
16.86
8.15
0.15
-6.11
-9.73
-10.17
-7.55
-2.63
3.51
9.75
15.39
20.20
24.29
27.79
30.71
32.83
33.88
33.74
32.58
30.75
28.74
26.90
25.41
24.30
23.43
22.66
21.88
21.01
20.10
19.22
18.40
17.64
16.81
15.74
14.19
12.02
9.28
6.14
2.92
-0.10
-2.78
-5.19
-7.66
-10.57
-14.26
-18.85
-24.17
-29.77
-35.00
-39.18
-41.71
-42.24
-40.76
-37.60
-33.32
-28.57
-23.92
-19.61
-15.69
-12.02
-8.41
-4.86
-1.54
1.27
3.28
4.44
4.90
5.00
5.04
5.21
5.39
5.41
5.07
4.38
3.58
3.07
3.19
4.07
5.55
7.20
8.53
9.22
9.20
8.71
8.14
7.86
8.11
8.93
10.21
11.79
13.45
14.97
16.02
16.31
15.72
14.46
13.04
12.17
12.41
13.98
16.59
19.68
22.66
25.18
27.18
28.74
29.79
30.01
28.73
25.27
19.18
10.49
-0.21
-11.97
-23.75
-34.63
-43.95
-51.34
-56.59
-59.56
-60.16
-58.38
-54.31
-48.18
-40.47
-31.81
-22.97
-14.69
-7.43
-1.18
4.56
10.73
18.16
27.23
37.64
48.37
58.16
65.96
71.33
74.54
76.47
78.24
80.81
84.79
90.21
96.60
103.10
108.72
112.63
114.35
113.86
111.50
107.87
103.57
99.13
94.79
90.43
85.49
78.95
69.73
57.08
41.11
23.01
4.72
-11.62
-24.53
-33.55
-39.23
-42.71
-45.09
-47.03
-48.86
-50.63
-52.44
-54.55
-57.16
-60.21
-63.37
-66.10
-67.94
-68.79
-69.05
-69.40
-70.57
-73.03
-76.72
-81.07
-85.22
-88.25
-89.45
-88.59
-85.86
-81.87
-77.46
-73.42
-70.30
-68.30
-67.24
-66.74
-66.42
-66.08
-65.75
-65.53
-65.52
-65.78
-66.28
-67.04
-68.03
-69.08
-69.67
-68.97
-65.96
-59.78
-50.14
-37.35
-22.35
-6.32
9.57
24.41
37.56
48.57
57.23
63.53
67.71
70.21
71.52
72.03
71.85
70.95
69.18
66.53
63.20
59.68
56.54
54.30
53.19
53.05
53.43
53.71
53.40
52.25
50.37
48.01
45.48
42.98
40.58
38.34
36.31
34.60
33.23
32.11
30.93
29.38
27.30
24.81
22.37
20.56
19.92
20.64
22.44
24.59
26.18
26.42
24.95
22.08
18.53
15.25
12.94
11.80
11.52
11.41
10.71
8.91
5.94
2.22
-1.45
-4.03
-4.64
-2.77
1.40
6.81
11.68
13.77
11.01
2.20
-12.49
-31.31
-51.37
-69.41
-82.83
-90.43
-92.56
-90.63
-86.35
-81.05
-75.22
-68.80
-61.46
-53.11
-43.98
-34.53
-25.28
-16.54
-8.40
-0.83
6.19
12.59
18.17
22.70
26.10
28.49
30.20
31.57
32.81
33.84
34.31
33.78
31.97
29.01
25.41
22.00
19.50
18.29
18.27
18.92
19.61
19.87
19.60
19.00
18.41
18.10
18.17
18.60
19.27
20.14
21.24
22.59
24.23
26.05
27.90
29.61
31.06
32.24
33.19
34.04
34.95
36.05
37.36
38.77
39.97
40.52
39.94
37.80
33.92
28.46
21.82
14.65
7.52
0.83
-5.26
-10.86
-16.09
-21.00
-25.49
-29.34
-32.34
-34.40
-35.60
-36.08
-36.03
-35.58
-34.83
-33.86
-32.81
-31.79
-30.93
-30.31
-29.94
-29.73
-29.55
-29.17
-28.45
-27.31
-25.84
-24.27
-22.84
-21.70
-20.93
-20.48
-20.25
-20.20
-20.37
-20.76
-21.31
-21.81
-22.01
-21.66
-20.72
-19.37
-17.88
-16.53
-15.42
-14.48
-13.50
-12.26
-10.67
-8.79
-6.76
-4.76
-2.91
-1.24
0.32
1.87
3.48
5.13
6.70
7.98
8.79
9.02
8.76
8.21
7.66
7.31
7.20
7.23
7.19
6.95
6.51
6.09
5.93
6.22
6.91
7.73
8.24
8.05
6.92
4.93
2.42
-0.14
-2.30
-3.77
-4.57
-5.00
-5.60
-7.00
-9.80
-14.22
-20.02
-26.40
-32.09
-35.78
-36.51
-34.03
-28.90
-22.18
-15.04
-8.44
-2.85
1.57
4.88
7.14
8.41
8.78
8.51
7.91
7.25
6.59
5.78
4.59
2.97
1.23
0.01
0.06
1.97
5.85
11.17
16.98
22.11
25.47
26.38
24.65
20.56
14.79
8.19
1.60
-4.30
-9.23
-13.20
-16.57
-19.73
-22.90
-25.98
-28.52
-29.95
-29.91
-28.39
-25.82
-22.85
-20.07
-17.77
-15.96
-14.47
-13.25
-12.49
-12.61
-14.01
-16.74
-20.50
-24.63
-28.44
-31.54
-34.06
-36.60
-39.93
-44.62
-50.77
-57.97
-65.46
-72.49
-78.76
-84.55
-90.69
-98.18
-107.82
-119.83
-133.71
-148.58
-163.47
-177.81
-191.58
-205.28
-219.73
-235.95
-255.05
-277.99
-305.03
-334.98
-364.75
-389.71
-404.98
-407.09
-395.45
-372.53
-342.85
-311.14
-280.82
-253.32
-228.52
-205.83
-184.95
-166.04
-149.38
-134.78
-121.55
-108.67
-95.34
-81.42
-67.39
-54.10
-42.29
-32.29
-23.83
-16.28
-8.91
-1.22
6.89
15.22
23.31
30.84
37.63
43.76
49.46
54.94
60.45
66.11
72.07
78.49
85.52
93.20
101.39
109.81
118.13
126.11
133.83
141.69
150.30
160.22
171.66
184.39
197.83
211.25
224.20
236.62
248.89
261.76
276.20
293.35
314.22
339.17
367.19
395.43
419.49
434.57
437.16
426.37
404.36
375.39
344.17
314.29
287.53
264.06
243.33
224.82
208.27
193.44
179.82
166.52
152.59
137.46
121.21
104.58
88.71
74.68
63.12
53.98
46.58
39.98
33.32
26.24
18.97
12.11
6.22
1.48
-2.39
-5.86
-9.19
-12.18
-14.28
-14.84
-13.62
-10.98
-7.59
-4.21
-1.30
1.10
3.17
5.09
6.79
8.01
8.46
8.12
7.19
6.10
5.16
4.49
3.97
3.43
2.81
2.17
1.74
1.65
1.87
2.21
2.46
2.46
2.27
2.06
1.98
2.09
2.25
2.24
1.86
1.00
-0.21
-1.53
-2.67
-3.44
-3.86
-4.16
-4.67
-5.74
-7.63
-10.34
-13.72
-17.39
-20.85
-23.52
-24.87
-24.58
-22.60
-19.22
-15.02
-10.61
-6.58
-3.22
-0.60
1.39
2.95
4.23
5.25
5.98
6.36
6.37
6.07
5.58
5.00
4.43
3.91
3.51
3.32
3.43
3.87
4.62
5.50
6.32
6.90
7.18
7.19
7.04
6.83
6.59
6.31
5.89
5.24
4.27
2.94
1.28
-0.63
-2.59
-4.41
-5.90
-7.03
-7.88
-8.67
-9.61
-10.92
-12.69
-14.86
-17.30
-19.72
-21.77
-23.03
-23.06
-21.56
-18.48
-14.12
-9.08
-4.12
0.06
3.05
4.81
5.59
5.82
5.80
5.69
5.48
5.10
4.57
4.01
3.62
3.51
3.61
3.77
3.80
3.69
3.60
3.81
4.53
5.73
7.11
8.22
8.68
8.28
7.14
5.61
4.04
2.71
1.73
1.03
0.43
-0.22
-1.07
-2.17
-3.53
-5.10
-6.74
-8.31
-9.64
-10.62
-11.27
-11.77
-12.42
-13.60
-15.50
-18.01
-20.71
-22.96
-24.15
-23.88
-22.17
-19.34
-15.89
-12.31
-8.94
-5.97
-3.47
-1.49
-0.05
0.84
1.24
1.25
0.99
0.52
-0.13
-0.95
-1.90
-2.80
-3.40
-3.47
-2.90
-1.76
-0.31
1.07
2.08
2.62
2.80
2.88
3.14
3.66
4.25
4.66
4.66
4.29
3.81
3.58
3.75
4.18
4.41
3.96
2.52
0.13
-2.89
-6.17
-9.42
-12.54
-15.51
-18.30
-20.80
-22.85
-24.33
-25.27
-25.77
-25.95
-25.80
-25.13
-23.72
-21.37
-18.16
-14.46
-10.83
-7.83
-5.84
-4.93
-4.91
-5.38
-5.85
-5.84
-4.83
-2.32
2.03
8.29
16.02
24.41
32.47
39.35
44.63
48.42
51.16
53.34
55.19
56.57
57.02
56.07
53.52
49.57
44.75
39.70
34.85
30.29
25.81
21.08
15.95
10.59
5.43
0.98
-2.48
-4.95
-6.75
-8.31
-9.94
-11.85
-14.00
-16.34
-18.83
-21.43
-24.11
-26.76
-29.23
-31.34
-32.96
-33.99
-34.45
-34.38
-33.92
-33.22
-32.50
-31.93
-31.60
-31.54
-31.73
-32.16
-32.74
-33.27
-33.37
-32.45
-29.97
-25.71
-20.03
-13.84
-8.32
-4.53
-2.93
-3.32
-4.92
-6.66
-7.56
-7.08
-5.23
-2.54
0.00
1.32
0.52
-2.81
-8.50
-15.68
-23.07
-29.25
-33.02
-33.76
-31.53
-27.14
-21.82
-16.92
-13.50
-12.09
-12.61
-14.32
-16.09
-16.67
-15.02
-10.58
-3.46
5.66
15.74
25.64
34.40
41.22
45.42
46.45
43.94
38.04
29.61
20.22
11.72
5.57
2.19
0.82
-0.21
-2.62
-7.57
-15.07
-24.11
-33.14
-40.64
-45.67
-47.88
-47.42
-44.74
-40.39
-35.07
-29.58
-24.70
-21.03
-18.73
-17.42
-16.30
-14.50
-11.45
-7.18
-2.36
2.04
5.22
6.96
7.68
8.19
9.15
10.69
12.34
13.29
12.88
10.95
7.80
3.98
-0.02
-3.94
-7.55
-10.50
-12.21
-12.00
-9.50
-4.84
1.24
7.78
13.99
19.65
25.23
31.53
39.20
48.38
58.43
68.20
76.41
82.13
85.04
85.42
83.88
81.10
77.77
74.50
71.85
70.12
69.01
67.31
63.06
54.20
39.51
19.46
-3.63
-26.23
-44.87
-57.31
-63.17
-63.73
-61.07
-57.18
-53.38
-50.35
-48.36
-47.60
-48.34
-50.73
-54.67
-59.65
-64.87
-69.40
-72.47
-73.57
-72.49
-69.24
-63.97
-56.84
-48.11
-38.11
-27.30
-16.31
-5.91
3.14
10.21
15.03
17.76
18.96
19.34
19.46
19.51
19.25
18.20
15.99
12.64
8.61
4.62
1.24
-1.30
-3.20
-4.90
-6.78
-8.97
-11.36
-13.64
-15.44
-16.51
-16.66
-15.79
-13.90
-11.07
-7.53
-3.65
0.17
3.61
6.48
8.80
10.73
12.52
14.39
16.52
18.88
21.37
23.75
25.80
27.29
28.10
28.18
27.64
26.74
25.85
25.28
25.19
25.45
25.68
25.38
24.11
21.71
18.31
14.31
10.17
6.23
2.63
-0.69
-3.88
-7.06
-10.27
-13.52
-16.91
-20.57
-24.66
-29.09
-33.40
-36.89
-38.79
-38.70
-36.79
-33.68
-30.17
-26.85
-23.92
-21.27
-18.77
-16.47
-14.61
-13.49
-13.23
-13.67
-14.37
-14.82
-14.62
-13.66
-12.12
-10.29
-8.54
-7.04
-5.79
-4.60
-3.23
-1.54
0.51
2.82
5.24
7.63
9.88
11.80
13.09
13.42
12.50
10.28
7.06
3.44
0.06
-2.56
-4.27
-5.33
-6.11
-6.95
-7.90
-8.76
-9.14
-8.72
-7.31
-4.90
-1.61
2.31
6.41
9.91
11.79
11.09
7.29
0.71
-7.51
-15.74
-22.51
-26.98
-29.12
-29.58
-29.20
-28.69
-28.42
-28.49
-28.86
-29.44
-30.17
-30.92
-31.51
-31.72
-31.33
-30.19
-28.24
-25.48
-21.95
-17.62
-12.48
-6.40
0.65
8.54
16.95
25.35
33.14
39.82
45.11
49.04
51.77
53.59
54.73
55.33
55.46
55.02
53.94
52.09
49.54
46.59
43.73
41.57
40.62
40.96
42.32
44.08
45.55
46.27
46.00
44.80
42.88
40.44
37.67
34.66
31.48
28.13
24.63
21.08
17.66
14.69
12.42
11.01
10.30
9.92
9.48
8.75
7.85
7.12
6.89
7.20
7.79
8.19
8.09
7.43
6.44
5.41
4.48
3.47
2.00
-0.28
-3.56
-7.71
-12.47
-17.53
-22.68
-27.78
-32.66
-37.03
-40.51
-42.74
-43.55
-43.15
-42.06
-40.92
-40.31
-40.56
-41.70
-43.52
-45.67
-47.90
-50.06
-52.21
-54.53
-57.27
-60.48
-63.94
-67.10
-69.23
-69.61
-67.73
-63.48
-57.10
-49.10
-40.03
-30.38
-20.51
-10.68
-1.05
8.18
16.74
24.30
30.52
35.16
38.19
39.78
40.30
40.12
39.45
38.34
36.71
34.54
31.95
29.19
26.50
24.01
21.73
19.59
17.69
16.34
15.92
16.72
18.70
21.49
24.46
27.07
29.05
30.52
31.79
33.15
34.61
35.93
36.69
36.57
35.57
33.94
32.11
30.46
29.17
28.25
27.53
26.80
25.84
24.50
22.61
20.05
16.74
12.78
8.36
3.77
-0.66
-4.67
-8.01
-10.54
-12.15
-12.89
-12.90
-12.50
-12.05
-11.81
-11.91
-12.28
-12.81
-13.42
-14.28
-15.65
-17.85
-21.00
-24.95
-29.24
-33.33
-36.69
-38.95
-39.96
-39.76
-38.48
-36.39
-33.79
-31.05
-28.55
-26.57
-25.24
-24.54
-24.35
-24.52
-24.92
-25.43
-25.85
-25.90
-25.24
-23.58
-20.75
-16.76
-11.78
-6.16
-0.37
5.10
9.79
13.43
16.01
17.70
18.82
19.62
20.22
20.58
20.67
20.48
20.15
19.88
19.76
19.71
19.40
18.39
16.26
12.86
8.45
3.69
-0.47
-3.11
-3.67
-2.14
0.96
4.93
9.16
13.50
18.19
23.66
30.15
37.46
45.06
52.24
58.47
63.43
67.00
69.10
69.61
68.39
65.54
61.39
56.47
51.30
46.13
41.00
35.87
30.84
26.35
22.98
21.24
21.24
22.62
24.70
26.84
28.72
30.39
32.22
34.51
37.29
40.09
42.04
42.02
39.20
33.30
24.85
15.17
5.87
-1.62
-6.54
-9.02
-9.93
-10.48
-11.70
-14.18
-17.95
-22.60
-27.47
-31.84
-35.17
-37.13
-37.68
-37.00
-35.41
-33.19
-30.55
-27.55
-24.22
-20.66
-17.18
-14.26
-12.38
-11.88
-12.91
-15.38
-19.13
-23.88
-29.39
-35.27
-40.96
-45.80
-49.14
-50.53
-49.94
-47.71
-44.53
-41.22
-38.44
-36.64
-35.90
-36.06
-36.72
-37.47
-37.96
-38.00
-37.56
-36.81
-35.99
-35.39
-35.23
-35.63
-36.57
-37.91
-39.42
-40.86
-42.07
-42.95
-43.52
-43.89
-44.17
-44.44
-44.75
-45.06
-45.42
-45.92
-46.85
-48.52
-51.14
-54.68
-58.65
-62.23
-64.47
-64.67
-62.65
-58.73
-53.65
-48.21
-43.06
-38.51
-34.61
-31.19
-27.97
-24.60
-20.71
-15.98
-10.21
-3.46
3.89
11.24
18.00
23.79
28.60
32.72
36.54
40.34
44.16
47.85
51.22
54.24
57.02
59.80
62.71
65.69
68.50
70.85
72.61
73.95
75.29
77.16
80.00
83.95
88.80
94.10
99.13
103.02
104.71
103.08
97.18
86.70
72.28
55.63
38.94
24.27
12.90
5.00
-0.05
-3.03
-4.46
-4.40
-2.72
0.50
4.70
8.96
12.40
14.58
15.70
16.35
17.23
18.71
20.69
22.67
24.04
24.34
23.50
21.76
19.49
16.92
14.01
10.50
6.14
0.84
-5.14
-11.17
-16.43
-20.11
-21.64
-20.90
-18.29
-14.67
-11.24
-9.31
-9.94
-13.80
-20.83
-30.36
-41.28
-52.45
-63.11
-73.15
-82.96
-93.14
-104.02
-115.38
-126.40
-135.93
-142.78
-146.10
-145.56
-141.29
-133.84
-124.02
-112.67
-100.64
-88.59
-76.95
-65.93
-55.51
-45.55
-35.91
-26.46
-17.20
-8.36
-0.23
6.89
12.87
17.77
21.87
25.50
28.95
32.33
35.57
38.52
41.05
43.12
44.82
46.27
47.56
48.73
49.78
50.73
51.66
52.68
53.91
55.52
57.55
59.99
62.71
65.47
67.98
70.09
71.81
73.35
75.04
77.05
79.32
81.39
82.61
82.21
79.63
74.62
67.42
58.70
49.35
40.27
32.00
24.70
18.12
11.94
5.97
0.29
-4.76
-8.86
-11.86
-13.93
-15.31
-16.28
-16.97
-17.45
-17.84
-18.37
-19.29
-20.69
-22.37
-23.75
-24.09
-22.77
-19.53
-14.62
-8.61
-2.24
3.91
9.39
13.96
17.41
19.53
20.16
19.29
17.11
14.02
10.44
6.65
2.68
-1.50
-5.94
-10.43
-14.64
-18.11
-20.53
-21.81
-22.05
-21.58
-20.75
-19.94
-19.43
-19.43
-19.90
-20.60
-21.18
-21.33
-20.90
-19.99
-18.86
-17.84
-17.14
-16.84
-16.87
-17.08
-17.28
-17.25
-16.81
-15.83
-14.31
-12.31
-10.01
-7.59
-5.26
-3.19
-1.55
-0.50
-0.13
-0.51
-1.71
-3.75
-6.59
-10.05
-13.81
-17.45
-20.60
-23.02
-24.72
-25.88
-26.74
-27.45
-28.05
-28.45
-28.48
-27.99
-26.99
-25.60
-24.06
-22.70
-21.77
-21.43
-21.63
-22.25
-23.14
-24.29
-25.86
-28.10
-31.19
-35.06
-39.35
-43.48
-46.94
-49.45
-51.08
-52.12
-52.90
-53.59
-54.16
-54.47
-54.44
-54.18
-53.98
-54.17
-54.93
-56.22
-57.89
-59.68
-61.41
-62.85
-63.74
-63.66
-62.17
-58.90
-53.72
-46.92
-39.06
-30.92
-23.18
-16.34
-10.49
-5.31
-0.15
5.90
13.68
23.72
35.89
49.39
62.86
74.84
84.16
90.34
93.66
94.97
95.40
95.90
97.08
99.19
102.20
105.93
110.22
114.84
119.49
123.81
127.38
129.96
131.53
132.36
132.86
133.27
133.48
132.86
130.58
125.91
118.68
109.47
99.35
89.49
80.53
72.35
64.22
55.23
44.83
33.13
20.77
8.61
-2.71
-12.85
-21.75
-29.44
-35.85
-40.90
-44.61
-47.22
-49.18
-50.94
-52.79
-54.73
-56.56
-58.04
-59.09
-59.83
-60.51
-61.32
-62.20
-62.83
-62.71
-61.49
-59.19
-56.29
-53.62
-52.03
-52.03
-53.49
-55.63
-57.28
-57.29
-54.94
-50.09
-43.22
-35.22
-27.06
-19.65
-13.57
-9.20
-6.54
-5.45
-5.57
-6.51
-7.86
-9.32
-10.65
-11.67
-12.25
-12.38
-12.20
-11.99
-12.04
-12.55
-13.50
-14.61
-15.48
-15.72
-15.14
-13.78
-11.77
-9.28
-6.37
-3.04
0.69
4.67
8.65
12.36
15.57
18.19
20.21
21.70
22.71
23.22
23.10
22.27
20.67
18.42
15.85
13.36
11.39
10.21
9.84
9.98
10.15
9.86
8.76
6.81
4.17
1.11
-2.19
-5.61
-9.12
-12.75
-16.44
-20.24
-24.22
-28.49
-33.17
-38.14
-43.16
-47.89
-52.11
-55.87
-59.49
-63.34
-67.67
-72.30
-76.68
-79.94
-81.22
-79.96
-76.19
-70.58
-64.21
-58.24
-53.50
-50.18
-47.88
-45.87
-43.52
-40.63
-37.51
-34.67
-32.56
-31.27
-30.44
-29.55
-28.05
-25.66
-22.41
-18.56
-14.40
-10.20
-6.07
-2.00
2.12
6.42
11.11
16.40
22.47
29.37
36.96
44.92
52.74
59.84
65.70
69.91
72.26
72.69
71.37
68.65
64.99
61.00
57.16
53.81
50.98
48.41
45.74
42.57
38.84
34.70
30.60
27.07
24.54
23.19
22.93
23.47
24.50
25.80
27.29
28.93
30.69
32.48
34.16
35.58
36.64
37.31
37.67
37.93
38.41
39.50
41.48
44.40
48.01
51.92
55.72
59.25
62.62
66.18
70.29
75.05
80.21
85.06
88.60
89.76
87.75
82.22
73.41
62.09
49.26
35.93
22.95
10.97
0.42
-8.36
-15.21
-20.24
-23.85
-26.63
-29.16
-31.76
-34.39
-36.80
-38.68
-39.95
-40.76
-41.35
-41.89
-42.27
-42.23
-41.41
-39.59
-36.75
-32.99
-28.39
-23.00
-16.91
-10.27
-3.45
3.15
9.12
14.18
18.11
20.73
21.94
21.66
20.01
17.33
14.18
11.10
8.57
6.83
5.91
5.71
5.97
6.38
6.54
6.18
5.24
3.97
2.82
2.11
1.85
1.83
1.72
1.35
0.84
0.43
0.18
-0.07
-0.74
-2.16
-4.31
-6.82
-9.19
-11.19
-12.96
-14.90
-17.28
-20.06
-22.77
-24.83
-25.87
-25.85
-25.02
-23.72
-22.19
-20.52
-18.80
-17.25
-16.26
-16.28
-17.49
-19.76
-22.59
-25.43
-27.81
-29.54
-30.71
-31.51
-32.18
-32.79
-33.34
-33.87
-34.46
-35.28
-36.52
-38.27
-40.40
-42.63
-44.64
-46.25
-47.57
-49.06
-51.37
-55.12
-60.55
-67.38
-74.87
-82.01
-87.91
-92.07
-94.52
-95.73
-96.31
-96.81
-97.35
-97.72
-97.38
-95.66
-91.98
-86.01
-77.87
-68.13
-57.73
-47.78
-39.17
-32.22
-26.52
-21.03
-14.59
-6.38
3.62
14.68
25.71
35.79
44.54
52.23
59.46
66.81
74.51
82.39
90.03
96.98
102.91
107.65
111.16
113.48
114.75
115.21
115.23
115.20
115.47
116.35
118.03
120.70
124.40
129.04
134.20
139.21
143.09
144.88
143.75
139.20
131.16
120.05
106.67
92.08
77.32
63.19
50.06
37.87
26.29
15.00
3.90
-6.80
-16.70
-25.43
-32.80
-38.92
-44.03
-48.41
-52.13
-55.06
-56.93
-57.50
-56.73
-54.94
-52.68
-50.61
-49.17
-48.43
-48.12
-47.79
-47.07
-45.84
-44.28
-42.69
-41.34
-40.37
-39.66
-38.97
-38.03
-36.67
-34.92
-33.00
-31.26
-30.10
-29.72
-30.05
-30.73
-31.21
-30.97
-29.63
-27.05
-23.27
-18.51
-13.08
-7.36
-1.83
3.04
6.88
9.56
11.12
11.86
12.01
11.79
11.28
10.47
9.43
8.32
7.26
6.30
5.37
4.35
3.18
1.99
0.99
0.42
0.38
0.69
1.06
1.14
0.73
-0.18
-1.41
-2.75
-3.98
-4.95
-5.62
-6.04
-6.34
-6.75
-7.46
-8.56
-10.07
-11.86
-13.81
-15.78
-17.61
-19.03
-19.74
-19.44
-18.05
-15.77
-13.03
-10.35
-8.09
-6.31
-4.85
-3.49
-2.18
-1.06
-0.43
-0.47
-1.11
-2.00
-2.66
-2.73
-2.14
-1.13
-0.06
0.73
1.09
1.04
0.68
0.13
-0.55
-1.22
-1.74
-1.91
-1.69
-1.21
-0.73
-0.56
-0.87
-1.62
-2.60
-3.59
-4.44
-5.12
-5.74
-6.42
-7.32
-8.59
-10.36
-12.62
-15.21
-17.76
-19.85
-21.13
-21.46
-20.91
-19.77
-18.46
-17.41
-17.04
-17.56
-19.02
-21.26
-23.97
-26.86
-29.79
-32.76
-35.88
-39.20
-42.61
-45.94
-48.96
-51.56
-53.68
-55.23
-56.13
-56.29
-55.70
-54.57
-53.31
-52.31
-51.80
-51.76
-51.86
-51.64
-50.64
-48.56
-45.31
-41.03
-35.99
-30.57
-25.14
-19.95
-15.11
-10.51
-5.91
-1.04
4.36
10.44
17.27
24.81
32.99
41.65
50.56
59.36
67.60
74.83
80.77
85.45
89.17
92.38
95.45
98.53
101.53
104.24
106.51
108.28
109.62
110.66
111.57
112.53
113.83
115.68
118.01
120.27
121.30
119.67
114.12
104.10
89.94
72.84
54.46
36.45
20.07
5.93
-5.86
-15.62
-23.76
-30.73
-36.86
-42.29
-47.09
-51.09
-54.10
-55.78
-55.76
-53.75
-49.61
-43.57
-36.26
-28.65
-21.78
-16.48
-13.12
-11.60
-11.39
-11.87
-12.50
-13.02
-13.39
-13.67
-13.87
-13.84
-13.33
-12.13
-10.16
-7.58
-4.70
-1.96
0.32
1.91
2.75
2.89
2.39
1.27
-0.47
-2.86
-5.92
-9.64
-13.99
-18.87
-24.17
-29.80
-35.66
-41.68
-47.81
-53.98
-60.05
-65.91
-71.43
-76.50
-81.04
-84.98
-88.23
-90.63
-92.02
-92.25
-91.22
-88.93
-85.43
-80.94
-75.76
-70.28
-64.87
-59.79
-55.06
-50.53
-45.99
-41.32
-36.50
-31.59
-26.67
-21.81
-17.08
-12.61
-8.54
-4.97
-1.84
1.11
4.33
8.27
13.30
19.53
26.92
35.17
43.80
52.16
59.52
65.24
68.98
70.82
71.28
71.11
71.02
71.48
72.58
74.14
75.82
77.28
78.43
79.46
80.94
83.59
88.02
94.42
102.30
110.64
118.18
123.94
127.61
129.64
130.99
132.66
135.31
138.87
142.56
145.03
144.68
140.22
130.99
117.40
100.80
83.14
66.27
51.34
38.46
26.92
15.71
4.16
-7.58
-18.76
-28.31
-35.45
-40.06
-42.80
-44.75
-47.03
-50.43
-55.18
-61.08
-67.73
-74.76
-81.92
-88.97
-95.59
-101.14
-104.88
-106.14
-104.73
-100.96
-95.62
-89.60
-83.58
-77.76
-71.97
-65.88
-59.32
-52.40
-45.52
-39.14
-33.55
-28.75
-24.47
-20.32
-15.99
-11.28
-6.23
-1.01
4.03
8.44
11.88
14.21
15.66
16.73
17.91
19.38
20.74
21.19
19.85
16.40
11.20
5.39
0.22
-3.38
-5.31
-6.29
-7.60
-10.60
-16.21
-24.67
-35.35
-46.89
-57.52
-65.45
-69.31
-68.54
-63.45
-55.10
-44.93
-34.26
-23.92
-14.10
-4.65
4.58
13.35
20.95
26.44
29.04
28.54
25.35
20.35
14.63
9.24
5.03
2.64
2.42
4.32
7.73
11.63
14.77
16.01
14.55
10.10
2.79
-6.86
-17.99
-29.32
-39.30
-46.43
-49.65
-48.93
-45.40
-41.22
-38.95
-40.92
-48.55
-62.00
-80.11
-100.57
-120.23
-135.64
-143.78
-142.66
-131.93
-113.02
-88.84
-63.24
-40.08
-22.57
-12.70
-11.14
-17.31
-29.74
-46.39
-64.91
-82.83
-97.75
-107.43
-110.10
-104.85
-91.85
-72.53
-49.27
-24.95
-2.36
16.21
29.24
36.07
37.07
33.58
27.71
21.88
18.04
16.96
18.23
20.65
23.29
26.07
29.85
35.56
43.30
52.03
60.14
66.55
71.56
76.84
84.38
95.15
108.31
121.48
132.06
138.64
141.69
143.23
145.68
150.67
158.37
167.67
176.86
184.45
189.57
192.02
191.91
189.25
183.93
175.85
165.06
151.76
136.22
118.34
97.92
74.83
49.48
23.02
-2.91
-26.81
-47.97
-66.50
-83.20
-98.80
-113.57
-127.12
-138.70
-147.54
-153.13
-155.32
-154.33
-150.70
-145.12
-138.31
-130.84
-123.00
-114.81
-106.19
-96.93
-86.65
-74.66
-59.89
-41.34
-18.60
7.42
34.37
58.91
77.71
88.49
90.60
84.98
73.73
59.37
44.31
30.47
19.03
10.37
4.29
0.20
-2.55
-4.63
-6.84
-10.26
-16.26
-26.13
-40.42
-58.40
-77.92
-95.97
-109.58
-116.72
-116.79
-110.56
-99.79
-86.71
-73.40
-61.43
-51.26
-41.98
-31.38
-16.64
4.64
32.93
66.13
99.53
127.08
143.42
145.65
134.54
114.19
90.54
69.35
54.25
45.86
42.08
39.34
34.17
24.43
9.74
-8.68
-28.61
-47.53
-63.01
-72.92
-75.72
-70.77
-58.85
-42.37
-25.10
-11.30
-4.49
-6.25
-15.82
-30.34
-45.80
-58.11
-64.07
-61.79
-51.01
-32.99
-10.39
13.28
34.39
50.01
58.61
60.11
55.64
46.79
35.10
21.72
7.45
-7.09
-21.27
-34.47
-46.19
-56.07
-64.15
-70.76
-76.46
-81.93
-87.83
-94.58
-102.23
-110.35
-118.10
-124.51
-128.84
-131.02
-131.79
-132.74
-135.79
-142.64
-153.90
-168.57
-183.87
-195.77
-200.11
-193.85
-176.03
-148.00
-112.83
-74.16
-35.07
2.64
38.46
72.74
106.16
139.54
173.84
210.05
248.80
289.65
330.75
369.04
401.23
424.93
439.32
445.11
443.62
435.88
422.09
401.79
374.53
340.38
300.29
255.91
209.42
163.16
119.41
80.16
46.78
19.73
-1.32
-17.27
-29.17
-37.93
-44.31
-49.01
-52.67
-55.82
-58.71
-61.13
-62.59
-62.61
-61.03
-58.16
-54.60
-50.99
-47.71
-44.71
-41.58
-37.83
-33.15
-27.67
-21.98
-16.91
-13.36
-11.98
-13.01
-16.30
-21.37
-27.75
-34.96
-42.72
-50.83
-59.18
-67.61
-75.98
-84.21
-92.33
-100.57
-109.24
-118.65
-128.79
-139.10
-148.38
-154.86
-156.61
-152.08
-140.61
-122.69
-99.86
-74.36
-48.56
-24.69
-4.58
10.61
20.56
26.14
29.41
33.25
40.43
52.49
68.82
86.61
101.68
109.83
108.15
95.78
73.89
44.97
12.02
-22.17
-55.38
-86.06
-113.48
-137.86
-160.44
-183.27
-208.66
-238.32
-272.48
-309.34
-345.25
-375.47
-395.44
-402.09
-394.63
-374.58
-345.12
-309.97
-272.38
-234.56
-197.57
-161.50
-125.86
-90.12
-54.14
-18.50
15.37
45.63
70.83
90.84
107.15
122.51
139.75
160.59
184.94
211.22
237.28
261.45
282.89
301.28
316.02
325.88
329.26
325.08
313.81
297.68
279.99
263.82
250.54
239.25
227.12
210.74
187.59
157.03
120.44
80.60
40.73
3.75
-28.16
-53.57
-71.55
-81.42
-82.52
-74.27
-56.35
-29.32
4.86
42.62
79.23
110.09
131.99
143.98
147.31
144.38
137.52
127.96
115.78
100.40
81.37
58.91
33.99
8.12
-16.98
-39.69
-58.61
-72.73
-81.55
-85.36
-85.21
-82.93
-80.73
-80.70
-84.19
-91.24
-100.53
-109.66
-115.94
-117.30
-112.97
-103.65
-91.18
-77.81
-65.63
-56.27
-50.92
-50.38
-55.15
-65.22
-79.83
-97.42
-115.65
-131.88
-143.50
-148.50
-145.61
-134.61
-116.48
-93.36
-68.35
-44.83
-25.56
-11.81
-3.03
2.81
8.21
14.80
22.46
29.23
32.24
29.16
19.46
4.73
-12.12
-28.23
-42.17
-54.48
-67.16
-82.13
-99.64
-117.34
-130.86
-135.48
-128.25
-109.35
-82.24
-52.37
-25.44
-5.66
5.08
7.01
1.79
-8.50
-22.11
-37.92
-55.32
-73.93
-93.02
-111.22
-126.47
-136.53
-139.86
-136.55
-128.53
-119.05
-111.53
-108.30
-109.84
-114.95
-121.48
-127.43
-131.59
-133.66
-133.73
-131.62
-126.40
-116.36
-99.49
-74.03
-38.87
6.53
62.24
127.56
200.17
275.29
345.53
402.26
438.15
449.68
438.70
411.66
377.14
342.71
312.63
287.33
264.57
241.39
215.68
186.90
155.94
124.59
95.16
70.29
52.67
44.36
46.03
56.11
70.61
83.90
90.51
87.21
74.56
57.19
42.58
38.68
51.30
82.09
127.70
180.47
230.23
266.87
282.84
274.92
244.69
197.76
141.90
85.05
33.57
-8.55
-39.78
-60.52
-72.42
-77.76
-78.99
-78.48
-78.25
-79.74
-83.59
-89.52
-96.27
-101.91
-104.44
-102.36
-95.21
-83.65
-69.19
-53.55
-38.23
-24.09
-11.35
0.19
11.03
21.91
33.78
47.66
64.25
83.48
104.10
123.63
138.65
145.62
141.78
126.05
99.51
65.24
27.48
-9.47
-42.46
-70.20
-93.30
-113.73
-133.95
-155.97
-180.85
-208.50
-237.82
-267.08
-294.32
-317.90
-336.85
-351.22
-361.97
-370.69
-379.18
-388.80
-400.06
-412.11
-422.80
-429.04
-427.63
-416.45
-395.22
-365.81
-331.53
-296.07
-262.23
-231.30
-203.21
-177.14
-152.32
-128.47
-105.71
-84.28
-64.23
-45.25
-26.97
-8.99
8.99
27.33
46.56
67.17
89.19
111.61
132.18
147.85
155.72
154.16
143.48
125.86
104.51
82.82
63.72
49.50
41.96
42.41
51.35
67.96
89.85
113.43
134.81
151.12
161.38
166.58
169.14
171.70
176.08
182.75
190.87
198.70
204.26
205.57
200.93
189.09
169.63
143.40
112.77
81.42
53.54
32.68
20.85
18.08
22.68
31.91
42.72
52.25
58.06
58.07
50.70
35.00
11.11
-19.25
-52.63
-84.13
-108.37
-120.83
-119.19
-103.90
-77.82
-44.97
-9.04
27.48
63.36
97.80
129.48
156.05
174.60
182.53
178.45
162.64
136.78
103.40
65.42
25.96
-11.53
-43.31
-65.75
-76.09
-73.32
-58.69
-35.50
-8.41
17.54
37.86
48.96
48.50
35.69
11.65
-20.17
-54.12
-83.31
-101.18
-103.27
-88.21
-57.87
-16.39
31.05
79.41
124.31
162.07
189.71
204.95
206.57
194.70
170.91
138.02
99.53
59.16
20.30
-14.21
-42.24
-62.43
-74.16
-77.58
-73.58
-63.64
-49.73
-34.06
-18.92
-6.56
0.94
1.99
-4.14
-16.69
-33.14
-49.52
-61.31
-64.85
-58.53
-43.27
-21.93
1.89
25.40
47.33
67.95
88.11
108.25
127.77
145.11
158.45
166.35
168.12
163.61
152.82
135.66
112.28
83.62
51.92
20.73
-5.90
-24.46
-33.14
-32.22
-23.85
-11.29
1.92
12.52
17.67
15.19
3.94
-15.57
-40.57
-66.08
-85.89
-94.27
-87.85
-66.84
-34.96
1.82
37.10
65.84
85.09
93.94
92.83
82.78
65.15
41.62
14.45
-13.54
-39.25
-59.93
-73.92
-80.97
-82.25
-79.66
-75.17
-70.14
-65.08
-59.88
-54.34
-48.66
-43.74
-41.14
-42.66
-49.81
-63.11
-81.57
-102.46
-121.51
-133.77
-134.86
-122.17
-95.68
-58.01
-13.63
32.44
75.68
112.93
142.39
163.30
175.53
179.37
175.52
165.29
150.58
133.71
116.91
101.83
89.17
78.62
69.19
59.75
49.60
38.75
27.84
17.83
9.48
2.92
-2.53
-8.25
-15.88
-26.83
-41.76
-60.21
-80.48
-99.85
-115.07
-123.05
-121.67
-110.29
-89.99
-63.26
-33.41
-3.79
22.82
44.57
60.39
69.83
72.84
69.69
61.06
48.20
32.85
17.07
2.78
-8.67
-16.79
-21.97
-25.25
-27.80
-30.52
-33.73
-37.20
-40.29
-42.35
-42.92
-42.01
-40.19
-38.57
-38.61
-41.82
-49.17
-60.53
-74.22
-87.06
-95.13
-94.83
-84.11
-63.21
-34.59
-2.19
29.73
57.62
79.17
93.35
100.06
99.82
93.48
82.21
67.48
50.97
34.34
18.95
5.65
-5.33
-14.21
-21.50
-27.82
-33.74
-39.76
-46.32
-53.80
-62.38
-72.01
-82.38
-93.01
-103.44
-113.59
-123.92
-135.41
-149.18
-165.82
-184.67
-203.38
-218.16
-224.62
-219.10
-199.93
-168.15
-127.30
-82.40
-38.53
0.58
33.20
59.47
80.69
98.12
112.15
122.03
126.31
123.83
114.82
101.45
87.61
77.77
75.41
81.56
94.19
108.63
118.82
119.03
105.52
77.64
38.20
-7.01
-50.63
-85.58
-107.08
-114.02
-109.17
-97.81
-85.49
-75.82
-69.16
-63.17
-54.38
-40.26
-20.33
4.18
31.68
61.71
95.46
135.03
181.58
233.81
287.45
336.24
374.08
397.11
404.77
399.37
384.67
364.05
339.52
311.43
279.27
242.34
200.25
153.12
101.90
49.03
-1.35
-43.68
-72.71
-86.01
-85.67
-78.04
-71.08
-70.73
-78.35
-90.63
-101.68
-106.23
-101.82
-89.03
-70.28
-48.15
-24.61
-1.11
20.84
39.65
54.15
64.24
71.23
77.29
84.71
95.03
108.88
126.05
145.63
166.19
185.88
202.99
216.21
225.09
230.26
233.06
234.96
236.71
237.90
237.08
232.41
222.40
206.67
185.89
161.44
134.84
107.36
80.10
54.30
31.69
14.48
4.83
3.96
11.33
24.39
39.20
51.72
59.14
60.70
57.46
51.35
44.00
36.12
27.54
17.90
7.30
-3.55
-13.71
-22.71
-30.89
-39.29
-48.84
-59.77
-71.30
-81.98
-90.54
-96.66
-101.27
-106.29
-113.84
-125.29
-140.73
-159.14
-178.82
-198.31
-217.09
-235.67
-255.50
-278.51
-306.72
-341.61
-383.24
-429.37
-475.10
-513.37
-536.78
-539.82
-520.67
-481.69
-428.33
-367.17
-303.97
-242.95
-186.88
-137.85
-97.66
-67.62
-47.96
-37.33
-33.02
-31.65
-30.10
-26.13
-18.68
-7.92
5.11
18.71
30.97
40.14
44.97
44.81
39.43
28.64
12.17
-10.06
-37.31
-67.25
-95.80
-117.70
-128.22
-124.88
-108.81
-84.56
-58.61
-37.11
-23.88
-19.55
-22.12
-28.50
-36.20
-44.26
-53.19
-63.99
-77.16
-92.13
-107.49
-121.70
-133.67
-142.97
-149.45
-152.89
-152.95
-149.62
-143.85
-137.80
-134.49
-136.74
-145.96
-161.65
-181.58
-202.67
-221.86
-236.60
-244.96
-245.52
-237.54
-221.29
-198.22
-170.81
-141.87
-113.59
-87.07
-62.20
-38.35
-14.96
7.90
29.65
49.64
67.68
84.32
100.80
118.78
139.67
164.03
190.97
218.06
241.82
258.80
266.85
265.93
258.14
246.84
235.24
225.22
216.83
208.70
199.02
186.44
170.67
152.46
133.37
115.32
100.31
90.05
85.58
86.88
92.83
101.46
110.63
118.76
125.33
130.80
135.99
141.35
146.42
150.00
150.65
147.37
139.93
128.83
114.89
98.97
81.90
64.76
49.01
36.38
28.41
25.74
27.75
32.78
38.68
43.69
46.90
48.25
48.10
46.89
44.82
41.99
38.70
35.50
33.02
31.60
30.99
30.30
28.18
23.32
14.77
2.21
-14.08
-33.29
-54.29
-75.88
-96.96
-116.78
-134.95
-151.43
-166.30
-179.55
-190.99
-200.29
-207.17
-211.60
-213.85
-214.39
-213.68
-212.18
-210.36
-208.96
-209.05
-211.73
-217.62
-226.05
-234.81
-240.56
-239.81
-230.26
-211.65
-185.86
-156.01
-125.34
-96.04
-68.98
-43.86
-19.88
3.74
27.53
51.61
75.76
99.27
120.97
139.36
153.03
161.21
164.01
162.52
158.36
153.24
148.52
145.05
143.21
142.88
143.46
143.91
142.82
138.85
131.22
120.21
107.37
95.33
87.14
85.34
91.09
103.71
120.81
138.91
154.40
164.48
167.66
163.84
154.00
139.74
122.82
104.86
87.21
70.88
56.59
44.80
35.76
29.55
26.00
24.71
25.01
26.10
27.18
27.75
27.67
27.06
26.17
25.03
23.38
20.63
16.16
9.67
1.60
-6.64
-12.82
-14.30
-8.80
4.98
26.74
54.67
85.85
117.05
145.53
169.59
188.56
202.56
211.99
217.21
218.41
215.77
209.67
200.77
189.95
178.07
165.85
153.86
142.79
133.51
127.01
123.98
124.40
127.26
130.74
132.79
131.84
127.25
119.28
108.78
96.68
83.86
71.16
59.63
50.45
44.51
42.01
42.06
42.90
42.47
39.15
32.30
22.45
10.85
-1.09
-12.32
-22.54
-32.17
-42.10
-53.36
-66.65
-82.10
-99.13
-116.63
-133.31
-147.99
-159.86
-168.46
-173.55
-175.05
-172.99
-167.58
-159.29
-148.99
-137.96
-127.78
-120.19
-116.84
-119.04
-127.57
-142.34
-162.18
-184.66
-206.20
-222.44
-229.28
-223.79
-205.11
-174.68
-135.72
-92.32
-48.27
-6.43
31.40
64.14
91.08
111.68
125.74
133.81
137.17
137.68
137.19
136.94
137.21
137.35
136.22
132.80
126.82
119.10
111.39
105.92
104.59
108.29
116.58
127.80
139.67
150.12
157.81
162.52
164.95
166.37
168.09
170.84
174.34
177.14
176.92
171.17
158.22
137.94
111.89
82.81
53.37
25.27
-1.38
-27.73
-55.32
-85.24
-117.45
-151.11
-184.91
-217.81
-249.52
-280.56
-312.15
-346.09
-384.57
-429.60
-482.02
-540.02
-598.38
-648.84
-682.28
-691.75
-674.98
-635.32
-580.31
-518.95
-458.71
-403.88
-355.55
-312.78
-274.03
-237.93
-203.43
-169.57
-135.19
-99.16
-60.58
-18.91
26.22
74.82
126.37
179.27
230.39
275.25
308.94
327.45
328.91
314.08
285.78
247.86
204.02
157.36
110.50
65.96
26.22
-6.71
-31.95
-50.08
-62.90
-72.57
-80.76
-88.03
-93.94
-97.41
-97.45
-93.88
-87.59
-80.49
-74.92
-72.84
-74.92
-80.09
-85.71
-88.37
-85.12
-74.47
-57.02
-35.11
-12.14
8.54
24.48
34.48
38.55
37.37
31.88
22.90
11.05
-3.12
-18.94
-35.61
-52.22
-67.92
-82.13
-94.54
-105.21
-114.35
-122.08
-128.18
-131.95
-132.43
-128.72
-120.44
-108.00
-92.55
-75.69
-59.06
-44.10
-32.02
-23.77
-19.84
-19.88
-22.47
-25.03
-24.50
-18.14
-4.36
16.83
43.97
74.67
106.26
136.28
162.92
185.07
202.28
214.65
222.67
226.93
228.04
226.56
223.02
218.05
212.34
206.57
201.23
196.37
191.64
186.27
179.39
170.29
158.70
144.90
129.77
114.52
100.39
88.34
78.79
71.45
65.37
59.14
51.35
41.24
29.22
17.10
7.72
4.12
8.44
21.14
40.75
64.32
88.16
108.65
122.87
128.85
125.65
113.31
92.88
66.39
36.65
6.93
-19.61
-40.45
-54.19
-60.80
-61.51
-58.40
-53.79
-49.71
-47.60
-48.11
-51.30
-56.85
-64.17
-72.67
-81.79
-91.18
-100.81
-111.01
-122.57
-136.37
-153.07
-172.29
-192.22
-209.61
-220.39
-220.93
-209.16
-185.23
-151.26
-110.50
-66.28
-21.49
21.43
60.23
92.72
116.98
132.00
138.08
136.88
130.87
122.52
113.64
105.14
97.15
89.47
81.85
74.22
66.66
59.33
52.29
45.50
38.78
31.98
25.11
18.44
12.37
7.22
2.97
-0.79
-4.79
-9.58
-15.14
-20.59
-24.37
-24.60
-19.81
-9.46
5.89
24.66
44.64
63.58
79.61
91.47
98.59
100.97
98.96
93.16
84.28
73.18
60.82
48.23
36.41
26.17
18.10
12.44
9.12
7.74
7.66
7.97
7.67
5.84
1.90
-4.28
-12.27
-21.22
-30.15
-38.19
-44.80
-49.89
-53.70
-56.57
-58.76
-60.18
-60.40
-58.68
-54.27
-46.64
-35.75
-22.15
-6.87
8.76
23.42
36.09
46.09
53.15
57.35
58.98
58.43
56.25
52.97
49.13
45.14
41.24
37.48
33.81
30.17
26.58
23.19
20.18
17.66
15.63
13.92
12.31
10.61
8.78
6.94
5.30
4.00
2.96
1.77
-0.17
-3.43
-8.18
-13.93
-19.49
-23.23
-23.61
-19.68
-11.48
-0.08
12.74
24.97
34.94
41.64
44.85
45.00
42.86
39.28
34.99
30.48
26.02
21.67
17.36
12.99
8.46
3.77
-0.94
-5.43
-9.36
-12.43
-14.46
-15.47
-15.64
-15.28
-14.65
-13.87
-12.91
-11.69
-10.20
-8.61
-7.33
-6.89
-7.82
-10.35
-14.30
-18.94
-23.11
-25.45
-24.72
-20.21
-11.98
-0.91
11.52
23.64
34.03
41.79
46.65
48.78
48.62
46.71
43.52
39.50
35.06
30.50
26.06
21.87
18.03
14.60
11.72
9.47
7.86
6.73
5.78
4.64
3.08
1.09
-1.16
-3.40
-5.42
-7.29
-9.25
-11.70
-14.99
-19.26
-24.26
-29.41
-33.85
-36.58
-36.67
-33.51
-26.93
-17.39
-5.84
6.48
18.30
28.66
37.03
43.28
47.53
49.96
50.72
49.96
47.92
45.01
41.80
38.83
36.39
34.47
32.83
31.29
29.89
29.04
29.39
31.44
35.35
40.71
46.72
52.43
57.03
60.16
61.90
62.77
63.66
65.46
68.78
73.61
79.30
84.82
89.34
92.74
95.82
100.03
106.88
117.29
131.23
147.45
163.86
177.85
186.89
189.04
183.54
170.97
153.11
132.38
111.07
90.64
71.49
53.10
34.37
14.02
-9.17
-35.94
-66.35
-99.43
-133.18
-165.10
-192.82
-214.85
-230.90
-241.71
-248.46
-252.29
-254.02
-254.13
-253.04
-251.20
-249.09
-247.13
-245.44
-243.82
-241.75
-238.39
-232.81
-224.02
-211.39
-194.72
-174.47
-151.61
-127.52
-103.64
-81.22
-61.21
-44.13
-30.18
-19.32
-11.33
-5.86
-2.45
-0.51
0.61
1.53
2.65
4.12
5.80
7.38
8.56
9.15
9.07
8.29
6.82
4.65
1.90
-1.24
-4.43
-7.32
-9.67
-11.44
-12.87
-14.42
-16.65
-20.08
-24.87
-30.66
-36.44
-40.71
-41.81
-38.47
-30.21
-17.57
-1.99
14.60
30.27
43.49
53.32
59.43
62.01
61.61
59.05
55.23
50.96
46.84
43.16
39.97
37.23
34.88
32.95
31.54
30.68
30.28
30.12
29.83
29.06
27.52
25.11
21.92
18.20
14.31
10.58
7.23
4.27
1.53
-1.32
-4.60
-8.54
-13.10
-17.93
-22.26
-25.05
-25.14
-21.70
-14.50
-4.11
8.15
20.58
31.59
40.15
45.86
48.89
49.66
48.59
46.00
42.16
37.39
32.15
26.96
22.31
18.53
15.72
13.77
12.40
11.28
10.04
8.39
6.12
3.21
-0.25
-4.10
-8.16
-12.27
-16.40
-20.61
-25.05
-29.85
-34.99
-40.05
-44.18
-46.20
-44.84
-39.31
-29.57
-16.51
-1.74
12.80
25.35
34.59
39.81
40.89
38.19
32.58
25.29
17.70
11.17
6.66
4.56
4.78
6.81
10.01
13.67
17.13
19.71
20.79
19.90
16.91
12.20
6.54
0.92
-3.77
-7.02
-8.82
-9.55
-9.81
-10.28
-11.58
-14.21
-18.45
-24.22
-30.87
-37.14
-41.39
-41.94
-37.67
-28.44
-15.23
0.11
15.36
28.48
38.09
43.62
45.28
43.74
39.88
34.47
28.20
21.63
15.34
9.91
5.89
3.58
2.92
3.45
4.44
5.13
4.97
3.73
1.48
-1.46
-4.67
-7.74
-10.36
-12.38
-13.87
-15.13
-16.61
-18.79
-21.97
-26.12
-30.69
-34.67
-36.76
-35.74
-30.80
-21.92
-9.85
3.99
17.92
30.39
40.35
47.30
51.28
52.66
52.00
49.91
46.92
43.45
39.80
36.19
32.73
29.55
26.72
24.23
22.01
19.83
17.44
14.64
11.31
7.49
3.31
-1.05
-5.42
-9.68
-13.81
-17.79
-21.74
-25.79
-30.08
-34.60
-39.05
-42.73
-44.63
-43.65
-38.91
-30.20
-18.09
-3.94
10.42
23.17
32.99
39.34
42.38
42.81
41.45
38.93
35.63
31.73
27.42
23.04
19.07
15.95
13.92
12.87
12.40
11.92
10.95
9.24
6.86
4.13
1.42
-0.95
-2.88
-4.47
-5.97
-7.75
-10.14
-13.37
-17.41
-21.90
-26.10
-28.97
-29.45
-26.69
-20.44
-11.15
0.10
11.87
22.75
31.72
38.26
42.34
44.21
44.19
42.58
39.59
35.51
30.64
25.39
20.14
15.18
10.63
6.41
2.27
-2.08
-6.90
-12.33
-18.24
-24.24
-29.61
-33.50
-35.14
-34.15
-30.79
-26.00
-21.27
-18.25
-18.33
-22.19
-29.51
-38.93
-48.24
-54.91
-56.70
-52.26
-41.56
-25.95
-7.88
9.71
24.04
33.18
36.41
34.27
28.34
20.72
13.48
8.12
5.29
4.75
5.63
6.71
6.92
5.57
2.47
-2.01
-7.10
-11.87
-15.41
-17.17
-17.10
-15.71
-13.92
-12.83
-13.44
-16.36
-21.72
-29.13
-37.75
-46.44
-53.86
-58.63
-59.64
-56.20
-48.36
-36.89
-23.21
-9.02
4.03
14.74
22.53
27.34
29.53
29.59
28.01
25.13
21.14
16.19
10.42
4.09
-2.42
-8.52
-13.57
-16.97
-18.34
-17.72
-15.56
-12.66
-9.92
-8.09
-7.50
-8.10
-9.50
-11.27
-13.13
-15.06
-17.23
-19.78
-22.71
-25.68
-28.09
-29.19
-28.35
-25.20
-19.78
-12.52
-4.18
4.33
12.19
18.85
24.20
28.46
32.03
35.21
37.97
39.90
40.35
38.68
34.59
28.34
20.72
12.90
5.97
0.63
-3.03
-5.51
-7.66
-10.28
-13.84
-18.28
-22.96
-26.95
-29.31
-29.43
-27.32
-23.55
-19.17
-15.27
-12.66
-11.51
-11.35
-11.19
-9.83
-6.23
0.19
9.41
20.77
33.14
45.10
55.30
62.72
66.89
67.90
66.22
62.52
57.46
51.61
45.47
39.58
34.40
30.21
26.99
24.33
21.65
18.41
14.42
9.96
5.67
2.22
0.00
-1.05
-1.47
-2.06
-3.64
-6.77
-11.69
-18.26
-25.96
-33.93
-40.98
-45.67
-46.60
-42.87
-34.56
-23.04
-10.78
-0.77
4.50
3.94
-1.86
-10.81
-20.31
-28.14
-33.14
-35.25
-35.12
-33.56
-31.15
-28.22
-24.96
-21.70
-18.90
-16.96
-16.00
-15.65
-15.22
-13.97
-11.47
-7.79
-3.53
0.47
3.38
4.54
3.58
0.42
-4.62
-10.79
-16.79
-20.92
-21.43
-17.07
-7.67
5.65
20.68
34.71
45.37
51.20
52.00
48.52
42.03
33.81
24.82
15.70
6.84
-1.40
-8.71
-14.83
-19.60
-23.08
-25.43
-26.89
-27.64
-27.88
-27.74
-27.34
-26.83
-26.31
-25.88
-25.70
-25.96
-26.96
-28.99
-32.23
-36.64
-41.81
-46.99
-51.12
-53.04
-51.75
-46.75
-38.21
-27.01
-14.50
-2.12
8.95
18.04
24.99
29.87
32.78
33.79
32.91
30.34
26.55
22.22
18.09
14.64
12.06
10.15
8.55
6.90
5.01
2.89
0.67
-1.43
-3.29
-4.95
-6.56
-8.39
-10.74
-13.85
-17.70
-22.02
-26.21
-29.40
-30.58
-28.90
-23.91
-15.79
-5.43
5.85
16.59
25.64
32.41
36.87
39.39
40.49
40.56
39.79
38.21
35.78
32.52
28.58
24.22
19.68
15.20
10.87
6.70
2.70
-1.04
-4.29
-6.71
-8.14
-8.67
-8.78
-9.15
-10.51
-13.33
-17.71
-23.36
-29.59
-35.45
-39.79
-41.46
-39.57
-33.79
-24.59
-13.12
-1.03
10.08
19.08
25.50
29.47
31.44
31.87
31.04
29.11
26.17
22.53
18.71
15.37
13.11
12.21
12.54
13.60
14.73
15.34
15.06
13.79
11.63
8.75
5.29
1.27
-3.38
-8.82
-15.18
-22.42
-30.27
-38.09
-44.90
-49.50
-50.74
-47.83
-40.63
-29.75
-16.49
-2.49
10.56
21.36
29.19
34.01
36.25
36.60
35.73
34.14
32.13
29.81
27.35
24.95
22.90
21.39
20.41
19.69
18.83
17.50
15.66
13.58
11.68
10.29
9.44
8.81
7.93
6.34
3.80
0.35
-3.82
-8.27
-12.38
-15.22
-15.69
-12.76
-5.85
4.91
18.53
33.40
47.84
60.49
70.74
78.63
84.68
89.49
93.51
96.90
99.67
101.85
103.59
105.22
107.14
109.63
112.80
116.51
120.45
124.25
127.59
130.25
132.13
133.24
133.67
133.56
133.01
132.03
130.45
127.90
123.84
117.70
109.08
97.89
84.55
69.95
55.37
42.26
31.93
25.22
22.32
22.74
25.43
29.02
32.21
33.94
33.69
31.58
28.30
24.99
22.83
22.67
24.80
28.96
34.55
41.00
48.00
55.48
63.40
71.41
78.58
83.53
84.75
81.05
71.99
58.05
40.64
21.86
4.07
-10.76
-21.52
-28.34
-32.49
-35.79
-39.76
-44.89
-50.31
-54.04
-53.85
-48.35
-37.91
-24.86
-13.10
-7.02
-10.25
-24.43
-48.37
-78.02
-107.24
-129.42
-139.31
-134.48
-115.91
-87.48
-54.60
-22.68
3.94
22.51
31.64
31.02
21.19
3.68
-19.01
-43.58
-66.60
-85.37
-98.55
-106.36
-110.35
-112.62
-115.12
-119.14
-125.08
-132.66
-141.20
-149.89
-157.95
-164.56
-168.83
-169.89
-167.17
-160.73
-151.45
-141.04
-131.68
-125.49
-124.14
-128.54
-138.85
-154.56
-174.71
-197.92
-222.51
-246.50
-267.90
-284.88
-296.15
-301.21
-300.36
-294.66
-285.56
-274.65
-263.35
-252.84
-244.06
-237.81
-234.68
-234.89
-238.10
-243.25
-248.66
-252.49
-253.21
-250.04
-242.96
-232.40
-218.77
-202.09
-182.05
-158.28
-130.81
-100.15
-67.27
-33.15
1.32
35.48
68.61
99.78
127.91
151.98
171.40
186.06
196.33
202.63
205.28
204.41
200.18
193.07
183.96
174.00
164.26
155.42
147.61
140.57
133.89
127.31
120.84
114.79
109.58
105.51
102.64
100.76
99.50
98.43
97.20
95.51
93.13
89.93
86.09
82.28
79.73
80.03
84.68
94.47
109.13
127.27
146.90
166.00
183.18
197.81
210.02
220.26
228.97
236.31
242.04
245.65
246.52
244.18
238.52
229.88
219.00
206.73
193.82
180.66
167.36
153.82
139.99
125.87
111.54
97.00
82.24
67.34
52.46
37.68
22.74
6.60
-12.62
-37.25
-69.22
-108.86
-154.13
-200.55
-241.99
-272.21
-286.47
-282.74
-261.99
-227.74
-184.89
-138.56
-93.08
-51.59
-16.03
12.60
34.09
48.91
58.21
63.82
67.89
72.44
78.87
87.57
97.96
108.92
119.35
128.79
137.67
147.16
158.67
173.36
191.63
212.78
234.96
255.29
270.38
277.08
273.44
259.37
236.72
208.56
178.03
147.21
116.64
85.69
53.50
19.93
-14.16
-47.33
-78.40
-107.29
-135.11
-163.77
-195.35
-231.66
-273.87
-322.12
-374.72
-427.52
-473.96
-506.42
-518.66
-508.30
-478.03
-434.74
-386.87
-341.35
-301.60
-267.65
-237.70
-210.06
-184.24
-160.72
-139.95
-121.59
-104.55
-87.82
-71.36
-56.35
-44.77
-38.49
-38.24
-43.35
-52.07
-62.37
-72.53
-81.39
-88.09
-91.61
-90.57
-83.33
-68.38
-44.74
-12.24
28.32
75.11
125.27
175.17
220.87
258.99
287.37
305.41
313.84
314.10
307.53
295.02
276.91
253.24
224.10
189.86
151.19
109.16
65.08
20.33
-23.99
-67.33
-109.77
-151.73
-193.59
-235.27
-276.28
-315.89
-353.39
-388.01
-418.61
-443.35
-459.86
-465.89
-460.37
-444.11
-419.85
-391.44
-362.66
-336.04
-312.43
-291.25
-271.27
-251.43
-231.20
-210.65
-190.09
-169.75
-149.49
-128.91
-107.51
-84.91
-61.14
-36.57
-11.92
12.14
35.10
56.88
77.77
98.30
119.03
140.51
163.22
187.56
213.51
240.23
265.86
287.61
302.49
308.36
304.70
292.91
275.55
255.35
234.15
212.55
190.30
167.17
143.64
121.09
101.47
86.51
77.30
74.02
76.16
82.83
93.04
105.83
120.13
134.72
148.18
159.12
166.39
169.41
168.26
163.67
156.72
148.48
139.74
130.84
121.80
112.53
103.06
93.73
85.04
77.42
70.93
65.24
59.71
53.66
46.71
38.89
30.61
22.34
14.39
6.69
-1.21
-9.88
-19.80
-31.06
-43.13
-54.87
-64.56
-70.29
-70.41
-64.01
-51.27
-33.50
-12.86
8.21
27.53
43.67
56.07
64.85
70.48
73.50
74.35
73.42
71.07
67.73
63.79
59.63
55.44
51.37
47.48
43.90
40.72
38.06
35.88
33.99
32.11
29.89
26.99
23.18
18.37
12.59
6.06
-0.91
-8.07
-15.29
-22.67
-30.40
-38.52
-46.68
-53.99
-59.19
-60.98
-58.46
-51.35
-40.20
-26.16
-10.75
4.52
18.40
30.06
39.10
45.48
49.40
51.19
51.11
49.44
46.40
42.28
37.44
32.29
27.26
22.74
18.96
16.05
13.91
12.29
10.79
9.03
6.74
3.84
0.46
-3.16
-6.82
-10.44
-14.15
-18.24
-23.03
-28.70
-35.14
-41.81
-47.81
-51.98
-53.13
-50.37
-43.40
-32.66
-19.22
-4.54
9.86
22.72
33.24
41.06
46.23
49.05
49.86
49.04
46.89
43.66
39.55
34.77
29.57
24.26
19.14
14.45
10.31
6.67
3.42
0.41
-2.42
-5.06
-7.50
-9.73
-11.85
-14.01
-16.44
-19.30
-22.78
-27.02
-32.11
-37.97
-44.21
-50.04
-54.34
-55.86
-53.69
-47.52
-37.86
-25.89
-13.18
-1.18
9.04
16.97
22.54
25.96
27.48
27.34
25.78
23.08
19.60
15.76
11.93
8.39
5.31
2.74
0.67
-1.04
-2.57
-4.20
-6.12
-8.45
-11.09
-13.83
-16.45
-18.83
-21.04
-23.29
-25.85
-28.93
-32.61
-36.74
-40.89
-44.38
-46.35
-45.96
-42.63
-36.26
-27.30
-16.69
-5.61
4.77
13.58
20.30
24.85
27.49
28.61
28.61
27.77
26.24
24.10
21.48
18.61
15.88
13.62
12.03
11.07
10.45
9.83
8.93
7.68
6.13
4.39
2.49
0.36
-2.13
-5.06
-8.40
-12.06
-15.92
-19.87
-23.71
-27.08
-29.38
-29.84
-27.77
-22.86
-15.39
-6.16
3.64
12.81
20.49
26.27
30.16
32.43
33.37
33.13
31.74
29.22
25.64
21.29
16.56
11.97
8.07
5.41
4.38
5.19
7.78
11.79
16.61
21.42
25.42
27.90
28.38
26.66
22.83
17.24
10.40
2.98
-4.32
-10.75
-15.56
-18.13
-18.02
-15.18
-9.92
-2.83
5.44
14.34
23.56
32.88
42.07
50.78
58.44
64.34
67.81
68.32
65.73
60.40
53.25
45.59
38.72
33.59
30.39
28.57
27.05
24.62
20.29
13.61
4.65
-6.03
-17.48
-28.50
-37.82
-44.37
-47.60
-47.67
-45.55
-42.76
-40.93
-41.34
-44.58
-50.27
-57.31
-64.06
-68.74
-69.80
-66.22
-57.63
-44.45
-27.87
-9.67
8.05
23.23
34.27
40.26
41.09
37.32
30.02
20.50
10.24
0.76
-6.51
-10.45
-10.48
-6.80
-0.48
6.78
12.98
16.34
15.84
11.32
3.57
-6.04
-15.98
-24.86
-31.74
-36.21
-38.38
-38.73
-37.90
-36.45
-34.68
-32.45
-29.32
-24.71
-18.22
-9.83
0.01
10.48
20.65
29.79
37.51
43.81
48.92
53.14
56.57
59.11
60.42
60.16
58.16
54.49
49.46
43.54
37.11
30.53
23.99
17.73
11.94
6.86
2.61
-0.89
-3.94
-6.95
-10.35
-14.40
-19.13
-24.37
-29.81
-35.16
-40.12
-44.41
-47.69
-49.54
-49.53
-47.31
-42.76
-36.09
-27.78
-18.56
-9.22
-0.51
7.05
13.14
17.62
20.53
21.94
21.99
20.91
19.00
16.71
14.50
12.83
11.97
12.03
12.90
14.37
16.15
18.00
19.65
20.89
21.41
20.91
19.05
15.66
10.76
4.74
-1.77
-8.03
-13.35
-17.28
-19.64
-20.47
-19.85
-17.79
-14.22
-9.07
-2.40
5.56
14.42
23.64
32.63
40.78
47.39
51.74
53.26
51.71
47.43
41.43
35.27
30.57
28.59
29.90
34.28
40.91
48.68
56.40
62.97
67.55
69.71
69.70
68.60
68.27
70.76
77.62
89.19
104.30
120.37
134.14
142.47
143.22
135.60
120.28
98.99
74.08
48.10
23.53
2.52
-13.28
-23.09
-27.16
-26.70
-23.41
-18.85
-13.93
-8.80
-3.32
2.39
7.55
10.80
10.75
6.48
-2.19
-14.68
-30.04
-47.17
-64.97
-82.33
-98.07
-111.06
-120.35
-125.44
-126.32
-123.60
-118.40
-112.18
-106.48
-102.54
-101.05
-101.87
-104.10
-106.24
-106.54
-103.43
-95.94
-84.01
-68.51
-51.05
-33.47
-17.36
-3.70
7.13
15.15
20.50
23.35
23.92
22.64
20.19
17.41
15.03
13.49
12.84
12.81
12.94
12.77
11.85
9.80
6.35
1.35
-5.08
-12.59
-20.57
-28.37
-35.39
-41.28
-45.95
-49.69
-53.01
-56.52
-60.74
-65.82
-71.32
-76.25
-79.23
-78.98
-74.65
-66.18
-54.29
-40.32
-25.80
-12.12
-0.36
8.80
15.01
18.18
18.49
16.36
12.48
7.70
2.85
-1.49
-5.06
-8.03
-10.74
-13.60
-16.87
-20.58
-24.59
-28.68
-32.67
-36.43
-39.82
-42.74
-45.10
-47.00
-48.73
-50.84
-53.96
-58.56
-64.73
-72.04
-79.56
-86.09
-90.42
-91.59
-88.97
-82.34
-71.84
-57.94
-41.47
-23.56
-5.57
11.14
25.43
36.61
44.51
49.51
52.23
53.40
53.61
53.26
52.53
51.51
50.24
48.81
47.32
45.91
44.67
43.63
42.71
41.75
40.59
39.06
37.05
34.45
31.16
27.08
22.16
16.47
10.30
4.21
-1.06
-4.71
-6.03
-4.58
-0.29
6.49
15.00
24.27
33.22
40.94
46.79
50.47
51.95
51.37
49.00
45.11
40.06
34.22
28.00
21.82
15.97
10.68
6.06
2.03
-1.54
-4.86
-8.12
-11.43
-14.72
-17.88
-20.76
-23.34
-25.74
-28.25
-31.20
-34.79
-38.88
-43.00
-46.30
-47.78
-46.54
-42.06
-34.31
-23.84
-11.60
1.26
13.66
24.75
34.06
41.44
46.97
50.89
53.39
54.54
54.34
52.73
49.77
45.65
40.72
35.25
29.43
23.31
16.87
10.18
3.49
-2.82
-8.38
-12.90
-16.25
-18.37
-19.25
-18.96
-17.77
-16.30
-15.45
-16.20
-19.15
-24.18
-30.31
-35.94
-39.41
-39.55
-36.08
-29.57
-21.24
-12.40
-4.15
2.85
8.39
12.57
15.66
17.98
19.80
21.30
22.53
23.43
23.88
23.72
22.84
21.24
19.00
16.35
13.62
11.19
9.38
8.38
8.18
8.61
9.33
10.01
10.33
10.04
8.93
6.86
3.74
-0.33
-4.98
-9.54
-13.05
-14.47
-13.00
-8.35
-0.92
8.22
17.64
25.87
31.81
34.94
35.32
33.40
29.79
25.06
19.63
13.90
8.28
3.31
-0.36
-2.15
-1.79
0.55
4.18
8.03
10.95
11.99
10.69
7.07
1.57
-5.14
-12.36
-19.46
-26.00
-31.76
-36.77
-41.22
-45.47
-49.78
-54.21
-58.32
-61.17
-61.47
-57.92
-49.66
-36.66
-19.83
-0.96
17.76
34.16
46.54
53.96
56.32
54.25
49.01
42.18
35.38
29.94
26.74
26.01
27.40
30.17
33.30
35.74
36.54
35.09
31.25
25.46
18.69
12.16
6.95
3.65
2.18
1.90
1.90
1.34
-0.39
-3.57
-8.30
-14.44
-21.62
-29.11
-35.72
-40.00
-40.52
-36.40
-27.61
-15.21
-1.09
12.47
23.41
30.48
33.46
33.11
30.77
27.84
25.35
23.70
22.76
22.07
21.16
19.68
17.52
14.63
11.00
6.59
1.28
-4.89
-11.75
-18.85
-25.62
-31.44
-35.84
-38.61
-39.85
-39.88
-39.22
-38.40
-37.90
-38.03
-38.81
-39.97
-40.91
-40.78
-38.75
-34.23
-27.14
-18.02
-7.85
2.21
11.22
18.68
24.55
29.07
32.56
35.10
36.59
36.76
35.41
32.55
28.47
23.74
19.04
15.02
12.09
10.36
9.56
9.20
8.75
7.83
6.30
4.31
2.15
0.05
-1.83
-3.52
-5.12
-6.74
-8.48
-10.45
-12.78
-15.58
-18.91
-22.54
-25.92
-28.25
-28.62
-26.35
-21.22
-13.58
-4.30
5.47
14.61
22.18
27.64
30.78
31.70
30.73
28.31
24.89
20.84
16.44
11.85
7.23
2.73
-1.41
-4.97
-7.82
-10.02
-11.84
-13.63
-15.69
-18.12
-20.76
-23.23
-25.12
-26.13
-26.12
-25.26
-23.84
-22.32
-21.18
-20.81
-21.34
-22.57
-23.96
-24.69
-23.93
-21.08
-15.92
-8.69
-0.01
9.32
18.46
26.67
33.31
37.89
40.12
39.94
37.57
33.54
28.51
23.13
17.89
13.07
8.82
5.21
2.40
0.52
-0.41
-0.61
-0.59
-0.99
-2.43
-5.21
-9.24
-14.05
-18.98
-23.36
-26.69
-28.74
-29.62
-29.71
-29.54
-29.61
-30.08
-30.71
-30.83
-29.57
-26.16
-20.25
-12.06
-2.39
7.57
16.60
23.67
28.19
30.06
29.57
27.23
23.62
19.20
14.39
9.53
5.00
1.17
-1.68
-3.39
-3.94
-3.48
-2.27
-0.64
1.08
2.56
3.59
4.11
4.22
4.07
3.75
3.17
2.09
0.24
-2.54
-6.21
-10.60
-15.46
-20.49
-25.36
-29.57
-32.49
-33.43
-31.82
-27.42
-20.42
-11.43
-1.35
8.83
18.18
25.97
31.73
35.30
36.80
36.57
35.01
32.50
29.30
25.63
21.72
17.86
14.36
11.47
9.29
7.65
6.21
4.57
2.47
-0.18
-3.24
-6.47
-9.68
-12.77
-15.77
-18.73
-21.68
-24.61
-27.54
-30.47
-33.42
-36.27
-38.69
-40.18
-40.17
-38.23
-34.18
-28.19
-20.67
-12.16
-3.27
5.43
13.39
20.13
25.31
28.79
30.68
31.33
31.26
31.01
31.05
31.64
32.79
34.24
35.55
36.22
35.85
34.18
31.17
26.89
21.52
15.32
8.67
2.06
-3.94
-8.85
-12.44
-14.90
-16.77
-18.83
-21.79
-25.96
-31.11
-36.42
-40.71
-42.79
-41.76
-37.29
-29.62
-19.50
-8.02
3.65
14.37
23.25
29.74
33.70
35.40
35.31
34.00
31.93
29.40
26.52
23.37
20.03
16.62
13.30
10.16
7.25
4.55
2.03
-0.31
-2.45
-4.37
-6.12
-7.78
-9.47
-11.33
-13.40
-15.71
-18.18
-20.77
-23.50
-26.46
-29.73
-33.32
-36.98
-40.22
-42.41
-42.90
-41.27
-37.38
-31.45
-23.95
-15.50
-6.83
1.36
8.47
14.05
17.97
20.33
21.40
21.50
20.90
19.78
18.28
16.56
14.78
13.13
11.65
10.33
9.04
7.63
6.03
4.29
2.48
0.77
-0.70
-1.86
-2.72
-3.43
-4.24
-5.41
-7.15
-9.52
-12.43
-15.68
-18.96
-21.99
-24.41
-25.89
-26.09
-24.72
-21.64
-16.82
-10.45
-2.87
5.42
13.83
21.72
28.55
33.89
37.52
39.46
39.88
39.10
37.51
35.50
33.39
31.39
29.61
28.01
26.57
25.23
24.01
22.87
21.68
20.20
18.14
15.31
11.77
7.80
3.81
0.21
-2.79
-5.24
-7.37
-9.53
-12.04
-15.14
-18.86
-22.97
-26.86
-29.64
-30.30
-28.05
-22.59
-14.29
-4.10
6.62
16.53
24.52
29.99
32.81
33.33
32.23
30.37
28.59
27.52
27.41
28.12
29.22
30.17
30.52
30.10
28.92
27.14
24.84
21.97
18.38
13.94
8.74
3.15
-2.22
-6.74
-10.03
-12.13
-13.47
-14.74
-16.61
-19.51
-23.57
-28.57
-33.97
-39.01
-42.75
-44.29
-42.96
-38.57
-31.55
-22.91
-14.02
-6.30
-0.89
1.52
0.77
-2.76
-8.32
-14.92
-21.57
-27.45
-32.04
-35.12
-36.67
-36.74
-35.40
-32.76
-29.03
-24.56
-19.85
-15.41
-11.70
-9.03
-7.55
-7.23
-7.82
-8.83
-9.61
-9.53
-8.19
-5.77
-2.99
-0.99
-0.88
-3.25
-7.82
-13.34
-17.91
-19.60
-17.04
-9.89
0.97
13.81
26.43
36.78
43.45
45.92
44.63
40.75
35.81
31.24
28.01
26.37
25.89
25.70
24.81
22.52
18.60
13.37
7.57
2.11
-2.10
-4.48
-4.85
-3.61
-1.54
0.35
1.18
0.42
-1.98
-5.66
-10.04
-14.52
-18.70
-22.39
-25.52
-28.15
-30.29
-31.88
-32.77
-32.76
-31.59
-29.06
-25.05
-19.65
-13.15
-6.06
1.02
7.43
12.58
16.08
17.73
17.56
15.83
12.96
9.48
5.94
2.78
0.29
-1.46
-2.60
-3.33
-3.83
-4.21
-4.50
-4.70
-4.85
-5.08
-5.53
-6.35
-7.56
-9.10
-10.94
-13.05
-15.47
-18.09
-20.63
-22.54
-23.22
-22.16
-19.20
-14.59
-8.84
-2.54
3.82
9.89
15.43
20.13
23.63
25.57
25.77
24.29
21.54
18.08
14.48
11.15
8.26
5.73
3.42
1.19
-1.01
-3.13
-5.09
-6.81
-8.25
-9.41
-10.26
-10.83
-11.17
-11.41
-11.78
-12.53
-13.82
-15.59
-17.49
-18.91
-19.15
-17.62
-14.04
-8.55
-1.66
5.88
13.35
20.18
26.09
30.98
34.87
37.76
39.61
40.33
39.84
38.17
35.44
31.87
27.73
23.28
18.71
14.16
9.73
5.48
1.51
-2.08
-5.13
-7.54
-9.29
-10.44
-11.16
-11.71
-12.46
-13.83
-16.13
-19.42
-23.42
-27.46
-30.65
-32.18
-31.48
-28.45
-23.36
-16.66
-8.90
-0.57
7.78
15.59
22.31
27.50
30.94
32.66
32.78
31.46
28.87
25.15
20.63
15.75
11.05
7.01
3.92
1.80
0.46
-0.38
-0.97
-1.50
-2.09
-2.82
-3.76
-5.00
-6.61
-8.64
-11.07
-13.84
-16.77
-19.61
-22.05
-23.76
-24.40
-23.62
-21.11
-16.64
-10.24
-2.26
6.61
15.45
23.38
29.77
34.36
37.24
38.72
39.06
38.38
36.66
33.88
30.14
25.75
21.10
16.61
12.59
9.18
6.39
4.16
2.40
0.99
-0.23
-1.46
-2.90
-4.72
-7.00
-9.69
-12.64
-15.70
-18.74
-21.69
-24.60
-27.51
-30.42
-33.10
-35.14
-35.89
-34.69
-31.05
-24.80
-16.23
-6.01
4.98
15.83
25.81
34.40
41.28
46.31
49.47
50.82
50.54
48.82
45.90
41.97
37.16
31.64
25.62
19.43
13.49
8.24
4.00
0.86
-1.34
-3.00
-4.62
-6.72
-9.59
-13.33
-17.76
-22.52
-27.16
-31.28
-34.66
-37.33
-39.54
-41.71
-44.21
-47.12
-50.08
-52.29
-52.66
-50.19
-44.30
-35.11
-23.40
-10.40
2.55
14.34
24.26
32.07
37.81
41.72
44.08
45.07
44.83
43.40
40.80
37.08
32.38
26.93
21.01
14.87
8.75
2.84
-2.69
-7.65
-11.83
-15.05
-17.28
-18.61
-19.24
-19.45
-19.44
-19.32
-19.11
-18.79
-18.37
-17.95
-17.69
-17.81
-18.48
-19.82
-21.83
-24.34
-27.01
-29.34
-30.73
-30.53
-28.22
-23.56
-16.68
-8.19
1.03
9.97
17.79
23.93
28.18
30.52
31.04
29.85
27.12
23.16
18.41
13.40
8.61
4.36
0.78
-2.20
-4.63
-6.58
-8.00
-8.88
-9.20
-9.03
-8.53
-7.89
-7.25
-6.70
-6.21
-5.73
-5.18
-4.59
-4.07
-3.82
-4.03
-4.83
-6.22
-8.16
-10.52
-13.15
-15.86
-18.33
-20.18
-20.98
-20.37
-18.19
-14.54
-9.70
-4.10
1.83
7.71
13.22
18.10
22.17
25.32
27.49
28.69
28.98
28.40
27.10
25.21
22.93
20.43
17.84
15.24
12.65
10.15
7.94
6.30
5.44
5.44
6.08
6.93
7.51
7.43
6.51
4.80
2.45
-0.34
-3.37
-6.42
-9.32
-11.88
-14.08
-15.99
-17.78
-19.59
-21.36
-22.80
-23.50
-23.05
-21.22
-18.02
-13.67
-8.43
-2.61
3.52
9.68
15.53
20.66
24.66
27.18
28.03
27.26
25.09
21.88
18.05
13.97
9.96
6.30
3.23
0.94
-0.37
-0.63
0.13
1.72
3.81
5.97
7.76
8.88
9.24
9.09
8.88
9.27
10.76
13.59
17.55
22.06
26.32
29.67
31.94
33.62
35.86
40.13
47.79
59.61
75.46
94.37
114.77
134.92
153.44
169.67
183.89
197.31
211.64
228.44
248.21
269.81
290.50
306.64
315.05
314.19
304.74
289.23
270.92
252.60
235.81
220.84
207.24
194.48
182.27
170.51
159.00
147.26
134.66
120.72
105.51
89.75
74.55
61.10
50.16
41.84
35.66
30.85
26.66
22.76
19.21
16.41
14.77
14.43
15.13
16.32
17.33
17.70
17.34
16.53
15.75
15.41
15.64
16.19
16.63
16.57
15.86
14.71
13.62
13.01
13.04
13.38
13.28
11.88
8.55
3.18
-3.75
-11.45
-19.13
-26.36
-33.18
-40.09
-47.77
-56.93
-68.18
-81.83
-97.53
-113.79
-127.96
-136.78
-137.77
-130.50
-117.30
-102.61
-91.17
-86.07
-87.55
-93.33
-100.14
-105.68
-109.57
-113.24
-118.68
-127.16
-138.56
-151.60
-164.88
-177.70
-190.52
-204.63
-221.39
-241.54
-264.98
-291.34
-320.65
-353.37
-389.47
-427.03
-461.17
-484.59
-489.69
-471.34
-428.85
-365.98
-288.98
-204.32
-117.29
-32.34
45.62
110.50
155.69
176.37
171.66
145.41
104.90
58.11
11.09
-33.04
-73.63
-110.77
-143.73
-170.37
-187.84
-193.96
-188.55
-173.99
-154.61
-135.31
-119.65
-108.66
-100.65
-92.26
-80.22
-63.02
-41.71
-19.62
-0.92
10.94
14.24
9.16
-2.91
-20.28
-41.69
-66.41
-93.86
-123.17
-152.87
-181.03
-205.73
-225.55
-239.95
-249.21
-254.23
-256.09
-255.95
-254.99
-254.50
-255.80
-259.91
-267.11
-276.49
-286.01
-292.98
-294.86
-290.22
-279.17
-263.27
-244.89
-226.28
-208.92
-193.22
-178.81
-164.99
-151.18
-137.20
-123.23
-109.63
-96.75
-84.82
-73.95
-64.23
-55.80
-48.81
-43.29
-39.03
-35.60
-32.32
-28.54
-23.78
-17.83
-10.83
-3.06
5.09
13.35
21.61
29.95
38.63
47.92
58.07
69.19
81.15
93.68
106.39
118.96
131.15
142.91
154.27
165.38
176.49
188.09
200.92
215.78
232.99
251.83
270.22
285.07
293.15
292.29
282.27
264.95
243.67
222.09
203.14
188.46
178.48
172.76
170.58
171.23
174.12
178.83
184.98
192.19
199.94
207.38
213.21
215.80
213.46
205.05
190.67
172.08
152.80
137.41
130.25
133.90
147.74
167.36
185.31
193.05
183.75
154.72
108.49
52.02
-5.52
-55.55
-92.29
-113.57
-120.40
-115.74
-103.33
-86.85
-69.53
-53.95
-41.81
-33.69
-28.96
-26.05
-22.97
-18.00
-10.30
-0.26
10.55
19.62
24.13
21.63
10.83
-7.84
-31.90
-57.12
-78.18
-89.92
-88.62
-72.91
-43.85
-4.10
43.29
95.95
152.28
210.86
269.45
324.63
372.26
408.60
431.25
439.41
433.63
415.41
387.38
353.71
320.26
293.58
278.73
277.12
285.49
297.09
304.58
303.07
291.87
273.97
253.94
235.54
220.36
207.92
196.78
185.65
173.92
161.47
148.17
133.62
117.15
98.30
77.12
54.22
30.56
6.92
-16.61
-40.64
-65.94
-92.48
-118.61
-140.86
-154.73
-156.21
-143.44
-117.73
-83.35
-46.20
-11.98
15.46
34.82
47.10
54.47
59.12
62.30
64.10
63.76
60.29
53.09
42.23
28.36
12.34
-5.06
-23.29
-41.93
-60.62
-79.01
-96.85
-114.27
-131.78
-150.18
-170.25
-192.50
-216.90
-243.08
-270.45
-298.54
-327.29
-357.13
-388.96
-423.72
-461.81
-502.59
-544.09
-583.30
-616.67
-640.82
-653.09
-651.78
-636.40
-607.69
-567.59
-519.01
-465.43
-410.40
-357.26
-309.01
-268.14
-236.28
-213.65
-198.58
-187.57
-176.19
-160.63
-139.00
-111.77
-80.98
-48.72
-15.92
17.76
52.91
88.92
123.22
151.72
170.37
176.97
172.02
158.56
140.93
123.25
108.38
97.77
91.73
90.11
92.37
97.59
104.30
110.69
115.04
116.31
114.53
110.67
106.32
103.16
102.53
105.04
110.49
117.89
125.69
132.32
136.69
138.62
138.94
139.11
140.61
144.37
150.41
157.97
165.83
172.79
177.94
180.78
181.13
178.88
173.91
166.05
155.12
140.94
123.27
101.77
76.18
46.64
14.25
-18.62
-48.52
-71.77
-85.65
-89.38
-84.55
-74.65
-64.00
-56.55
-54.91
-59.76
-69.74
-81.71
-91.38
-94.33
-87.23
-68.96
-41.07
-7.43
26.90
57.26
80.57
95.93
104.49
108.74
111.45
114.78
119.52
124.95
129.13
129.61
124.31
112.34
94.39
72.63
50.06
29.50
12.57
-0.96
-13.21
-27.38
-46.41
-71.55
-101.47
-132.52
-160.15
-180.89
-193.88
-201.13
-206.41
-213.41
-223.94
-237.15
-249.96
-258.45
-259.26
-250.61
-232.45
-206.13
-173.91
-138.56
-103.13
-70.60
-43.38
-22.65
-7.78
3.54
14.55
28.28
46.34
68.46
92.60
115.96
135.91
150.58
159.00
161.00
157.16
149.00
139.17
131.27
129.20
136.07
153.14
179.22
210.95
243.88
273.84
298.05
315.51
326.71
332.74
334.61
332.81
327.60
319.45
309.52
299.59
291.61
286.72
284.54
283.04
279.16
269.97
253.80
230.86
203.03
172.96
143.07
114.73
88.09
62.55
37.27
11.53
-15.24
-43.66
-74.40
-107.68
-142.70
-177.12
-207.37
-229.53
-240.71
-239.97
-228.67
-209.92
-187.41
-164.53
-143.79
-126.73
-114.32
-107.09
-105.25
-108.64
-116.67
-128.27
-142.16
-156.89
-171.08
-183.57
-193.68
-201.29
-206.86
-211.38
-216.07
-222.20
-230.77
-242.29
-256.60
-272.73
-288.87
-302.57
-311.14
-312.25
-304.47
-287.52
-262.20
-230.17
-193.51
-154.42
-115.10
-77.66
-44.08
-15.98
5.56
20.29
28.80
32.48
33.14
32.57
32.17
32.66
34.14
36.26
38.53
40.48
41.75
41.94
40.62
37.36
31.87
24.15
14.53
3.58
-7.95
-19.16
-28.92
-35.92
-38.79
-36.46
-28.56
-15.64
0.89
19.01
36.68
52.16
64.23
72.23
75.96
75.60
71.79
65.55
58.13
50.82
44.60
39.91
36.58
34.01
31.50
28.53
24.99
21.12
17.30
13.83
10.76
7.84
4.64
0.67
-4.47
-10.86
-18.12
-25.32
-31.01
-33.56
-31.52
-24.18
-11.87
4.10
21.80
39.31
55.12
68.36
78.70
85.97
90.12
91.13
89.21
84.99
79.40
73.46
67.94
63.14
58.91
54.87
50.69
46.29
41.91
37.86
34.40
31.53
28.92
26.01
22.07
16.44
8.81
-0.47
-10.27
-18.81
-24.03
-24.24
-18.66
-7.72
7.05
23.54
39.64
53.76
65.02
73.22
78.54
81.29
81.81
80.38
77.33
73.11
68.26
63.38
58.93
55.08
51.72
48.57
45.27
41.67
37.86
34.16
30.95
28.46
26.60
24.89
22.63
19.05
13.63
6.35
-2.15
-10.59
-17.27
-20.53
-19.19
-12.93
-2.41
10.91
25.13
38.45
49.50
57.57
62.54
64.71
64.50
62.32
58.47
53.28
47.14
40.63
34.41
29.04
24.74
21.33
18.24
14.86
10.82
6.23
1.60
-2.40
-5.29
-7.03
-8.01
-8.93
-10.46
-13.11
-17.08
-22.18
-27.88
-33.23
-37.00
-37.83
-34.64
-26.99
-15.30
-0.80
14.76
29.59
42.34
52.23
59.13
63.23
64.82
64.12
61.31
56.59
50.29
42.87
34.78
26.34
17.70
8.76
-0.56
-10.32
-20.42
-30.48
-40.03
-48.55
-55.71
-61.47
-66.13
-70.23
-74.42
-79.22
-84.91
-91.43
-98.25
-104.37
-108.44
-108.93
-104.58
-94.87
-80.30
-62.35
-43.14
-24.77
-8.78
4.14
14.06
21.50
27.06
31.14
33.92
35.40
35.64
34.79
33.17
31.13
28.92
26.61
24.12
21.28
18.03
14.52
11.05
7.96
5.45
3.38
1.30
-1.35
-5.08
-10.10
-16.31
-23.39
-30.93
-38.44
-45.33
-50.70
-53.44
-52.42
-46.88
-36.81
-23.20
-7.80
7.31
20.30
30.12
36.62
40.40
42.38
43.35
43.67
43.34
42.16
40.04
37.20
34.06
31.11
28.70
26.91
25.71
25.06
25.01
25.64
26.95
28.73
30.63
32.24
33.30
33.74
33.65
33.12
32.09
30.35
27.59
23.61
18.57
13.13
8.38
5.69
6.29
10.94
19.58
31.33
44.63
57.76
69.23
78.15
84.22
87.60
88.64
87.67
84.97
80.85
75.76
70.28
64.95
60.20
56.13
52.59
49.32
46.08
42.77
39.47
36.32
33.43
30.84
28.46
26.15
23.81
21.47
19.32
17.69
16.90
17.10
18.12
19.44
20.26
19.74
17.35
13.08
7.52
1.82
-2.71
-4.93
-4.26
-0.86
4.35
9.78
13.53
13.73
9.02
-1.14
-16.28
-35.02
-55.39
-75.33
-93.08
-107.47
-117.87
-124.04
-126.01
-123.94
-118.28
-109.80
-99.64
-89.11
-79.42
-71.45
-65.70
-62.32
-61.21
-62.06
-64.35
-67.27
-69.85
-71.15
-70.56
-68.05
-64.21
-60.08
-56.94
-55.94
-57.77
-62.40
-68.83
-75.12
-78.85
-77.71
-70.26
-56.54
-38.12
-17.71
1.50
16.62
25.63
27.83
23.87
15.52
5.30
-4.24
-11.14
-14.49
-14.51
-12.29
-9.26
-6.69
-5.34
-5.44
-6.78
-8.93
-11.41
-13.81
-15.85
-17.37
-18.35
-18.88
-19.17
-19.41
-19.81
-20.52
-21.61
-23.07
-24.88
-27.13
-30.00
-33.74
-38.46
-43.84
-49.02
-52.60
-53.10
-49.40
-41.20
-29.20
-14.93
-0.21
13.30
24.52
32.99
38.74
42.12
43.57
43.55
42.56
41.13
39.84
39.17
39.38
40.41
41.89
43.31
44.23
44.53
44.42
44.32
44.63
45.41
46.39
47.08
47.03
46.08
44.41
42.41
40.47
38.82
37.41
35.94
33.98
31.05
26.87
21.50
15.51
10.02
6.52
6.50
10.96
20.03
32.85
47.71
62.53
75.37
84.80
90.16
91.49
89.36
84.52
77.79
69.84
61.21
52.25
43.24
34.34
25.67
17.33
9.47
2.31
-3.90
-8.95
-12.78
-15.64
-17.97
-20.37
-23.36
-27.20
-31.84
-36.97
-42.25
-47.42
-52.52
-57.80
-63.69
-70.54
-78.45
-87.00
-95.27
-101.89
-105.37
-104.45
-98.53
-87.89
-73.68
-57.66
-41.73
-27.52
-16.07
-7.73
-2.32
0.67
1.82
1.61
0.39
-1.60
-4.10
-6.81
-9.34
-11.30
-12.42
-12.64
-12.13
-11.22
-10.30
-9.64
-9.40
-9.56
-10.06
-10.86
-11.94
-13.26
-14.76
-16.42
-18.32
-20.68
-23.78
-27.76
-32.34
-36.65
-39.34
-38.97
-34.42
-25.44
-12.67
2.44
18.13
32.74
45.09
54.59
61.16
65.00
66.42
65.67
62.94
58.41
52.28
44.88
36.66
28.12
19.78
12.03
5.10
-0.95
-6.18
-10.65
-14.37
-17.33
-19.49
-20.82
-21.36
-21.20
-20.45
-19.25
-17.86
-16.68
-16.23
-17.03
-19.35
-22.93
-26.83
-29.55
-29.36
-24.97
-15.97
-3.05
12.13
27.46
41.03
51.63
58.86
63.07
64.93
65.13
64.14
62.16
59.22
55.30
50.50
45.04
39.29
33.68
28.60
24.37
21.15
18.92
17.51
16.59
15.76
14.59
12.79
10.22
6.98
3.37
-0.23
-3.50
-6.32
-8.79
-11.26
-14.12
-17.62
-21.68
-25.73
-28.74
-29.44
-26.71
-19.95
-9.42
3.74
17.83
31.04
42.04
50.23
55.73
59.11
60.90
61.44
60.74
58.68
55.24
50.57
44.99
38.85
32.43
25.90
19.35
12.92
6.89
1.63
-2.47
-5.24
-6.79
-7.57
-8.24
-9.44
-11.55
-14.57
-18.14
-21.83
-25.35
-28.83
-32.75
-37.83
-44.63
-53.28
-63.19
-73.08
-81.21
-85.72
-85.15
-78.84
-67.15
-51.36
-33.37
-15.18
1.51
15.63
26.70
34.75
40.04
42.92
43.79
43.11
41.50
39.62
38.10
37.31
37.29
37.72
38.11
38.03
37.24
35.80
33.89
31.69
29.22
26.31
22.69
18.16
12.71
6.66
0.51
-5.14
-9.84
-13.45
-16.16
-18.46
-20.90
-23.88
-27.49
-31.47
-35.20
-37.85
-38.51
-36.33
-30.70
-21.32
-8.29
7.78
25.90
44.80
63.10
79.52
92.95
102.38
106.81
105.17
96.57
80.76
58.62
32.46
5.74
-17.73
-34.76
-43.72
-44.76
-39.48
-30.19
-19.17
-8.25
1.21
8.01
10.93
8.86
1.22
-11.60
-27.81
-44.64
-58.92
-68.09
-70.88
-67.57
-59.67
-49.17
-38.01
-27.78
-19.79
-15.27
-15.26
-20.18
-29.34
-40.59
-50.67
-56.10
-54.34
-44.61
-28.13
-7.51
14.19
34.38
51.44
64.53
73.18
76.90
75.20
67.99
56.04
41.14
25.79
12.52
2.99
-2.47
-4.90
-6.12
-8.11
-12.42
-19.83
-30.31
-43.10
-56.86
-69.99
-80.90
-88.46
-92.28
-92.75
-90.91
-88.14
-85.77
-84.84
-85.89
-88.89
-93.30
-98.10
-102.08
-104.17
-103.66
-100.37
-94.46
-86.21
-75.71
-62.87
-47.65
-30.34
-11.80
6.62
23.41
37.35
47.88
55.11
59.73
62.58
64.41
65.69
66.72
67.71
68.92
70.62
72.96
75.73
78.36
79.94
79.55
76.59
71.07
63.65
55.44
47.60
41.03
36.03
32.38
29.51
26.80
23.84
20.45
16.65
12.49
7.91
2.76
-3.16
-10.02
-17.91
-26.85
-36.68
-47.04
-57.20
-65.99
-72.00
-73.80
-70.50
-62.03
-49.32
-34.05
-18.19
-3.46
9.02
18.79
25.91
30.69
33.45
34.37
33.60
31.28
27.67
23.04
17.69
11.80
5.51
-1.10
-7.80
-14.25
-19.98
-24.53
-27.61
-29.27
-29.90
-30.11
-30.55
-31.67
-33.55
-35.93
-38.38
-40.51
-42.16
-43.47
-44.84
-46.76
-49.58
-53.38
-57.83
-62.12
-65.13
-65.57
-62.41
-55.18
-44.19
-30.50
-15.65
-1.25
11.42
21.60
29.13
34.26
37.50
39.42
40.45
40.84
40.72
40.15
39.21
38.00
36.59
34.96
33.04
30.79
28.35
26.10
24.47
23.76
23.87
24.23
23.95
22.17
18.42
12.80
5.98
-1.12
-7.68
-13.19
-17.69
-21.53
-25.27
-29.25
-33.41
-37.13
-39.38
-38.97
-35.00
-27.15
-15.88
-2.29
12.18
26.22
38.93
49.89
59.09
66.69
72.76
77.28
80.13
81.18
80.41
77.92
73.87
68.45
61.86
54.42
46.62
39.13
32.76
28.25
26.07
26.16
27.90
30.23
31.86
31.68
28.99
23.70
16.32
7.73
-1.10
-9.43
-16.91
-23.63
-30.00
-36.55
-43.66
-51.32
-59.01
-65.61
-69.65
-69.67
-64.71
-54.70
-40.58
-24.14
-7.53
7.32
19.13
27.39
32.37
34.71
35.19
34.45
32.91
30.83
28.38
25.71
22.98
20.34
17.94
15.86
14.21
13.05
12.51
12.69
13.63
15.17
16.90
18.14
18.12
16.22
12.20
6.35
-0.64
-7.83
-14.41
-19.95
-24.50
-28.49
-32.58
-37.34
-43.05
-49.48
-55.79
-60.63
-62.41
-59.83
-52.41
-40.83
-26.91
-13.05
-1.57
6.00
9.27
8.88
6.16
2.62
-0.40
-1.91
-1.30
1.63
6.68
13.19
20.12
26.23
30.33
31.50
29.31
23.83
15.58
5.35
-5.83
-16.87
-26.74
-34.55
-39.67
-41.86
-41.24
-38.19
-33.19
-26.74
-19.45
-12.29
-6.73
-4.72
-8.15
-17.98
-33.58
-52.34
-70.36
-83.52
-88.82
-85.12
-73.23
-55.21
-33.56
-10.66
11.40
30.78
45.88
55.71
60.21
60.47
58.43
56.21
55.36
56.38
58.76
61.43
63.16
62.86
59.72
53.28
43.65
31.63
18.80
7.21
-1.17
-5.12
-4.50
-0.17
6.39
13.63
20.24
25.22
27.77
27.20
22.95
14.95
3.79
-9.28
-22.55
-34.23
-42.89
-47.58
-47.85
-43.60
-34.97
-22.34
-6.44
11.58
30.19
47.71
62.58
73.73
80.73
83.79
83.58
81.04
77.14
72.76
68.58
65.14
62.80
61.82
62.35
64.52
68.41
74.08
81.49
90.40
100.31
110.49
120.06
128.20
134.23
137.83
139.18
138.99
138.37
138.49
139.92
142.19
143.51
141.23
132.58
115.59
89.76
56.18
17.45
-22.91
-60.95
-92.84
-115.56
-127.44
-128.62
-120.95
-107.47
-91.52
-75.87
-62.25
-51.34
-42.92
-36.20
-29.97
-22.73
-12.97
0.32
17.11
36.04
54.66
70.04
79.69
82.13
77.20
65.81
49.44
29.84
8.67
-12.38
-31.70
-47.71
-59.15
-65.37
-66.67
-64.45
-60.91
-58.54
-59.35
-64.19
-72.51
-82.63
-92.58
-101.11
-108.29
-115.40
-124.17
-135.80
-150.23
-166.16
-181.72
-195.33
-206.38
-215.28
-222.96
-230.19
-237.05
-242.74
-245.87
-244.90
-238.82
-227.43
-211.65
-193.29
-174.61
-157.69
-143.84
-133.30
-125.31
-118.61
-111.98
-104.74
-96.93
-89.08
-82.02
-76.47
-72.98
-71.75
-72.63
-74.99
-77.67
-78.98
-77.00
-70.09
-57.46
-39.58
-18.20
4.14
24.82
41.88
54.43
62.65
67.38
69.75
70.80
71.41
72.23
73.73
76.10
79.22
82.60
85.56
87.50
88.10
87.41
85.78
83.68
81.54
79.66
78.28
77.57
77.62
78.35
79.41
80.15
79.75
77.38
72.37
64.43
53.73
40.99
27.38
14.51
4.08
-2.39
-3.99
-0.66
6.69
16.42
26.59
35.49
42.06
46.02
47.77
47.97
47.24
45.90
43.98
41.46
38.45
35.40
32.95
31.81
32.41
34.68
38.02
41.43
43.77
44.14
42.09
37.66
31.46
24.44
17.78
12.68
10.12
10.57
13.71
18.34
22.60
24.53
22.83
17.43
9.69
2.03
-2.90
-3.01
2.58
13.36
27.67
43.25
57.74
69.22
76.46
79.10
77.55
72.87
66.34
59.19
52.16
45.41
38.61
31.19
22.71
13.07
2.51
-8.61
-19.98
-31.50
-43.09
-54.40
-64.65
-72.64
-77.14
-77.39
-73.57
-66.75
-58.54
-50.55
-43.79
-38.57
-34.56
-31.14
-27.70
-23.83
-19.23
-13.73
-7.19
0.48
9.29
19.07
29.49
40.04
49.98
58.44
64.38
66.79
64.82
58.03
46.54
31.20
13.44
-4.81
-21.50
-34.78
-43.35
-46.71
-45.12
-39.51
-31.11
-21.24
-11.13
-1.97
5.09
9.01
9.08
5.25
-1.73
-10.35
-18.79
-25.41
-29.18
-29.77
-27.38
-22.57
-15.97
-8.25
-0.11
7.81
15.10
21.73
28.01
34.36
40.88
47.09
51.76
53.32
50.33
42.17
29.32
13.44
-3.07
-17.70
-28.43
-34.19
-34.97
-31.62
-25.45
-17.88
-10.09
-3.01
2.66
6.39
7.79
6.69
3.16
-2.44
-9.58
-17.62
-25.85
-33.54
-39.75
-43.40
-43.41
-38.99
-30.01
-17.21
-2.14
13.23
27.01
37.82
45.03
48.72
49.46
48.04
45.29
41.94
38.63
35.91
34.25
34.05
35.61
39.00
44.00
50.01
56.12
61.38
65.09
67.16
68.10
68.92
70.61
73.66
77.78
81.81
84.21
83.59
79.38
72.28
64.32
58.47
57.95
65.46
82.37
108.24
140.78
176.09
209.38
236.05
252.88
258.86
255.34
245.26
231.81
217.09
201.53
184.15
163.50
138.64
109.68
77.77
44.71
12.59
-16.25
-39.28
-54.00
-58.50
-52.13
-35.90
-12.40
14.75
41.69
65.02
82.18
91.80
93.85
89.66
81.61
72.59
65.14
60.70
59.41
60.21
61.54
62.06
61.04
58.52
54.89
50.47
45.11
38.12
28.41
14.92
-2.93
-24.99
-50.42
-77.98
-106.50
-135.28
-164.20
-193.60
-224.16
-256.78
-292.57
-332.56
-376.90
-423.89
-469.28
-506.68
-529.18
-531.75
-513.25
-476.85
-428.69
-375.46
-322.25
-271.71
-224.72
-181.60
-142.87
-109.14
-80.27
-54.73
-29.91
-3.18
26.85
59.81
94.02
127.48
158.92
188.32
216.52
244.48
272.41
299.41
323.56
342.47
354.16
357.70
353.51
342.98
327.92
309.83
289.53
267.20
242.70
215.98
187.30
157.29
126.92
97.45
70.37
47.17
28.78
15.15
4.93
-4.06
-14.00
-25.95
-39.20
-51.23
-58.64
-58.29
-48.45
-29.41
-3.39
25.96
54.43
78.11
94.05
100.72
98.04
87.18
70.07
48.78
25.00
-0.16
-26.06
-52.20
-77.74
-101.52
-122.18
-138.70
-150.85
-159.36
-165.75
-171.83
-179.07
-188.19
-198.98
-210.44
-221.14
-229.62
-234.72
-235.80
-232.84
-226.28
-216.80
-205.09
-191.49
-175.99
-158.35
-138.45
-116.70
-94.30
-73.24
-55.98
-44.86
-41.43
-46.17
-58.44
-76.82
-99.54
-124.82
-150.93
-176.23
-199.16
-218.40
-233.19
-243.53
-250.07
-253.93
-256.24
-257.87
-259.21
-260.35
-261.28
-262.01
-262.66
-263.31
-264.09
-265.18
-266.97
-269.89
-274.25
-279.73
-285.11
-288.43
-287.58
-281.17
-269.21
-253.15
-235.42
-218.42
-203.83
-192.15
-183.03
-175.78
-169.80
-164.77
-160.49
-156.67
-152.77
-148.11
-142.10
-134.43
-125.17
-114.65
-103.39
-91.82
-80.27
-68.88
-57.67
-46.56
-35.40
-23.96
-12.02
0.59
13.91
27.81
42.01
56.23
70.37
84.65
99.59
115.94
134.30
154.93
177.59
201.69
226.45
251.26
275.91
300.50
325.56
351.98
381.01
413.90
451.22
491.97
532.90
568.82
593.90
603.50
595.86
572.70
538.39
498.28
456.98
417.44
380.87
347.38
316.63
288.01
260.72
233.60
205.36
175.02
142.27
107.58
71.95
36.43
1.59
-32.75
-67.34
-102.84
-139.15
-174.75
-206.79
-231.71
-246.39
-249.32
-241.21
-224.91
-204.44
-183.88
-166.29
-153.14
-144.41
-139.02
-135.55
-132.72
-129.75
-126.45
-123.04
-119.90
-117.37
-115.58
-114.39
-113.51
-112.53
-111.00
-108.51
-104.64
-99.00
-91.26
-81.28
-69.08
-55.18
-40.50
-26.44
-14.64
-6.60
-3.28
-4.66
-9.67
-16.29
-22.07
-24.69
-22.60
-15.32
-3.52
11.28
27.23
42.63
56.33
67.77
76.85
83.66
88.32
90.86
91.42
90.27
87.95
85.14
82.60
80.94
80.49
81.24
82.89
84.84
86.35
86.70
85.34
82.03
76.87
70.28
62.86
55.15
47.43
39.63
31.30
21.89
10.93
-1.62
-15.19
-28.61
-40.18
-48.07
-50.62
-46.78
-36.35
-20.16
0.05
21.93
43.05
61.34
75.50
85.01
90.01
90.98
88.53
83.29
76.07
67.91
60.22
54.43
51.68
52.30
55.67
60.33
64.45
66.45
65.39
61.23
54.55
46.30
37.49
28.99
21.49
15.41
10.89
7.63
4.94
1.87
-2.41
-8.19
-14.91
-21.29
-25.60
-26.33
-22.62
-14.57
-3.04
10.59
24.89
38.65
50.88
60.74
67.40
70.16
68.66
63.10
54.40
44.05
33.76
25.06
19.01
16.09
16.20
18.77
22.96
27.68
31.86
34.54
35.10
33.28
29.17
23.12
15.54
6.83
-2.69
-12.81
-23.39
-34.39
-45.69
-56.87
-67.15
-75.33
-80.02
-80.01
-74.64
-64.13
-49.60
-32.83
-15.86
-0.42
12.38
22.18
29.25
34.12
37.32
39.14
39.72
39.13
37.57
35.37
32.98
30.81
29.10
27.86
26.90
25.83
24.18
21.48
17.48
12.29
6.53
1.16
-2.86
-5.02
-5.50
-5.27
-5.66
-7.93
-12.86
-20.60
-30.72
-42.37
-54.28
-64.80
-72.01
-74.05
-69.59
-58.40
-41.58
-21.31
-0.32
18.87
34.43
45.42
51.74
53.94
52.97
50.06
46.49
43.34
41.30
40.58
40.93
41.94
43.18
44.27
44.96
44.95
43.98
41.91
38.83
35.14
31.43
28.23
25.73
23.73
21.71
19.05
15.43
10.84
5.53
-0.16
-6.05
-12.11
-18.29
-24.28
-29.31
-32.23
-31.84
-27.45
-19.31
-8.73
2.23
11.55
17.99
21.47
22.93
23.60
24.13
24.24
22.85
18.83
11.78
2.37
-7.77
-16.70
-22.89
-25.61
-24.82
-21.08
-15.23
-8.31
-1.55
3.77
6.57
6.22
2.77
-3.05
-10.11
-17.10
-22.81
-26.45
-27.78
-27.33
-26.34
-26.49
-29.27
-35.40
-44.41
-54.82
-64.67
-72.19
-76.29
-76.50
-72.74
-65.14
-54.19
-41.04
-27.55
-16.01
-8.29
-5.18
-6.04
-9.26
-13.11
-16.42
-18.88
-20.72
-22.15
-23.07
-23.05
-21.60
-18.47
-13.70
-7.50
-0.08
8.32
17.23
25.71
32.37
35.57
34.07
27.60
17.23
5.11
-6.17
-14.54
-19.22
-20.73
-20.54
-20.24
-20.81
-22.41
-24.45
-26.14
-26.79
-25.98
-23.50
-19.19
-12.97
-4.84
4.90
15.66
26.56
36.61
44.91
50.85
54.21
55.13
54.08
51.53
47.85
43.23
37.75
31.48
24.58
17.35
10.10
3.16
-3.22
-8.83
-13.57
-17.45
-20.72
-23.91
-27.64
-32.44
-38.34
-44.96
-51.56
-57.49
-62.41
-66.34
-69.43
-71.49
-71.96
-69.98
-64.88
-56.55
-45.62
-33.21
-20.51
-8.37
2.90
13.39
23.29
32.71
41.49
49.31
55.78
60.54
63.32
64.09
63.01
60.46
56.90
52.77
48.36
43.82
39.18
34.47
29.76
25.06
20.30
15.27
9.57
2.82
-5.32
-15.03
-26.26
-38.74
-51.93
-64.95
-76.60
-85.47
-90.16
-89.63
-83.48
-72.05
-56.45
-38.34
-19.55
-1.86
13.32
25.14
33.34
38.23
40.48
40.94
40.42
39.53
38.65
37.94
37.38
36.86
36.17
35.06
33.33
30.87
27.70
23.87
19.39
14.13
7.92
0.71
-7.30
-15.57
-23.48
-30.47
-36.38
-41.48
-46.37
-51.70
-57.90
-64.82
-71.74
-77.36
-80.12
-78.64
-72.21
-61.14
-46.74
-30.98
-15.87
-2.81
7.63
15.71
22.06
27.23
31.34
34.08
34.98
33.75
30.58
26.08
21.11
16.39
12.29
8.78
5.52
2.15
-1.51
-5.31
-8.86
-11.75
-13.70
-14.75
-15.22
-15.62
-16.44
-18.11
-20.86
-24.78
-29.71
-35.22
-40.50
-44.37
-45.50
-42.71
-35.40
-23.69
-8.50
8.70
26.28
42.72
56.92
68.23
76.47
81.78
84.47
84.80
82.94
79.02
73.19
65.81
57.44
48.70
40.09
31.84
23.88
15.99
8.02
-0.03
-7.97
-15.59
-22.78
-29.57
-36.04
-42.18
-47.83
-52.82
-57.13
-61.06
-65.16
-69.89
-75.20
-80.32
-83.82
-84.07
-79.92
-71.09
-58.40
-43.49
-28.24
-14.20
-2.20
7.77
16.37
24.43
32.59
40.97
49.10
56.18
61.34
64.13
64.64
63.46
61.48
59.58
58.38
58.15
58.75
59.75
60.54
60.54
59.34
56.84
53.16
48.54
43.22
37.34
31.02
24.36
17.42
10.16
2.37
-6.16
-15.32
-24.42
-32.12
-36.81
-37.12
-32.56
-23.61
-11.49
2.30
16.48
29.98
41.80
50.84
56.01
56.69
53.14
46.70
39.42
33.37
29.88
29.24
30.75
33.23
35.47
36.62
36.31
34.50
31.43
27.38
22.71
17.84
13.22
9.29
6.31
4.33
3.09
2.16
0.98
-0.90
-3.75
-7.65
-12.41
-17.57
-22.29
-25.36
-25.40
-21.36
-13.02
-1.25
12.07
24.78
35.13
42.41
46.93
49.61
51.25
52.14
51.97
50.08
46.03
39.80
31.82
22.73
13.12
3.40
-6.18
-15.32
-23.65
-30.69
-36.04
-39.54
-41.33
-41.90
-41.89
-41.95
-42.55
-43.91
-46.00
-48.65
-51.74
-55.31
-59.64
-65.02
-71.58
-78.91
-85.97
-91.20
-92.90
-89.86
-81.68
-69.00
-53.21
-36.06
-19.21
-3.82
9.48
20.57
29.55
36.64
42.03
45.87
48.31
49.53
49.77
49.28
48.34
47.16
45.92
44.65
43.32
41.83
39.97
37.51
34.20
29.82
24.29
17.73
10.38
2.59
-5.38
-13.40
-21.54
-29.97
-38.95
-48.67
-59.18
-70.27
-81.31
-91.28
-98.84
-102.66
-101.84
-96.22
-86.51
-74.09
-60.68
-47.86
-36.86
-28.36
-22.60
-19.45
-18.52
-19.32
-21.27
-23.94
-27.02
-30.37
-34.05
-38.21
-43.03
-48.61
-54.83
-61.11
-66.41
-69.31
-68.55
-63.66
-55.45
-45.99
-37.95
-33.63
-34.11
-38.93
-46.51
-54.92
-62.57
-68.60
-72.64
-74.49
-73.71
-69.49
-60.95
-47.48
-29.23
-7.33
16.07
38.29
56.78
69.99
77.79
81.39
82.73
83.53
84.78
86.58
88.70
91.09
94.09
98.29
103.79
109.92
115.10
117.52
115.86
110.03
101.18
91.24
82.13
75.02
70.10
66.67
63.71
60.35
56.13
50.99
44.96
37.94
29.48
19.02
6.23
-8.56
-24.17
-38.70
-49.97
-56.17
-56.38
-50.90
-41.06
-28.86
-16.45
-5.56
2.63
7.61
9.37
8.18
4.48
-1.23
-8.37
-16.24
-24.03
-30.92
-36.18
-39.35
-40.28
-39.14
-36.34
-32.47
-28.21
-24.18
-20.92
-18.81
-18.01
-18.47
-20.01
-22.35
-25.23
-28.47
-32.01
-35.90
-40.31
-45.44
-51.32
-57.57
-63.31
-67.20
-67.69
-63.61
-54.57
-41.19
-25.01
-7.93
8.29
22.46
34.06
43.08
49.71
54.17
56.67
57.42
56.76
55.09
52.79
50.15
47.36
44.50
41.65
38.90
36.34
34.06
32.06
30.29
28.58
26.72
24.40
21.27
17.01
11.44
4.57
-3.44
-12.39
-22.05
-32.22
-42.63
-52.65
-61.20
-66.77
-67.76
-62.95
-51.99
-35.76
-16.13
4.43
23.56
39.52
51.52
59.64
64.48
66.83
67.37
66.51
64.50
61.49
57.71
53.48
49.23
45.28
41.78
38.59
35.44
32.02
28.21
24.06
19.72
15.28
10.70
5.82
0.49
-5.27
-11.28
-17.29
-23.20
-29.13
-35.43
-42.31
-49.52
-56.18
-60.84
-61.92
-58.24
-49.50
-36.44
-20.65
-4.06
11.54
24.97
35.64
43.51
48.75
51.60
52.32
51.17
48.52
44.81
40.47
35.86
31.24
26.80
22.72
19.17
16.33
14.24
12.77
11.61
10.33
8.54
6.03
2.78
-1.02
-5.09
-9.13
-12.98
-16.71
-20.66
-25.32
-31.17
-38.32
-46.25
-53.73
-59.02
-60.30
-56.34
-46.92
-33.03
-16.55
0.30
15.57
28.00
37.08
42.90
45.83
46.37
45.02
42.32
38.88
35.27
31.85
28.72
25.72
22.53
19.06
15.41
11.94
9.06
6.98
5.62
4.56
3.34
1.54
-1.00
-4.27
-8.12
-12.38
-16.94
-21.75
-26.83
-32.31
-38.46
-45.58
-53.79
-62.73
-71.35
-77.97
-80.71
-78.03
-69.40
-55.52
-38.08
-19.27
-1.03
15.35
29.32
40.95
50.48
58.15
64.13
68.66
72.18
75.25
78.33
81.52
84.40
86.16
85.94
83.30
78.41
72.03
65.12
58.38
52.01
45.67
38.82
31.06
22.40
13.24
4.14
-4.38
-12.06
-18.97
-25.43
-31.98
-39.14
-47.25
-56.24
-65.49
-73.80
-79.60
-81.36
-78.07
-69.57
-56.68
-41.06
-24.72
-9.60
2.95
12.28
18.44
21.90
23.25
23.03
21.65
19.45
16.77
14.00
11.50
9.53
8.13
7.19
6.49
5.90
5.40
5.07
4.99
5.14
5.20
4.67
3.00
-0.21
-5.04
-11.17
-17.96
-24.74
-31.00
-36.51
-41.42
-46.18
-51.38
-57.58
-64.92
-72.97
-80.58
-86.09
-87.76
-84.35
-75.52
-62.06
-45.57
-28.01
-11.16
3.74
16.11
25.89
33.30
38.68
42.35
44.64
45.88
46.38
46.39
46.00
45.21
43.95
42.15
39.82
37.08
34.08
30.95
27.75
24.43
20.85
16.80
12.00
6.23
-0.65
-8.59
-17.32
-26.37
-35.20
-43.41
-50.85
-57.72
-64.48
-71.68
-79.64
-88.22
-96.64
-103.55
-107.30
-106.46
-100.21
-88.73
-73.12
-55.09
-36.47
-18.82
-3.12
10.15
20.87
29.03
34.67
37.88
38.92
38.24
36.47
34.26
32.11
30.28
28.72
27.23
25.59
23.70
21.65
19.67
17.94
16.52
15.24
13.73
11.54
8.28
3.76
-1.95
-8.52
-15.50
-22.45
-29.11
-35.46
-41.69
-48.23
-55.49
-63.67
-72.48
-80.99
-87.65
-90.64
-88.37
-80.02
-65.90
-47.34
-26.38
-5.19
14.44
31.36
45.06
55.58
63.25
68.60
72.23
74.74
76.58
77.93
78.72
78.70
77.56
75.11
71.36
66.54
61.01
55.24
49.62
44.41
39.65
35.13
30.48
25.27
19.22
12.28
4.75
-2.86
-10.01
-16.33
-21.81
-26.89
-32.35
-39.04
-47.48
-57.50
-67.99
-77.09
-82.66
-82.88
-76.92
-65.19
-49.22
-31.15
-13.14
3.21
17.01
27.99
36.23
41.93
45.36
46.80
46.70
45.58
43.99
42.31
40.69
39.04
37.14
34.89
32.35
29.79
27.61
26.04
25.04
24.25
23.11
21.15
18.14
14.21
9.73
5.09
0.49
-4.10
-8.90
-14.18
-20.16
-26.96
-34.56
-42.78
-51.06
-58.52
-63.88
-65.81
-63.26
-55.78
-43.82
-28.70
-12.27
3.51
17.13
27.81
35.51
40.68
43.79
45.06
44.44
41.91
37.88
33.30
29.48
27.45
27.60
29.55
32.52
35.98
39.90
44.64
50.29
56.15
60.54
61.40
57.17
47.53
33.59
17.35
0.77
-14.96
-29.63
-43.64
-57.42
-70.83
-83.10
-92.99
-99.18
-100.64
-96.96
-88.33
-75.66
-60.46
-44.60
-29.93
-17.92
-9.35
-4.15
-1.59
-0.55
0.11
1.26
3.31
6.21
9.60
12.93
15.69
17.56
18.43
18.40
17.67
16.54
15.35
14.51
14.40
15.28
17.22
20.05
23.36
26.67
29.39
30.95
30.72
28.10
22.62
14.21
3.44
-8.44
-19.62
-28.22
-32.75
-32.51
-27.76
-19.55
-9.36
1.28
11.17
19.59
26.26
31.20
34.55
36.48
37.10
36.55
34.96
32.55
29.62
26.52
23.54
20.88
18.60
16.59
14.63
12.45
9.87
6.74
3.09
-1.00
-5.37
-9.85
-14.37
-18.96
-23.87
-29.53
-36.40
-44.76
-54.39
-64.36
-73.05
-78.53
-79.09
-73.80
-62.95
-47.91
-30.74
-13.65
1.70
14.43
24.39
31.97
37.59
41.49
43.59
43.56
41.06
36.00
28.67
19.79
10.36
1.37
-6.45
-12.76
-17.73
-21.74
-25.25
-28.54
-31.62
-34.30
-36.24
-37.17
-36.99
-35.84
-34.07
-32.18
-30.66
-29.83
-29.67
-29.75
-29.27
-27.27
-22.91
-15.77
-6.00
5.71
18.35
30.88
42.55
52.94
62.03
69.98
76.98
83.00
87.86
91.18
92.44
91.11
86.86
79.69
70.20
59.62
49.69
42.29
38.90
40.16
45.71
54.17
63.51
71.44
75.90
75.46
69.64
59.02
45.05
29.72
14.96
2.15
-8.20
-16.36
-23.05
-28.94
-34.25
-38.63
-41.24
-41.20
-37.88
-31.18
-21.62
-10.16
1.95
13.51
23.50
31.28
36.63
39.74
41.06
41.14
40.43
39.24
37.75
36.06
34.26
32.43
30.56
28.58
26.37
23.86
21.15
18.46
16.03
13.93
11.97
9.77
6.91
3.15
-1.53
-6.95
-12.86
-19.06
-25.52
-32.36
-39.83
-48.14
-57.26
-66.73
-75.57
-82.39
-85.73
-84.55
-78.61
-68.63
-56.08
-42.75
-30.22
-19.58
-11.31
-5.50
-2.02
-0.62
-0.97
-2.56
-4.73
-6.85
-8.47
-9.43
-9.92
-10.25
-10.62
-11.00
-11.05
-10.32
-8.51
-5.67
-2.19
1.27
4.04
5.67
5.98
5.05
3.12
0.41
-2.98
-7.10
-12.13
-18.35
-26.00
-35.24
-45.88
-57.19
-67.83
-75.99
-79.89
-78.29
-70.86
-58.40
-42.53
-25.17
-8.13
7.36
20.61
31.41
39.79
45.91
49.97
52.28
53.25
53.30
52.81
52.04
51.10
49.94
48.50
46.71
44.60
42.25
39.80
37.34
34.76
31.78
27.91
22.66
15.77
7.38
-1.96
-11.49
-20.52
-28.75
-36.26
-43.43
-50.73
-58.49
-66.89
-75.77
-84.64
-92.59
-98.33
-100.46
-97.85
-90.16
-77.99
-62.88
-46.78
-31.50
-18.30
-7.63
0.58
6.74
11.28
14.47
16.55
17.72
18.24
18.47
18.73
19.21
19.91
20.71
21.46
22.08
22.65
23.33
24.22
25.28
26.22
26.58
25.89
23.81
20.27
15.51
10.03
4.45
-0.61
-4.74
-7.90
-10.47
-13.15
-16.68
-21.52
-27.49
-33.72
-38.79
-41.17
-39.65
-33.71
-23.69
-10.62
4.02
18.67
31.98
43.06
51.42
57.01
60.04
60.89
60.02
57.99
55.27
52.27
49.22
46.19
43.12
39.94
36.66
33.40
30.31
27.54
25.12
22.97
20.84
18.39
15.14
10.59
4.42
-3.33
-12.14
-21.14
-29.28
-35.86
-40.76
-44.51
-48.15
-52.79
-59.17
-67.45
-77.00
-86.56
-94.55
-99.36
-99.80
-95.35
-86.29
-73.66
-59.04
-44.08
-30.22
-18.27
-8.43
-0.47
6.01
11.30
15.43
18.26
19.65
19.69
18.68
17.21
15.86
15.03
14.86
15.18
15.74
16.34
16.94
17.55
18.21
18.76
18.82
17.96
15.87
12.59
8.56
4.41
0.74
-2.22
-4.69
-7.31
-10.87
-16.06
-23.30
-32.60
-43.54
-55.29
-66.60
-75.95
-81.80
-82.91
-78.69
-69.48
-56.54
-41.76
-27.16
-14.39
-4.44
2.42
6.47
8.16
7.98
6.38
3.93
1.36
-0.44
-0.71
0.97
4.45
9.10
14.00
18.33
21.53
23.38
23.82
22.82
20.29
16.09
10.21
2.83
-5.57
-14.35
-22.75
-30.13
-36.00
-40.15
-42.63
-43.79
-44.17
-44.48
-45.38
-47.22
-49.85
-52.55
-54.18
-53.42
-49.19
-40.93
-28.75
-13.39
3.97
21.97
39.26
54.74
67.66
77.63
84.63
88.98
91.17
91.81
91.50
90.72
89.78
88.83
87.86
86.77
85.42
83.72
81.70
79.49
77.24
75.05
72.79
70.13
66.55
61.56
54.92
46.77
37.66
28.36
19.55
11.63
4.54
-2.13
-9.07
-16.91
-26.00
-36.20
-46.80
-56.46
-63.52
-66.34
-63.83
-55.79
-43.05
-27.32
-10.67
4.95
18.22
28.56
36.03
41.14
44.45
46.43
47.31
47.14
45.89
43.55
40.22
36.04
31.26
26.13
20.89
15.81
11.11
6.97
3.42
0.29
-2.79
-6.32
-10.82
-16.66
-23.92
-32.39
-41.60
-51.00
-60.19
-69.07
-77.93
-87.19
-97.09
-107.28
-116.64
-123.39
-125.58
-121.70
-111.23
-94.92
-74.55
-52.45
-30.93
-11.81
3.79
15.40
23.06
27.10
28.08
26.86
24.58
22.62
22.26
24.27
28.65
34.64
41.05
46.75
51.13
54.15
56.09
57.05
56.78
54.68
50.33
43.91
36.40
29.30
23.93
20.88
19.70
19.10
17.51
13.51
6.22
-4.68
-18.91
-35.47
-52.62
-67.88
-78.47
-82.03
-77.41
-65.16
-47.39
-27.12
-7.34
9.73
22.95
32.17
37.84
40.63
41.25
40.32
38.46
36.23
34.12
32.43
31.28
30.54
29.92
29.10
27.74
25.66
22.81
19.27
15.23
10.95
6.71
2.76
-0.70
-3.55
-5.72
-7.22
-8.26
-9.17
-10.54
-13.03
-17.07
-22.61
-28.82
-34.20
-36.89
-35.26
-28.52
-16.96
-1.91
14.73
31.07
45.62
57.63
66.94
73.82
78.65
81.76
83.34
83.42
82.02
79.23
75.29
70.51
65.24
59.84
54.59
49.75
45.54
42.10
39.38
37.11
34.80
31.87
27.95
22.94
17.03
10.60
3.95
-2.90
-10.21
-18.46
-28.03
-38.95
-50.70
-62.19
-71.95
-78.46
-80.55
-77.70
-70.24
-59.24
-46.28
-33.09
-21.11
-11.26
-3.85
1.32
4.72
6.83
8.05
8.63
8.64
8.09
6.90
5.04
2.49
-0.59
-3.83
-6.67
-8.56
-9.13
-8.46
-7.10
-5.89
-5.66
-6.99
-9.98
-14.31
-19.36
-24.48
-29.15
-33.15
-36.52
-39.59
-42.83
-46.60
-50.99
-55.56
-59.32
-60.84
-58.66
-51.70
-39.66
-23.21
-3.85
16.41
35.50
51.68
63.84
71.54
74.94
74.64
71.46
66.32
60.04
53.28
46.48
39.86
33.45
27.15
20.89
14.75
9.04
4.26
1.02
-0.21
0.68
3.36
7.01
10.53
12.83
13.12
11.04
6.79
0.92
-5.92
-13.18
-20.63
-28.33
-36.51
-45.29
-54.41
-63.09
-70.02
-73.75
-73.09
-67.67
-58.19
-46.29
-34.06
-23.34
-15.10
-9.37
-5.43
-2.37
0.48
3.34
6.14
8.68
10.81
12.50
13.72
14.47
14.82
14.97
15.26
16.03
17.42
19.28
21.21
22.75
23.56
23.49
22.60
21.08
19.27
17.63
16.54
16.21
16.34
16.26
15.00
11.73
6.01
-2.07
-11.94
-22.65
-32.99
-41.55
-46.93
-48.15
-44.95
-37.97
-28.55
-18.29
-8.45
0.36
8.20
15.63
23.33
31.83
41.25
51.17
60.63
68.35
73.11
74.25
71.97
67.23
61.38
55.64
50.79
47.15
44.83
43.84
44.01
44.82
45.27
44.02
39.87
32.33
21.92
10.10
-1.31
-10.80
-17.66
-22.08
-24.94
-27.39
-30.43
-34.67
-40.21
-46.64
-53.06
-58.21
-60.74
-59.59
-54.38
-45.57
-34.37
-22.36
-10.85
-0.62
8.19
15.72
22.02
26.86
29.79
30.52
29.22
26.57
23.54
20.93
19.12
18.03
17.39
17.09
17.22
18.02
19.46
21.07
22.08
21.76
19.79
16.47
12.44
8.31
4.22
-0.23
-5.73
-12.89
-21.89
-32.35
-43.48
-54.25
-63.58
-70.50
-74.17
-74.16
-70.51
-63.84
-55.24
-45.96
-36.99
-28.88
-21.65
-15.04
-8.86
-3.22
1.52
4.79
6.13
5.40
2.78
-1.30
-6.34
-11.91
-17.68
-23.42
-28.95
-34.12
-38.85
-43.13
-47.06
-50.80
-54.48
-58.14
-61.64
-64.77
-67.26
-69.03
-70.23
-71.27
-72.70
-74.86
-77.59
-80.03
-80.66
-77.82
-70.28
-57.83
-41.44
-23.02
-4.82
11.23
23.97
33.08
38.91
42.11
43.32
43.02
41.52
38.99
35.61
31.66
27.64
24.31
22.54
22.93
25.50
29.41
33.06
34.60
32.66
26.96
18.51
9.21
0.97
-5.21
-9.66
-13.80
-19.55
-28.28
-40.34
-54.82
-69.76
-82.54
-90.27
-90.34
-81.25
-63.48
-39.93
-15.44
4.83
17.68
23.53
26.64
33.45
49.70
77.80
115.72
157.80
197.09
227.79
246.75
253.49
249.26
235.67
214.00
185.18
150.37
111.59
71.90
34.92
3.85
-19.60
-35.84
-47.33
-57.56
-69.84
-86.12
-106.54
-129.80
-153.87
-176.87
-197.48
-214.98
-228.95
-239.03
-244.65
-244.97
-238.84
-225.07
-202.92
-172.74
-136.39
-97.10
-58.71
-24.49
3.74
25.94
43.19
56.75
67.28
74.72
78.87
80.00
79.24
78.22
78.37
80.17
83.08
85.76
86.85
85.55
81.90
76.60
70.50
64.18
57.60
50.27
41.55
31.03
18.80
5.43
-8.03
-20.33
-30.11
-36.14
-37.49
-33.81
-25.48
-13.65
0.03
13.96
26.97
38.61
48.90
57.85
65.07
69.70
70.75
67.55
60.27
49.85
37.83
25.82
15.17
6.72
0.88
-2.30
-3.03
-1.76
0.79
3.81
6.52
8.30
8.76
7.74
5.14
0.92
-5.02
-12.77
-22.26
-33.06
-44.21
-54.25
-61.32
-63.58
-59.69
-49.30
-33.24
-13.48
7.36
26.65
42.41
53.66
60.47
63.67
64.34
63.44
61.57
59.02
55.88
52.21
48.08
43.51
38.44
32.72
26.19
18.83
10.87
2.80
-4.80
-11.44
-16.84
-21.04
-24.38
-27.44
-30.90
-35.37
-41.20
-48.31
-56.10
-63.45
-68.93
-71.16
-69.15
-62.58
-51.93
-38.31
-23.22
-8.16
5.63
17.32
26.59
33.45
38.13
40.89
41.99
41.69
40.23
37.95
35.27
32.67
30.54
29.08
28.16
27.38
26.18
24.15
21.14
17.27
12.84
8.02
2.75
-3.22
-10.19
-18.23
-27.14
-36.43
-45.41
-53.26
-59.02
-61.59
-59.98
-53.62
-42.66
-28.16
-11.89
4.12
18.15
29.16
36.91
41.69
44.06
44.53
43.51
41.32
38.33
35.06
31.99
29.49
27.67
26.36
25.21
23.90
22.27
20.34
18.23
16.02
13.71
11.19
8.34
5.05
1.23
-3.24
-8.54
-14.84
-22.17
-30.20
-38.21
-45.11
-49.61
-50.53
-47.13
-39.37
-28.01
-14.49
-0.56
12.13
22.39
29.69
34.03
35.77
35.37
33.20
29.63
25.04
19.87
14.62
9.77
5.60
2.21
-0.55
-2.90
-5.05
-7.17
-9.29
-11.39
-13.49
-15.63
-17.88
-20.29
-22.76
-25.20
-27.59
-30.09
-33.08
-36.99
-41.98
-47.66
-52.99
-56.47
-56.67
-52.61
-44.29
-32.57
-18.95
-5.11
7.64
18.46
27.02
33.33
37.52
39.73
40.14
39.01
36.72
33.69
30.34
26.96
23.69
20.57
17.65
15.02
12.82
11.12
9.82
8.65
7.23
5.28
2.68
-0.45
-3.86
-7.36
-10.84
-14.37
-18.09
-22.22
-26.98
-32.60
-39.03
-45.75
-51.51
-54.46
-52.58
-44.49
-30.12
-10.86
10.75
31.98
50.81
66.47
79.39
90.62
101.16
111.44
121.11
129.18
134.33
135.21
130.88
121.01
106.27
88.68
71.76
60.16
58.62
70.34
95.30
129.54
165.87
195.98
213.31
215.02
202.59
180.46
153.68
125.80
97.95
69.50
39.61
8.68
-21.24
-47.01
-65.76
-76.04
-78.34
-74.67
-67.72
-59.88
-52.61
-46.46
-41.25
-36.50
-31.78
-26.86
-21.74
-16.44
-10.73
-3.88
5.27
17.72
33.59
51.14
67.02
76.96
77.34
66.56
45.35
15.91
-19.49
-59.36
-102.35
-145.83
-184.84
-212.73
-223.58
-215.10
-190.32
-156.56
-122.41
-94.07
-73.33
-58.14
-45.07
-31.92
-18.99
-8.32
-1.84
0.10
-0.93
-2.42
-2.31
0.13
4.36
9.06
13.22
16.59
19.71
23.34
27.82
32.67
36.52
37.56
34.05
25.02
10.53
-8.33
-29.82
-52.06
-73.45
-93.10
-110.87
-127.25
-142.99
-158.78
-174.95
-191.32
-207.31
-222.18
-235.17
-245.70
-253.47
-258.47
-260.98
-261.52
-260.66
-258.80
-255.86
-251.14
-243.37
-230.99
-212.65
-187.55
-155.69
-117.73
-74.74
-28.06
20.85
70.35
118.50
163.14
202.25
234.33
258.90
276.60
288.92
297.70
304.50
310.24
315.15
319.00
321.53
322.60
322.26
320.68
318.00
314.28
309.47
303.35
295.39
284.78
270.45
251.56
227.74
199.33
167.11
131.98
94.61
55.55
15.58
-23.88
-60.59
-91.82
-115.09
-128.89
-133.01
-128.44
-117.00
-100.80
-82.00
-62.53
-44.01
-27.73
-14.70
-5.86
-2.32
-5.38
-16.28
-35.76
-63.73
-99.14
-140.31
-185.39
-232.74
-280.94
-328.45
-373.27
-412.88
-444.56
-466.13
-476.56
-476.33
-467.28
-452.10
-433.68
-414.51
-396.37
-380.23
-366.26
-353.91
-341.95
-328.77
-312.75
-292.70
-268.32
-240.33
-210.16
-179.45
-149.48
-120.83
-93.33
-66.32
-38.89
-10.19
20.04
51.21
81.60
108.67
129.70
142.89
148.05
146.83
141.98
136.29
131.52
128.07
125.36
122.59
119.40
116.15
113.50
112.02
111.72
111.99
111.80
110.00
105.62
98.05
87.28
73.97
59.51
45.89
35.37
29.97
30.96
38.55
51.76
68.69
87.02
104.55
119.63
131.35
139.39
143.73
144.42
141.47
134.90
124.94
112.25
97.93
83.34
69.90
58.77
50.59
45.42
42.75
41.66
41.05
39.89
37.38
33.07
26.81
18.73
9.14
-1.42
-12.24
-22.41
-30.91
-36.63
-38.52
-35.79
-28.11
-15.81
-0.01
17.56
34.91
50.37
63.08
73.26
81.95
90.48
99.72
109.68
119.44
127.69
133.44
136.54
137.80
138.59
140.19
143.19
147.29
151.50
154.72
156.26
156.03
154.51
152.27
149.58
146.11
141.06
133.50
123.02
110.17
96.77
85.74
80.66
85.00
101.19
129.85
169.14
214.82
260.83
300.64
328.92
342.83
342.64
331.17
312.52
290.65
268.29
246.81
226.61
207.70
190.13
173.88
158.60
143.51
127.52
109.73
89.87
68.43
46.47
25.06
4.82
-14.45
-33.63
-53.97
-76.70
-102.60
-131.75
-163.39
-196.01
-227.61
-256.13
-279.87
-297.69
-309.06
-313.87
-312.14
-304.05
-290.14
-271.65
-250.59
-229.58
-211.24
-197.65
-189.93
-188.15
-191.64
-199.23
-209.49
-220.84
-231.65
-240.45
-246.10
-247.92
-245.69
-239.34
-228.58
-212.69
-190.53
-161.05
-123.98
-80.36
-32.80
15.06
59.38
97.17
126.94
148.68
163.38
172.37
176.91
178.13
177.37
176.33
176.96
180.89
188.84
200.21
213.28
225.88
236.11
242.94
246.25
246.53
244.35
240.02
233.66
225.42
215.84
206.00
197.37
191.28
188.53
188.99
191.59
194.58
195.99
194.10
187.82
176.89
161.83
143.73
123.92
103.58
83.55
64.16
45.21
26.05
5.78
-16.35
-40.27
-64.64
-86.83
-103.44
-111.55
-109.90
-99.58
-83.66
-66.21
-50.94
-40.42
-35.74
-36.83
-42.76
-52.06
-62.74
-72.58
-79.63
-82.73
-81.95
-78.38
-73.52
-68.53
-63.89
-59.49
-55.04
-50.46
-45.96
-41.79
-37.93
-34.16
-30.31
-26.81
-24.80
-26.01
-31.99
-43.42
-59.72
-79.24
-99.81
-119.47
-136.89
-151.61
-163.80
-174.09
-183.26
-191.97
-200.57
-209.02
-216.87
-223.61
-228.97
-233.28
-237.41
-242.42
-249.06
-257.40
-266.71
-275.80
-283.45
-288.83
-291.68
-292.29
-291.21
-288.94
-285.67
-281.30
-275.43
-267.84
-258.61
-248.35
-238.10
-228.98
-221.96
-217.68
-216.38
-217.96
-221.78
-226.63
-230.57
-231.20
-226.16
-213.84
-193.92
-167.50
-136.75
-104.23
-72.27
-42.52
-15.79
7.66
27.88
44.93
58.78
69.35
76.68
81.15
83.49
84.70
85.74
87.32
89.71
92.84
96.56
100.91
106.16
112.71
120.72
129.93
139.57
148.59
155.92
160.76
162.74
161.96
158.91
154.49
149.92
146.71
146.28
149.60
156.75
166.78
177.80
187.54
194.00
196.00
193.26
186.22
175.61
162.11
146.25
128.72
110.54
93.12
77.98
66.19
57.92
52.40
48.36
44.75
41.37
38.92
38.60
41.28
46.90
54.28
61.45
66.27
66.97
62.51
52.69
38.20
20.72
2.94
-11.74
-19.95
-19.43
-10.01
6.10
24.73
41.12
51.33
53.41
47.67
36.13
21.45
5.90
-9.13
-23.16
-36.05
-47.55
-57.02
-63.63
-66.87
-66.96
-65.01
-62.90
-62.67
-66.08
-74.20
-87.07
-103.58
-121.33
-136.54
-144.56
-140.83
-122.50
-89.88
-47.08
-1.24
39.64
69.27
85.07
88.65
84.57
78.15
73.44
72.27
74.64
79.77
87.03
96.07
106.31
116.30
123.74
126.26
122.56
113.33
101.06
89.15
80.34
75.41
72.95
70.10
64.08
53.56
39.47
24.56
12.18
4.68
2.38
3.36
4.38
2.40
-4.25
-15.51
-30.22
-47.13
-65.56
-85.30
-105.85
-125.55
-141.57
-150.57
-149.97
-139.07
-119.20
-93.04
-63.49
-33.01
-3.77
21.79
40.68
49.95
48.13
36.62
19.96
4.57
-3.64
-1.67
9.54
25.85
42.04
54.07
60.32
61.43
59.22
55.33
50.55
44.87
37.97
29.57
19.62
8.10
-5.23
-20.68
-38.33
-57.57
-76.87
-94.14
-107.28
-114.97
-116.90
-113.70
-106.42
-96.11
-83.64
-69.78
-55.34
-41.07
-27.41
-14.39
-1.66
11.18
24.29
37.55
50.79
64.01
77.39
90.80
103.17
112.13
114.60
107.86
90.68
63.84
29.70
-8.60
-47.85
-84.79
-115.79
-136.67
-143.35
-133.39
-107.59
-70.63
-30.10
5.80
31.02
43.38
44.70
39.64
34.11
34.03
44.45
68.47
106.07
153.11
201.47
240.97
262.48
261.12
237.65
197.46
147.62
93.67
38.04
-19.40
-79.08
-139.62
-196.97
-245.51
-280.17
-298.44
-301.15
-291.83
-275.08
-254.95
-233.74
-212.24
-190.53
-168.98
-148.85
-132.02
-120.11
-113.64
-111.61
-111.71
-111.16
-107.63
-99.89
-88.06
-73.20
-56.71
-39.68
-22.61
-5.43
12.11
30.04
47.92
64.92
80.13
92.84
102.85
110.37
115.79
119.47
121.49
121.58
119.24
113.89
104.99
92.33
76.16
57.35
37.39
18.10
1.26
-11.97
-21.24
-27.05
-30.47
-32.75
-34.96
-37.85
-41.92
-47.49
-54.86
-64.18
-75.38
-88.08
-101.50
-114.56
-126.06
-134.83
-140.07
-141.51
-139.45
-134.69
-128.09
-120.07
-110.34
-97.96
-81.87
-61.59
-37.74
-12.06
13.30
36.57
56.95
74.62
90.22
104.15
116.43
126.85
135.58
143.52
152.15
162.78
175.65
189.49
201.60
208.76
208.29
198.96
181.29
157.34
129.97
101.81
74.49
47.96
20.56
-10.15
-45.88
-86.18
-127.30
-162.50
-183.84
-184.59
-161.84
-117.87
-59.98
1.19
53.97
87.98
96.34
77.53
36.15
-17.73
-70.96
-111.02
-129.73
-125.30
-102.05
-67.72
-30.06
5.84
38.22
67.70
95.53
122.30
147.71
171.04
191.70
209.54
224.94
238.44
250.57
261.68
271.53
279.32
283.89
284.04
278.80
267.63
250.27
226.57
196.47
160.50
120.32
79.10
41.23
11.05
-8.60
-17.49
-18.09
-14.66
-11.65
-12.33
-18.05
-28.39
-41.88
-56.74
-71.53
-85.35
-97.87
-109.19
-119.64
-129.53
-139.02
-147.96
-155.98
-162.66
-167.72
-171.15
-173.24
-174.42
-175.00
-174.95
-173.76
-170.47
-163.85
-152.79
-136.73
-116.04
-92.16
-67.41
-44.64
-26.57
-15.22
-11.32
-13.94
-20.33
-26.38
-27.52
-19.94
-1.86
25.85
59.83
95.28
127.40
152.70
169.66
178.64
181.16
179.04
173.86
166.73
158.21
148.32
136.38
121.09
100.97
75.15
44.14
10.23
-23.04
-52.07
-74.46
-89.90
-100.02
-107.58
-115.30
-125.02
-137.34
-151.84
-167.57
-183.31
-197.88
-210.12
-218.94
-223.32
-222.45
-215.84
-203.61
-186.58
-166.27
-144.50
-123.00
-102.92
-84.88
-69.19
-56.24
-46.72
-41.36
-40.32
-42.67
-46.07
-47.31
-43.12
-31.16
-10.61
17.70
51.74
88.79
125.96
160.51
190.02
212.61
227.10
233.16
231.37
223.13
210.51
196.02
182.24
171.46
165.23
163.85
166.29
170.39
173.35
172.44
165.51
151.25
129.39
100.79
67.46
32.54
-0.10
-26.66
-44.27
-51.70
-49.66
-40.40
-27.09
-12.95
-0.71
7.76
11.48
10.32
4.78
-4.20
-15.36
-27.37
-39.01
-49.25
-57.29
-62.63
-64.87
-63.66
-58.60
-49.19
-34.91
-15.38
9.42
38.99
72.03
106.35
138.55
164.35
179.27
179.72
164.25
134.21
93.48
47.37
1.04
-41.77
-79.03
-110.04
-134.62
-152.45
-163.01
-166.00
-161.87
-152.01
-138.80
-125.02
-113.38
-105.88
-103.28
-104.90
-108.95
-113.37
-116.88
-119.89
-124.47
-133.35
-148.33
-168.74
-190.85
-208.83
-216.53
-209.58
-186.65
-149.56
-102.39
-50.21
1.98
49.88
90.26
121.15
141.96
153.47
157.45
156.07
151.21
144.04
134.83
123.17
108.33
89.81
67.70
43.12
18.27
-3.76
-19.70
-27.21
-25.82
-17.43
-5.95
3.67
6.80
0.27
-16.86
-42.94
-73.91
-103.77
-125.85
-134.47
-126.87
-104.59
-73.49
-42.20
-19.19
-9.80
-14.30
-28.13
-43.98
-54.67
-55.65
-46.12
-28.54
-7.42
12.09
25.17
28.01
18.32
-4.13
-37.23
-76.67
-116.98
-152.87
-180.66
-198.83
-207.75
-208.69
-202.79
-190.53
-171.91
-146.93
-116.08
-80.40
-41.47
-1.30
37.65
72.65
101.18
121.96
135.64
145.01
153.97
165.97
182.35
201.72
220.66
235.34
243.12
243.45
237.58
227.61
215.48
202.33
188.65
174.50
159.83
144.56
128.43
110.93
91.31
68.93
43.59
15.85
-13.08
-41.65
-68.39
-92.21
-112.47
-128.66
-140.16
-145.95
-144.64
-134.82
-115.44
-86.35
-48.71
-5.35
39.13
78.79
107.44
120.24
115.18
93.84
60.92
22.61
-15.42
-49.55
-78.60
-103.01
-123.48
-139.76
-150.41
-153.48
-147.64
-133.01
-111.23
-84.64
-55.34
-24.58
7.26
40.03
73.04
104.78
133.30
157.00
175.47
189.60
201.06
211.36
221.27
230.66
238.87
244.99
248.09
247.34
242.02
232.00
217.97
201.41
184.22
167.78
152.42
137.29
121.20
103.83
86.51
72.05
63.41
61.97
66.54
73.61
78.76
78.48
71.51
58.88
43.09
26.80
11.83
-0.96
-11.30
-19.01
-23.90
-26.06
-26.34
-26.47
-28.73
-35.42
-48.22
-67.85
-93.88
-124.79
-158.10
-190.62
-218.83
-239.23
-248.90
-245.85
-229.42
-200.49
-161.45
-115.90
-68.14
-22.56
16.92
47.26
66.48
73.81
69.90
57.07
39.31
21.83
10.01
7.98
17.32
36.53
61.52
86.95
107.90
121.14
125.71
122.52
113.65
101.43
87.93
74.80
63.35
54.59
49.30
48.05
51.25
59.24
72.34
90.67
113.85
140.58
168.40
193.72
212.47
220.97
216.91
200.04
172.13
136.51
97.02
56.89
18.03
-19.30
-55.98
-93.17
-131.24
-169.11
-204.13
-232.60
-250.89
-256.43
-248.43
-228.11
-198.21
-162.13
-123.23
-84.29
-47.19
-12.80
19.04
49.37
79.61
110.76
142.59
172.98
198.32
214.49
218.48
209.66
190.15
164.06
135.98
109.51
86.49
67.06
50.34
35.21
20.65
5.84
-9.89
-27.10
-45.95
-65.99
-86.09
-104.75
-120.63
-133.02
-141.96
-148.18
-152.69
-156.51
-160.51
-165.38
-171.81
-180.51
-192.21
-207.37
-226.00
-247.44
-270.48
-293.66
-315.73
-335.88
-353.90
-369.89
-384.14
-396.96
-408.81
-420.39
-432.51
-445.57
-458.94
-470.68
-477.74
-476.99
-466.41
-445.98
-417.75
-385.06
-351.32
-319.05
-289.48
-262.72
-238.31
-215.68
-194.41
-174.08
-154.31
-134.73
-115.20
-95.93
-77.45
-60.37
-45.04
-31.26
-18.40
-5.65
7.49
20.86
33.73
45.11
54.38
61.74
68.35
75.90
85.95
99.22
115.26
132.84
150.56
167.69
184.57
202.64
223.88
250.47
284.29
326.44
376.40
431.13
484.79
529.62
558.27
566.54
555.24
530.02
499.07
469.74
445.99
427.67
412.03
396.06
378.45
359.90
342.06
325.98
311.04
295.13
275.69
250.90
220.53
186.06
150.04
115.19
83.72
57.05
35.86
20.40
10.59
6.00
5.66
7.91
10.52
11.01
7.09
-2.80
-19.14
-41.01
-66.18
-91.56
-113.95
-131.01
-141.91
-147.50
-149.78
-150.94
-152.34
-154.07
-155.00
-153.54
-148.39
-139.19
-126.66
-112.35
-98.26
-86.37
-78.41
-75.54
-78.17
-85.70
-96.40
-107.63
-116.43
-120.41
-118.64
-112.14
-103.45
-95.83
-92.07
-93.64
-100.53
-111.56
-125.16
-139.86
-154.59
-168.63
-181.64
-193.55
-204.49
-214.62
-223.73
-231.01
-235.11
-234.68
-229.01
-218.58
-205.02
-190.60
-177.52
-167.41
-161.21
-159.33
-161.87
-168.43
-177.82
-187.76
-195.13
-196.78
-190.55
-176.10
-154.96
-129.83
-103.47
-77.57
-52.36
-26.76
0.63
30.42
61.59
91.31
115.72
131.32
136.52
132.51
123.06
113.16
107.16
107.28
113.09
122.30
132.03
140.03
145.25
147.59
147.23
144.19
138.18
128.86
116.24
100.99
84.61
69.35
57.98
53.28
57.41
71.23
93.92
123.05
155.16
186.73
215.17
239.49
260.34
279.68
300.05
323.99
353.37
388.65
428.24
468.11
502.42
524.90
530.95
519.18
491.93
454.16
411.48
368.25
326.59
286.77
248.22
210.52
173.61
137.40
101.24
63.80
23.59
-20.41
-68.17
-118.58
-169.50
-218.07
-261.12
-295.75
-319.91
-332.97
-335.90
-330.83
-320.21
-305.99
-289.10
-269.70
-247.92
-224.52
-201.12
-179.88
-162.66
-150.27
-142.26
-137.19
-133.40
-129.67
-125.62
-121.66
-118.55
-116.84
-116.57
-117.31
-118.49
-119.79
-121.42
-123.95
-127.93
-133.36
-139.42
-144.56
-147.00
-145.43
-139.42
-129.58
-117.19
-103.63
-89.68
-75.20
-59.20
-40.34
-17.62
8.99
38.27
68.04
95.79
119.52
138.22
152.05
161.96
169.16
174.64
178.87
181.82
183.12
182.31
179.03
173.09
164.44
153.06
138.82
121.40
100.43
75.74
47.81
18.10
-10.95
-36.36
-55.42
-66.68
-70.40
-68.47
-63.76
-59.14
-56.79
-57.90
-62.77
-71.20
-82.65
-96.32
-110.87
-124.50
-135.28
-141.61
-142.74
-138.89
-131.11
-120.70
-108.89
-96.46
-83.84
-71.15
-58.47
-45.94
-33.90
-22.90
-13.62
-6.80
-3.01
-2.55
-5.20
-10.20
-16.26
-21.75
-25.01
-24.70
-20.07
-11.11
1.45
16.39
32.26
47.67
61.53
73.14
82.12
88.30
91.65
92.21
90.13
85.82
79.91
73.31
66.93
61.45
57.15
53.88
51.25
48.89
46.58
44.32
42.23
40.37
38.65
36.81
34.52
31.45
27.32
21.96
15.38
7.88
0.19
-6.52
-10.86
-11.51
-7.68
0.63
12.60
26.78
41.54
55.42
67.39
76.92
83.90
88.52
91.15
92.29
92.36
91.66
90.28
88.17
85.20
81.33
76.63
71.43
66.24
61.69
58.44
56.91
57.04
58.19
59.24
58.92
56.34
51.35
44.71
37.81
32.29
29.73
31.41
38.34
51.19
70.20
94.77
123.28
152.97
180.24
201.34
213.15
213.79
202.90
181.74
152.99
120.48
88.63
61.76
42.96
33.17
30.61
31.30
30.19
22.95
7.30
-16.59
-46.71
-80.51
-116.25
-153.55
-193.31
-236.65
-283.80
-333.28
-381.96
-425.72
-460.63
-483.96
-494.44
-492.13
-477.91
-452.97
-418.79
-377.44
-331.66
-284.62
-239.24
-197.26
-158.66
-121.87
-84.56
-44.93
-2.69
40.70
82.47
119.63
150.09
173.31
190.36
203.26
214.24
225.04
236.63
249.18
262.26
274.86
285.49
292.33
293.60
287.90
274.54
253.61
225.74
192.13
154.54
115.36
77.52
43.96
17.16
-1.35
-11.00
-11.99
-5.03
8.74
27.46
48.56
68.94
85.73
97.12
102.77
103.67
101.22
96.46
89.60
80.34
68.40
54.07
38.22
21.89
5.89
-9.50
-24.46
-39.36
-54.51
-69.92
-85.22
-99.58
-111.71
-120.09
-123.28
-120.46
-111.80
-98.57
-82.84
-67.01
-53.06
-42.16
-34.40
-28.88
-24.02
-18.00
-9.34
2.72
18.01
35.65
54.40
73.00
90.44
105.95
119.00
129.24
136.53
140.74
141.73
139.12
132.42
121.28
105.89
87.19
66.88
46.87
28.76
13.39
0.82
-9.39
-17.76
-24.79
-30.85
-36.52
-42.71
-50.62
-61.50
-76.11
-94.36
-115.12
-136.45
-156.11
-172.25
-183.79
-190.67
-193.54
-193.44
-191.39
-188.27
-184.88
-182.08
-180.73
-181.58
-185.01
-190.86
-198.50
-206.96
-215.15
-222.07
-226.78
-228.50
-226.56
-220.52
-210.08
-194.99
-174.90
-149.47
-118.79
-83.79
-46.44
-9.40
24.54
53.19
75.10
89.44
95.64
93.25
82.46
64.42
41.42
16.20
-8.89
-32.44
-53.58
-71.15
-82.89
-85.70
-76.70
-54.63
-20.44
22.99
71.71
121.56
168.44
208.46
238.07
254.80
258.12
249.85
233.57
213.21
191.50
169.31
146.10
121.10
94.33
66.90
40.40
15.95
-6.40
-27.48
-48.37
-69.43
-89.94
-108.08
-121.69
-129.04
-129.49
-123.59
-112.78
-98.86
-83.50
-68.04
-53.36
-40.07
-28.56
-19.12
-11.90
-6.88
-3.82
-2.24
-1.60
-1.43
-1.61
-2.36
-4.14
-7.41
-12.30
-18.54
-25.45
-32.21
-38.17
-43.13
-47.37
-51.60
-56.66
-63.27
-71.73
-81.63
-91.86
-100.73
-106.50
-107.97
-104.98
-98.51
-90.38
-82.56
-76.49
-72.71
-70.96
-70.54
-70.73
-71.01
-70.94
-69.91
-67.12
-61.67
-53.02
-41.33
-27.50
-12.97
0.83
12.95
23.12
31.66
39.11
45.84
51.78
56.43
59.01
58.82
55.54
49.40
41.23
32.37
24.56
19.54
18.84
23.31
32.98
46.97
63.68
81.20
97.66
111.68
122.43
129.68
133.56
134.44
132.76
128.98
123.60
117.21
110.33
103.39
96.64
90.12
83.72
77.35
71.06
65.17
60.12
56.27
53.66
51.83
49.93
47.05
42.56
36.43
29.37
22.65
17.87
16.55
19.79
28.08
41.10
57.86
76.89
96.59
115.60
133.17
149.15
163.76
177.04
188.41
196.49
199.32
195.11
182.87
162.95
136.98
107.44
76.98
47.81
21.41
-1.42
-20.44
-35.70
-47.43
-55.99
-61.80
-65.37
-67.25
-67.92
-67.78
-67.15
-66.30
-65.52
-65.15
-65.36
-65.93
-65.87
-63.41
-56.13
-41.63
-18.18
14.66
55.95
103.44
154.04
204.30
250.83
290.52
320.84
340.06
347.50
343.77
330.73
311.16
288.17
264.55
242.22
222.03
203.98
187.62
172.48
158.32
145.10
132.85
121.58
111.17
101.60
92.92
85.31
78.92
73.66
69.12
64.58
59.18
52.25
43.50
33.13
21.64
9.65
-2.51
-14.94
-28.11
-42.67
-59.09
-77.43
-97.33
-118.10
-139.04
-159.75
-180.29
-201.31
-223.92
-249.49
-279.13
-313.00
-349.72
-386.17
-418.11
-441.43
-453.53
-454.21
-445.63
-431.12
-413.71
-394.90
-374.31
-350.37
-321.47
-287.08
-248.25
-207.56
-168.48
-134.69
-109.27
-94.00
-88.77
-91.41
-98.02
-103.95
-105.19
-99.55
-87.24
-70.55
-52.82
-37.06
-25.06
-17.11
-12.40
-9.84
-8.74
-9.13
-11.54
-16.58
-24.41
-34.46
-45.44
-55.54
-62.90
-66.02
-64.26
-58.02
-48.71
-38.48
-29.55
-23.68
-21.78
-23.79
-28.90
-35.90
-43.39
-49.96
-54.23
-54.92
-51.00
-42.04
-28.32
-10.92
8.56
28.45
47.39
64.52
79.48
92.08
102.14
109.26
112.84
112.30
107.31
98.05
85.28
70.31
54.68
39.83
26.83
16.19
7.89
1.57
-3.29
-7.17
-10.49
-13.62
-17.01
-21.16
-26.62
-33.82
-42.85
-53.41
-64.75
-75.81
-85.46
-92.61
-96.31
-95.73
-90.16
-79.08
-62.36
-40.44
-14.45
13.98
43.14
71.66
98.90
124.88
149.99
174.59
198.49
220.98
240.95
257.24
269.00
275.96
278.58
277.99
275.71
273.20
271.35
269.99
267.91
263.09
253.46
237.70
215.81
189.26
160.68
133.12
109.22
90.59
77.36
68.15
60.41
51.11
37.68
18.94
-4.40
-29.85
-53.85
-73.03
-85.23
-90.10
-89.06
-84.51
-79.08
-74.92
-73.41
-75.10
-79.84
-86.83
-94.66
-101.62
-106.01
-106.86
-104.20
-99.20
-93.67
-89.35
-87.25
-87.40
-89.01
-90.97
-92.51
-93.52
-94.53
-96.40
-99.91
-105.44
-112.92
-121.99
-132.26
-143.52
-155.83
-169.28
-183.83
-199.13
-214.42
-228.78
-241.22
-250.80
-256.86
-259.07
-257.65
-253.45
-247.92
-242.84
-239.97
-240.56
-245.00
-252.60
-261.65
-269.76
-274.38
-273.51
-266.19
-252.88
-235.26
-215.64
-196.23
-178.40
-162.45
-147.84
-133.68
-119.33
-104.81
-90.81
-78.40
-68.73
-62.71
-60.90
-63.36
-69.49
-77.95
-86.62
-92.97
-94.70
-90.44
-80.15
-65.04
-47.02
-27.90
-8.91
9.43
27.03
43.85
59.67
74.26
87.60
100.10
112.67
126.47
142.51
161.25
182.20
203.84
223.93
240.10
250.67
255.15
254.41
250.19
244.46
238.68
233.43
228.45
223.06
216.63
208.97
200.51
192.18
185.23
180.99
180.63
184.94
194.11
207.67
224.56
243.29
262.24
279.80
294.50
304.96
309.91
308.28
299.46
283.59
261.63
235.07
205.42
173.68
140.20
104.90
67.92
30.17
-6.55
-39.88
-67.54
-88.12
-101.46
-108.72
-112.07
-114.23
-117.85
-124.82
-135.74
-149.60
-164.03
-175.95
-182.66
-182.69
-176.22
-164.81
-150.65
-135.73
-121.43
-108.59
-97.76
-89.47
-84.19
-81.97
-82.17
-83.48
-84.31
-83.33
-79.93
-74.33
-67.41
-60.23
-53.75
-48.55
-44.82
-42.36
-40.70
-39.27
-37.64
-35.83
-34.48
-34.86
-38.42
-46.32
-58.91
-75.40
-93.88
-111.64
-125.69
-133.43
-133.21
-124.69
-108.85
-87.56
-62.85
-36.24
-8.35
20.93
51.72
83.33
113.88
140.62
160.85
173.14
177.97
177.55
174.93
172.75
172.44
174.05
176.76
179.57
181.82
183.25
183.69
182.89
180.33
175.54
168.32
158.90
147.93
136.31
124.93
114.64
106.19
100.15
96.80
96.17
97.94
101.65
106.80
112.92
119.45
125.69
130.79
133.86
134.36
132.25
128.05
122.57
116.43
109.78
102.32
93.53
83.10
71.28
58.83
46.79
36.21
27.73
21.51
17.18
14.01
11.05
7.37
2.12
-5.28
-15.05
-26.86
-39.76
-52.20
-62.31
-68.36
-69.23
-64.76
-55.69
-43.45
-29.69
-16.00
-3.81
5.60
11.01
11.32
5.89
-5.17
-20.87
-39.51
-59.16
-78.14
-95.38
-110.41
-123.10
-133.34
-140.82
-145.21
-146.35
-144.60
-140.92
-136.69
-133.36
-132.10
-133.40
-137.02
-141.90
-146.28
-148.04
-145.05
-135.79
-119.75
-97.70
-71.48
-43.67
-16.91
6.61
25.49
39.16
47.79
52.02
52.77
51.05
47.89
44.20
40.73
37.95
35.98
34.56
33.11
31.01
27.71
22.98
16.78
9.28
0.60
-9.17
-19.98
-31.58
-43.41
-54.50
-63.51
-69.07
-70.09
-66.11
-57.50
-45.32
-31.06
-16.30
-2.35
9.87
19.85
27.36
32.40
35.12
35.79
34.75
32.33
28.71
23.97
18.08
11.12
3.33
-4.76
-12.40
-18.79
-23.17
-25.11
-24.57
-21.96
-17.98
-13.37
-8.67
-4.09
0.45
5.17
10.22
15.69
21.77
28.99
38.39
51.35
69.22
92.83
122.16
156.36
194.05
233.52
272.89
309.83
341.38
364.13
374.87
371.55
354.14
324.76
287.10
245.30
202.81
161.67
122.50
84.83
47.62
9.70
-30.28
-73.85
-122.63
-177.78
-239.01
-303.55
-365.73
-417.89
-452.44
-464.51
-453.70
-424.15
-382.56
-335.41
-286.66
-237.42
-187.10
-135.56
-84.36
-36.71
4.02
35.82
58.92
75.30
87.50
97.39
105.62
111.80
115.22
115.55
113.05
108.58
103.25
98.25
94.68
93.43
95.00
99.37
105.71
112.23
116.36
115.10
105.56
85.77
55.50
16.98
-25.03
-63.97
-93.16
-107.73
-106.14
-90.61
-66.23
-39.06
-14.32
4.86
17.59
24.51
26.97
26.40
24.09
21.32
19.34
19.24
21.64
26.50
33.17
40.60
47.59
53.19
56.66
57.51
55.31
49.56
39.90
26.35
9.86
-7.55
-22.84
-32.58
-33.95
-25.52
-7.89
16.51
43.98
70.59
93.00
109.12
118.24
120.72
117.68
110.45
100.37
88.61
76.17
63.87
52.26
41.58
31.65
22.04
12.27
2.09
-8.34
-18.56
-27.99
-36.33
-43.66
-50.48
-57.31
-64.50
-72.00
-79.39
-86.15
-91.77
-95.97
-98.67
-99.86
-99.54
-97.69
-94.24
-89.06
-82.12
-73.49
-63.42
-52.42
-41.27
-31.02
-22.87
-17.99
-17.21
-20.88
-28.64
-39.55
-52.35
-65.85
-79.26
-92.39
-105.46
-118.67
-131.96
-144.79
-156.37
-165.96
-173.15
-178.05
-181.03
-182.55
-182.90
-182.03
-179.63
-175.24
-168.42
-158.99
-147.14
-133.65
-119.58
-106.07
-93.90
-83.19
-73.46
-64.05
-54.50
-44.88
-35.60
-26.83
-17.95
-7.23
7.91
30.13
61.31
101.76
149.99
202.75
255.62
303.51
341.42
364.98
371.35
359.78
332.06
292.35
246.24
199.48
156.63
120.32
91.08
67.96
49.46
34.44
22.52
14.08
9.63
9.25
12.02
16.02
18.77
18.18
13.38
5.32
-3.54
-10.19
-12.38
-9.72
-3.96
1.68
3.67
-0.68
-12.57
-31.78
-57.15
-87.09
-119.76
-152.92
-183.83
-209.40
-226.90
-234.89
-233.82
-226.01
-214.68
-202.69
-191.65
-181.68
-172.16
-162.76
-154.10
-147.70
-145.13
-146.92
-151.94
-157.61
-160.77
-158.96
-151.15
-137.88
-120.80
-102.00
-83.37
-66.40
-52.11
-41.03
-33.35
-28.87
-27.16
-27.71
-30.08
-33.80
-38.26
-42.62
-45.90
-47.47
-47.52
-47.13
-47.81
-50.61
-55.28
-60.03
-62.24
-59.55
-50.94
-37.07
-19.77
-1.11
17.41
35.03
51.35
65.78
77.34
84.83
87.49
85.51
80.13
73.22
66.68
61.76
58.74
57.02
55.46
52.79
47.98
40.51
30.40
18.16
4.63
-9.28
-22.75
-35.26
-46.68
-57.19
-67.01
-76.11
-83.97
-89.63
-91.87
-89.66
-82.46
-70.24
-53.39
-32.42
-7.95
19.22
47.88
76.17
101.76
122.24
135.73
141.24
138.94
129.98
116.14
99.45
81.77
64.56
48.72
34.64
22.39
11.79
2.68
-5.03
-11.39
-16.40
-20.13
-22.70
-24.35
-25.42
-26.37
-27.61
-29.24
-30.85
-31.38
-29.42
-23.64
-13.39
1.01
18.34
37.05
55.74
73.60
90.41
106.18
120.81
133.93
144.90
153.11
158.15
159.98
158.72
154.53
147.45
137.44
124.57
109.37
92.94
76.86
62.82
52.10
45.04
40.96
38.30
35.25
30.42
23.32
14.58
5.85
-0.72
-3.02
0.34
9.44
22.85
37.75
50.86
59.56
62.92
62.18
60.24
60.29
64.48
72.96
84.08
95.34
104.70
111.35
115.74
118.96
121.76
124.17
125.43
124.48
120.51
113.29
103.15
90.75
76.89
62.21
47.22
32.32
17.80
3.86
-9.33
-21.59
-32.63
-42.02
-49.21
-53.70
-55.15
-53.63
-49.49
-43.38
-36.03
-28.16
-20.51
-13.99
-9.57
-8.22
-10.55
-16.49
-25.18
-35.12
-44.56
-51.98
-56.37
-57.45
-55.51
-51.25
-45.70
-40.04
-35.60
-33.72
-35.50
-41.60
-52.20
-67.17
-86.13
-108.33
-132.23
-155.11
-173.10
-181.77
-177.33
-157.85
-123.85
-78.18
-25.30
29.74
82.04
127.47
163.06
187.50
201.44
207.58
210.02
213.10
220.18
232.67
249.76
268.90
286.50
298.87
302.98
296.93
280.30
254.19
221.04
184.11
147.06
113.34
85.74
65.96
54.27
49.38
48.80
49.55
49.19
46.70
42.74
39.31
38.84
43.22
53.08
67.66
84.94
102.16
116.23
124.40
124.81
116.96
101.91
81.81
59.18
35.93
12.94
-9.84
-32.69
-55.34
-76.56
-94.48
-107.31
-114.08
-115.14
-111.96
-106.63
-101.22
-97.30
-95.82
-97.23
-101.59
-108.68
-117.95
-128.45
-139.01
-148.42
-155.77
-160.66
-163.06
-163.25
-161.43
-157.66
-151.95
-144.45
-135.63
-126.21
-116.96
-108.44
-100.98
-94.74
-89.83
-86.33
-84.25
-83.30
-82.89
-82.33
-81.11
-79.26
-77.37
-76.36
-77.04
-79.75
-84.08
-89.06
-93.42
-96.05
-96.50
-95.24
-93.68
-93.70
-96.98
-104.13
-114.17
-124.66
-132.38
-134.51
-129.58
-118.05
-101.97
-84.28
-67.76
-54.28
-44.51
-38.04
-33.90
-31.04
-28.78
-26.88
-25.44
-24.71
-24.80
-25.54
-26.47
-26.81
-25.65
-22.07
-15.39
-5.45
7.19
21.15
34.40
44.66
50.00
49.26
42.40
30.50
15.55
-0.01
-13.73
-23.68
-28.74
-28.72
-24.41
-17.21
-8.81
-0.73
5.87
10.42
12.81
13.29
12.24
10.03
6.96
3.25
-0.90
-5.31
-9.75
