1520266866.00
64.000000
-0.00
-0.00
-0.00
-0.00
-0.00
-0.00
-0.00
-0.00
-0.00
-0.00
0.00
0.01
0.01
-0.00
-0.03
-0.05
-0.05
0.00
0.13
0.36
0.66
1.01
1.37
1.72
2.06
2.40
2.79
3.24
3.80
4.42
5.06
5.66
6.20
6.68
7.15
7.68
8.31
9.14
10.09
11.04
11.88
12.56
13.14
13.76
14.65
15.96
17.91
20.32
22.90
25.38
27.58
29.57
31.68
34.32
37.81
42.54
48.15
54.10
59.83
64.97
69.58
74.14
79.34
85.71
93.76
103.00
112.62
121.73
129.77
136.75
143.30
150.75
157.77
166.64
177.95
191.79
206.97
220.57
228.25
225.36
208.53
176.87
132.76
80.05
23.07
-34.94
-92.44
-149.16
-205.23
-260.37
-313.74
-363.87
-409.83
-450.91
-486.50
-515.74
-537.23
-549.22
-549.96
-538.37
-514.21
-478.67
-433.88
-382.45
-327.02
-269.84
-212.63
-156.66
-102.95
-52.37
-5.90
35.58
71.43
101.35
125.50
144.38
158.69
169.15
176.37
180.75
182.57
182.07
179.51
175.23
169.65
163.18
156.15
148.81
141.30
133.69
126.02
118.33
110.69
103.16
95.80
88.68
81.83
75.25
68.95
62.95
57.25
51.86
46.78
42.03
37.59
33.45
29.61
26.07
22.81
19.83
17.11
14.67
12.48
10.54
8.83
7.35
6.07
4.97
4.05
3.27
2.62
2.09
1.65
1.30
1.01
0.79
0.61
0.48
0.37
0.28
0.22
0.17
0.14
0.11
0.10
0.09
0.09
0.09
0.11
0.12
0.15
0.17
0.21
0.24
0.28
0.33
0.37
0.42
0.47
0.52
0.57
0.62
0.67
0.73
0.80
0.87
0.94
1.02
1.11
1.21
1.32
1.45
1.59
1.75
1.92
2.12
2.34
2.58
2.85
3.14
3.47
3.82
4.21
4.64
5.10
5.60
6.14
6.72
7.34
8.01
8.72
9.47
10.28
11.12
12.02
12.96
13.95
15.00
16.12
17.30
18.54
19.84
21.15
22.45
23.63
24.64
25.35
25.64
25.38
24.46
22.79
20.33
17.09
13.15
8.69
3.92
-0.94
-5.64
-9.98
-13.82
-17.04
-19.59
-21.45
-22.59
-23.06
-22.92
-22.27
-21.24
-20.01
-18.70
-17.44
-16.24
-15.02
-13.77
-12.39
-10.90
-9.38
-8.00
-6.91
-6.22
-5.86
-5.64
-5.38
-4.88
-4.09
-3.14
-2.33
-2.01
-2.33
-3.19
-4.16
-4.98
-5.26
-4.89
-4.12
-3.54
-3.75
-5.10
-7.46
-10.24
-13.11
-15.48
-17.08
-18.06
-18.93
-20.39
-23.22
-28.08
-35.32
-45.02
-55.72
-64.73
-68.85
-65.70
-54.81
-38.06
-19.15
0.81
18.66
32.41
41.76
47.66
51.38
53.71
54.91
55.01
54.29
52.89
51.43
50.38
49.66
48.70
46.76
43.37
38.63
33.19
27.67
22.82
19.08
16.28
13.75
10.69
6.54
1.27
-4.64
-10.68
-16.24
-20.95
-24.83
-28.16
-31.42
-35.09
-39.60
-45.27
-52.25
-60.24
-68.33
-75.18
-79.32
-79.62
-75.65
-67.80
-57.07
-44.81
-32.21
-20.17
-9.17
0.67
9.42
17.32
24.61
31.48
37.99
44.01
49.37
53.88
57.47
60.23
62.37
64.06
65.44
66.58
67.51
68.27
68.98
69.74
70.63
71.58
72.42
72.91
72.89
72.40
71.71
71.21
71.32
72.25
73.94
76.04
78.10
79.76
80.87
81.60
82.35
83.59
85.63
88.41
91.45
93.91
94.86
93.65
90.05
84.33
77.08
68.75
59.23
47.59
32.23
11.32
-16.61
-52.05
-94.26
-141.32
-190.33
-237.66
-279.33
-311.68
-332.38
-341.27
-340.51
-333.79
-325.03
-316.85
-310.12
-304.41
-299.13
-294.36
-290.81
-289.08
-288.76
-288.47
-286.37
-281.19
-272.72
-261.59
-248.75
-234.82
-220.10
-204.52
-187.52
-167.63
-142.28
-108.23
-62.77
-5.21
62.16
134.35
205.10
268.76
321.71
362.50
391.29
408.92
416.36
414.75
405.67
391.28
373.85
355.18
336.09
316.45
295.68
273.43
249.98
226.15
202.80
180.38
158.65
136.73
113.21
86.66
56.04
21.22
-16.62
-55.13
-91.67
-124.63
-154.46
-183.50
-214.54
-248.67
-283.81
-314.87
-335.80
-342.10
-332.69
-309.98
-278.54
-243.32
-208.45
-176.95
-151.01
-131.83
-119.30
-111.79
-106.42
-100.21
-91.57
-81.05
-70.98
-63.89
-60.66
-59.52
-56.54
-47.62
-30.65
-6.71
20.37
45.86
66.41
81.40
92.77
103.62
116.47
132.19
149.86
167.66
183.65
196.09
203.46
204.27
197.46
183.02
162.29
137.96
113.36
91.50
74.42
62.79
55.94
52.22
49.37
44.99
37.20
25.31
10.22
-5.63
-18.94
-26.52
-26.34
-18.07
-3.05
16.11
36.35
54.81
69.39
79.09
83.95
84.82
82.83
78.90
73.41
66.35
57.68
47.78
37.67
28.80
22.44
19.19
18.80
20.42
23.15
26.51
30.45
35.07
40.09
44.72
47.78
48.32
46.19
42.27
38.20
35.69
35.72
38.12
41.63
44.35
44.49
40.93
33.48
22.71
9.59
-4.93
-20.17
-35.85
-51.96
-68.71
-86.35
-105.01
-124.49
-144.02
-162.20
-177.05
-186.50
-188.92
-183.66
-171.23
-153.20
-131.65
-108.65
-85.85
-64.34
-44.70
-27.24
-12.10
0.63
10.99
19.13
25.35
30.04
33.61
36.42
38.70
40.52
41.82
42.45
42.25
41.09
38.96
36.01
32.54
29.02
25.95
23.72
22.45
21.99
21.92
21.81
21.27
20.11
18.25
15.78
12.82
9.62
6.42
3.43
0.67
-2.06
-5.32
-9.80
-16.09
-24.34
-33.88
-43.26
-50.41
-53.32
-50.60
-42.04
-28.67
-12.34
4.95
21.66
36.91
50.44
62.16
71.91
79.36
84.16
86.10
85.40
82.50
77.97
72.30
65.69
58.14
49.56
39.96
29.49
18.53
7.66
-2.46
-11.22
-18.22
-23.35
-26.80
-28.99
-30.32
-30.99
-30.83
-29.41
-26.21
-21.01
-14.09
-6.29
1.22
7.29
11.08
12.36
11.54
9.64
8.08
8.37
11.76
18.83
29.28
42.03
55.40
67.77
77.97
85.53
90.61
93.69
95.20
95.35
94.06
91.25
87.02
81.76
76.15
70.90
66.49
63.14
60.70
58.94
57.60
56.48
55.41
54.26
52.80
50.80
48.02
44.25
39.38
33.37
26.36
18.67
10.70
2.83
-4.71
-11.91
-18.92
-25.91
-32.99
-40.26
-47.91
-56.16
-64.97
-73.78
-81.29
-85.71
-85.40
-79.63
-68.90
-54.86
-39.61
-24.94
-11.89
-0.70
8.84
17.01
23.92
29.52
33.82
36.93
39.16
40.82
42.11
43.12
43.74
43.87
43.46
42.63
41.60
40.63
39.88
39.25
38.43
37.01
34.63
31.17
26.78
21.84
16.77
11.86
7.21
2.65
-2.09
-7.26
-12.93
-18.88
-24.72
-30.02
-34.56
-38.39
-41.89
-45.64
-50.20
-55.99
-62.98
-70.65
-77.91
-83.28
-85.21
-82.59
-75.12
-63.54
-49.43
-34.71
-21.12
-9.78
-1.01
5.53
10.53
14.72
18.58
22.28
25.73
28.72
31.07
32.72
33.78
34.41
34.72
34.79
34.64
34.29
33.85
33.41
33.04
32.65
32.02
30.93
29.24
26.92
24.07
20.85
17.36
13.74
10.09
6.52
3.17
0.06
-2.86
-5.75
-8.80
-12.12
-15.74
-19.61
-23.63
-27.72
-31.86
-36.04
-40.28
-44.66
-49.36
-54.66
-60.80
-67.74
-74.89
-81.11
-84.91
-85.00
-80.74
-72.41
-61.08
-48.25
-35.31
-23.27
-12.64
-3.58
3.94
10.06
14.98
18.93
22.14
24.79
26.96
28.72
30.07
31.08
31.88
32.51
33.02
33.36
33.46
33.30
32.91
32.35
31.62
30.61
29.11
26.96
24.20
21.07
18.02
15.47
13.64
12.40
11.31
9.87
7.67
4.69
1.19
-2.40
-5.71
-8.62
-11.26
-13.95
-17.04
-20.72
-24.94
-29.45
-33.89
-38.00
-41.70
-45.06
-48.28
-51.54
-55.03
-58.92
-63.29
-68.01
-72.51
-75.82
-76.73
-74.20
-67.81
-57.99
-45.91
-33.09
-20.86
-10.08
-1.09
6.18
11.94
16.35
19.51
21.53
22.55
22.85
22.81
22.80
23.08
23.73
24.64
25.58
26.40
27.06
27.66
28.37
29.20
29.99
30.39
30.03
28.61
26.12
22.78
19.06
15.52
12.60
10.58
9.31
8.32
6.94
4.67
1.41
-2.46
-6.28
-9.45
-11.74
-13.40
-15.00
-17.11
-20.03
-23.70
-27.83
-32.04
-36.10
-39.92
-43.56
-47.22
-51.14
-55.58
-60.69
-66.38
-72.16
-77.15
-80.21
-80.26
-76.59
-69.16
-58.61
-46.13
-33.16
-20.94
-10.30
-1.56
5.38
10.79
14.95
18.02
20.17
21.57
22.51
23.34
24.29
25.49
26.85
28.20
29.34
30.15
30.62
30.84
31.00
31.23
31.56
31.84
31.76
30.98
29.28
26.75
23.75
20.82
18.36
16.53
15.11
13.69
11.84
9.33
6.22
2.78
-0.64
-3.77
-6.56
-9.21
-12.07
-15.42
-19.37
-23.77
-28.25
-32.42
-36.06
-39.20
-42.08
-45.06
-48.57
-52.98
-58.62
-65.53
-73.36
-81.17
-87.57
-91.06
-90.50
-85.50
-76.56
-64.88
-51.95
-39.20
-27.58
-17.57
-9.21
-2.20
3.83
9.20
14.06
18.37
21.99
24.83
27.02
28.87
30.77
32.99
35.49
38.01
40.16
41.66
42.43
42.60
42.46
42.23
42.01
41.79
41.45
40.81
39.74
38.14
36.00
33.43
30.54
27.54
24.51
21.55
18.61
15.64
12.58
9.45
6.30
3.18
0.14
-2.88
-6.03
-9.54
-13.58
-18.20
-23.27
-28.56
-33.79
-38.78
-43.48
-48.01
-52.62
-57.66
-63.58
-70.79
-79.33
-88.67
-97.54
-104.15
-106.70
-104.00
-95.94
-83.47
-68.26
-52.12
-36.60
-22.65
-10.73
-0.87
7.11
13.56
18.90
23.52
27.76
31.76
35.53
38.98
42.02
44.62
46.91
49.04
51.23
53.57
56.04
58.50
60.71
62.43
63.45
63.62
62.86
61.13
58.52
55.23
51.56
47.86
44.42
41.40
38.80
36.52
34.30
31.90
29.00
25.43
21.22
16.60
11.96
7.63
3.71
-0.00
-3.94
-8.48
-13.78
-19.68
-25.81
-31.78
-37.37
-42.58
-47.61
-52.79
-58.55
-65.30
-73.36
-82.66
-92.56
-101.67
-108.09
-109.90
-105.88
-95.98
-81.37
-64.11
-46.42
-29.98
-15.64
-3.44
7.03
16.21
24.38
31.56
37.70
42.76
46.77
49.84
52.14
53.94
55.51
57.15
59.06
61.30
63.75
66.16
68.23
69.69
70.39
70.20
69.10
67.11
64.35
61.01
57.37
53.66
50.07
46.70
43.62
40.87
38.47
36.33
34.21
31.84
28.91
25.31
21.16
16.79
12.52
8.55
4.73
0.69
-4.01
-9.61
-16.04
-22.91
-29.67
-35.91
-41.45
-46.40
-51.15
-56.21
-62.15
-69.49
-78.47
-88.83
-99.55
-108.86
-114.54
-114.63
-108.10
-95.30
-77.84
-58.10
-38.43
-20.54
-5.30
7.27
17.51
25.92
32.88
38.64
43.33
47.07
50.02
52.37
54.34
56.16
57.96
59.74
61.45
62.95
64.19
65.22
66.09
66.79
67.14
66.79
65.40
62.77
59.03
54.58
50.00
45.78
42.24
39.37
36.95
34.67
32.26
29.58
26.61
23.39
19.94
16.27
12.37
8.27
4.07
-0.10
-4.17
-8.18
-12.32
-16.86
-21.99
-27.73
-33.86
-40.01
-45.83
-51.11
-55.94
-60.64
-65.75
-71.84
-79.36
-88.29
-97.96
-106.94
-113.26
-114.94
-110.70
-100.30
-84.82
-66.18
-46.60
-28.00
-11.58
2.18
13.39
22.47
29.94
36.23
41.61
46.20
49.99
53.00
55.33
57.18
58.78
60.28
61.68
62.89
63.85
64.58
65.18
65.70
66.08
66.08
65.43
63.97
61.70
58.79
55.54
52.15
48.73
45.30
41.80
38.21
34.56
30.94
27.39
23.95
20.55
17.11
13.57
9.93
6.23
2.50
-1.24
-5.03
-8.91
-12.95
-17.23
-21.82
-26.78
-32.09
-37.60
-43.07
-48.30
-53.24
-58.12
-63.46
-69.87
-77.82
-87.29
-97.55
-107.16
-114.16
-116.61
-113.13
-103.44
-88.48
-70.15
-50.76
-32.35
-16.24
-2.89
7.91
16.72
24.10
30.43
35.93
40.64
44.60
47.82
50.45
52.64
54.56
56.31
57.89
59.27
60.36
61.21
61.83
62.23
62.30
61.84
60.63
58.56
55.73
52.43
49.06
45.97
43.35
41.12
39.06
36.92
34.49
31.78
28.89
25.92
22.86
19.59
15.97
11.96
7.69
3.42
-0.67
-4.60
-8.62
-13.08
-18.19
-23.89
-29.84
-35.61
-40.88
-45.57
-49.90
-54.22
-58.94
-64.50
-71.23
-79.18
-87.92
-96.36
-102.76
-105.24
-102.32
-93.50
-79.59
-62.38
-44.09
-26.67
-11.33
1.51
12.02
20.62
27.70
33.46
37.98
41.28
43.49
44.86
45.74
46.51
47.42
48.50
49.70
50.87
51.97
53.03
54.09
55.09
55.80
55.86
54.96
52.95
49.95
46.30
42.48
38.91
35.87
33.42
31.44
29.68
27.84
25.64
22.90
19.55
15.66
11.40
7.02
2.77
-1.11
-4.53
-7.60
-10.63
-14.03
-18.11
-22.98
-28.49
-34.22
-39.73
-44.71
-49.05
-52.93
-56.79
-61.28
-67.10
-74.75
-84.25
-94.76
-104.66
-111.74
-113.92
-109.92
-99.76
-84.77
-67.19
-49.43
-33.39
-20.07
-9.47
-0.92
6.54
13.71
21.02
28.39
35.44
41.68
46.76
50.62
53.46
55.58
57.21
58.48
59.40
60.03
60.49
60.89
61.28
61.50
61.24
60.20
58.15
55.16
51.55
47.79
44.33
41.45
39.16
37.26
35.42
33.35
30.89
28.02
24.80
21.30
17.58
13.66
9.61
5.53
1.57
-2.16
-5.67
-9.15
-12.93
-17.26
-22.29
-27.83
-33.55
-38.99
-43.84
-48.05
-51.88
-55.80
-60.43
-66.28
-73.60
-82.24
-91.40
-99.69
-105.33
-106.59
-102.37
-92.64
-78.52
-61.95
-45.03
-29.44
-16.05
-4.93
4.39
12.49
19.82
26.57
32.73
38.16
42.78
46.59
49.70
52.25
54.34
55.99
57.13
57.71
57.76
57.43
56.93
56.43
55.93
55.29
54.27
52.71
50.56
47.93
45.03
42.03
39.05
36.16
33.40
30.78
28.31
25.95
23.54
20.92
17.86
14.22
9.96
5.22
0.24
-4.64
-9.08
-12.92
-16.25
-19.34
-22.57
-26.19
-30.19
-34.30
-38.14
-41.45
-44.26
-46.92
-49.97
-54.03
-59.54
-66.65
-75.03
-83.84
-91.64
-96.72
-97.46
-92.93
-83.25
-69.55
-53.69
-37.64
-22.93
-10.33
0.15
9.00
16.80
23.99
30.63
36.53
41.42
45.17
47.90
49.98
51.82
53.71
55.68
57.57
59.17
60.38
61.25
61.91
62.40
62.69
62.66
62.16
61.10
59.49
57.39
54.98
52.48
50.13
48.20
46.77
45.78
44.94
43.92
42.42
40.28
37.56
34.42
31.09
27.78
24.66
21.84
19.26
16.69
13.66
9.65
4.20
-2.80
-11.04
-19.86
-28.48
-36.30
-43.20
-49.53
-56.07
-63.65
-72.76
-83.27
-94.27
-104.19
-111.21
-113.82
-111.31
-103.93
-92.85
-79.66
-65.93
-52.89
-41.31
-31.57
-23.76
-17.85
-13.61
-10.66
-8.54
-6.79
-5.10
-3.35
-1.60
0.01
1.28
2.15
2.73
3.31
4.39
6.46
9.85
14.46
19.81
25.13
29.64
32.75
34.23
34.19
32.92
30.83
28.28
25.49
22.51
19.13
14.99
9.69
3.00
-4.97
-13.74
-22.62
-30.90
-38.12
-44.22
-49.48
-54.29
-58.98
-63.68
-68.21
-72.26
-75.45
-77.41
-77.88
-76.66
-73.68
-69.06
-63.20
-56.83
-50.94
-46.59
-44.53
-44.90
-47.01
-49.38
-50.18
-47.74
-41.11
-30.42
-16.68
-1.54
13.28
26.53
37.59
46.64
54.41
61.84
69.60
77.74
85.61
92.07
95.92
96.41
93.52
87.95
80.83
73.31
66.33
60.37
55.54
51.60
48.06
44.29
39.65
33.71
26.47
18.43
10.58
4.16
0.33
-0.29
2.14
6.55
11.23
14.30
14.38
10.94
4.50
-3.81
-12.65
-21.10
-28.82
-35.99
-43.03
-50.20
-57.52
-64.77
-71.67
-78.01
-83.65
-88.60
-92.89
-96.67
-100.18
-103.73
-107.49
-111.33
-114.60
-116.18
-114.71
-109.06
-98.75
-84.29
-67.00
-48.73
-31.23
-15.68
-2.41
8.91
18.96
28.24
36.76
44.12
49.66
52.93
53.89
52.95
50.85
48.41
46.38
45.33
45.66
47.58
51.08
55.97
61.84
68.14
74.21
79.40
83.22
85.44
86.18
85.86
85.05
84.23
83.55
82.78
81.42
78.95
75.11
70.05
64.24
58.26
52.45
46.87
41.25
35.21
28.54
21.38
14.11
7.17
0.83
-5.05
-10.91
-17.36
-24.90
-33.70
-43.46
-53.38
-62.24
-68.62
-71.25
-69.37
-63.01
-53.06
-41.01
-28.55
-17.02
-7.21
0.76
7.23
12.67
17.52
22.00
26.14
29.81
32.87
35.21
36.81
37.74
38.14
38.12
37.74
37.05
36.12
35.06
34.05
33.24
32.65
32.15
31.46
30.32
28.59
26.35
23.83
21.33
19.07
17.14
15.45
13.84
12.14
10.32
8.38
6.39
4.34
2.14
-0.42
-3.51
-7.17
-11.29
-15.56
-19.70
-23.53
-27.09
-30.66
-34.66
-39.54
-45.60
-52.84
-60.75
-68.27
-73.92
-76.17
-73.99
-67.21
-56.68
-43.93
-30.70
-18.41
-7.87
0.78
7.79
13.59
18.57
23.04
27.15
30.92
34.28
37.09
39.22
40.63
41.41
41.70
41.66
41.41
41.00
40.44
39.74
38.92
37.94
36.74
35.26
33.42
31.20
28.67
25.94
23.15
20.42
17.79
15.24
12.70
10.05
7.23
4.21
1.06
-2.14
-5.34
-8.55
-11.83
-15.29
-18.97
-22.84
-26.78
-30.61
-34.16
-37.39
-40.46
-43.79
-47.88
-53.10
-59.33
-65.85
-71.33
-74.21
-73.29
-68.05
-58.95
-47.14
-34.12
-21.26
-9.53
0.61
9.10
16.14
22.02
27.03
31.39
35.21
38.55
41.39
43.70
45.49
46.73
47.46
47.74
47.73
47.57
47.42
47.36
47.29
46.98
46.17
44.59
42.10
38.73
34.61
30.02
25.32
20.81
16.75
13.22
10.17
7.41
4.77
2.12
-0.57
-3.28
-5.98
-8.75
-11.73
-15.04
-18.70
-22.60
-26.44
-29.93
-32.88
-35.30
-37.39
-39.52
-42.09
-45.45
-49.82
-55.14
-60.98
-66.45
-70.35
-71.39
-68.63
-61.88
-51.74
-39.52
-26.79
-14.90
-4.67
3.65
10.26
15.56
19.89
23.45
26.32
28.51
30.08
31.15
31.84
32.30
32.57
32.63
32.44
32.05
31.59
31.29
31.30
31.53
31.70
31.35
30.11
27.86
24.81
21.46
18.35
15.83
13.99
12.62
11.32
9.72
7.61
5.03
2.21
-0.57
-3.09
-5.36
-7.58
-10.06
-13.03
-16.50
-20.27
-23.97
-27.24
-29.91
-32.10
-34.12
-36.43
-39.51
-43.70
-49.16
-55.66
-62.58
-68.85
-73.15
-74.28
-71.45
-64.60
-54.44
-42.26
-29.51
-17.49
-7.04
1.51
8.28
13.66
18.04
21.75
24.97
27.75
30.11
32.07
33.72
35.12
36.26
37.05
37.32
36.99
36.09
34.84
33.52
32.36
31.38
30.39
29.09
27.28
24.91
22.17
19.37
16.79
14.55
12.57
10.62
8.47
5.99
3.23
0.38
-2.31
-4.71
-6.82
-8.80
-10.88
-13.30
-16.14
-19.33
-22.67
-25.90
-28.82
-31.38
-33.71
-36.12
-39.05
-42.92
-47.99
-54.04
-60.30
-65.49
-68.16
-67.15
-62.01
-53.15
-41.71
-29.14
-16.75
-5.44
4.37
12.66
19.53
25.15
29.61
32.95
35.27
36.73
37.59
38.14
38.62
39.12
39.54
39.68
39.39
38.72
37.86
37.08
36.54
36.18
35.74
34.90
33.42
31.29
28.68
25.91
23.23
20.85
18.80
16.99
15.21
13.27
11.03
8.47
5.69
2.80
-0.09
-2.99
-5.94
-8.97
-12.09
-15.27
-18.50
-21.79
-25.12
-28.49
-31.87
-35.27
-38.86
-42.99
-48.02
-54.00
-60.47
-66.34
-70.16
-70.59
-66.93
-59.37
-48.92
-37.03
-25.10
-14.12
-4.53
3.61
10.43
15.99
20.30
23.38
25.41
26.76
27.91
29.23
30.87
32.69
34.35
35.54
36.14
36.19
35.86
35.27
34.52
33.61
32.53
31.30
29.91
28.31
26.45
24.34
22.08
19.81
17.60
15.45
13.21
10.71
7.90
4.92
2.03
-0.51
-2.60
-4.39
-6.23
-8.52
-11.54
-15.33
-19.67
-24.18
-28.46
-32.21
-35.43
-38.33
-41.37
-45.06
-49.81
-55.70
-62.36
-68.87
-73.94
-76.24
-74.76
-69.18
-60.01
-48.37
-35.65
-23.11
-11.60
-1.58
6.83
13.64
18.91
22.75
25.34
26.98
28.04
28.86
29.67
30.56
31.49
32.35
33.07
33.64
34.08
34.41
34.60
34.55
34.14
33.26
31.90
30.10
28.04
25.89
23.78
21.80
19.93
18.05
16.03
13.78
11.28
8.62
5.98
3.55
1.46
-0.31
-1.94
-3.70
-5.83
-8.50
-11.63
-15.02
-18.34
-21.32
-23.78
-25.78
-27.61
-29.77
-32.81
-37.11
-42.63
-48.78
-54.42
-58.14
-58.69
-55.39
-48.37
-38.44
-26.82
-14.77
-3.30
6.94
15.60
22.56
27.84
31.54
33.88
35.14
35.74
36.08
36.53
37.29
38.31
39.35
40.13
40.41
40.25
39.86
39.49
39.24
38.94
38.24
36.75
34.27
30.92
27.14
23.50
20.43
18.14
16.46
15.00
13.33
11.17
8.51
5.55
2.48
-0.59
-3.72
-7.05
-10.67
-14.49
-18.29
-21.82
-24.96
-27.75
-30.38
-33.04
-35.93
-39.22
-43.06
-47.57
-52.77
-58.33
-63.54
-67.35
-68.64
-66.63
-61.18
-52.84
-42.76
-32.21
-22.29
-13.66
-6.49
-0.58
4.43
8.86
12.86
16.45
19.51
21.94
23.73
25.00
25.98
26.91
27.96
29.18
30.49
31.78
32.92
33.86
34.54
34.91
34.88
34.35
33.24
31.58
29.58
27.57
25.90
24.72
23.88
22.92
21.33
18.76
15.27
11.30
7.48
4.29
1.83
-0.26
-2.54
-5.49
-9.29
-13.73
-18.43
-22.99
-27.23
-31.21
-35.15
-39.34
-44.09
-49.64
-56.02
-62.95
-69.69
-75.03
-77.61
-76.31
-70.74
-61.37
-49.47
-36.55
-23.99
-12.60
-2.66
5.92
13.32
19.60
24.79
28.84
31.78
33.75
34.99
35.75
36.22
36.51
36.59
36.40
35.91
35.22
34.53
34.07
33.90
33.83
33.49
32.48
30.58
27.87
24.75
21.72
19.25
17.57
16.62
16.11
15.62
14.71
13.09
10.73
7.81
4.70
1.67
-1.18
-4.05
-7.29
-11.20
-15.88
-21.19
-26.78
-32.27
-37.35
-41.83
-45.65
-48.86
-51.59
-54.06
-56.46
-58.74
-60.52
-61.00
-59.19
-54.28
-46.00
-34.83
-21.89
-8.64
3.63
14.11
22.53
29.05
33.95
37.48
39.77
40.95
41.26
41.10
40.92
41.12
41.85
42.98
44.21
45.19
45.69
45.67
45.26
44.58
43.71
42.57
40.97
38.79
35.99
32.73
29.28
25.94
22.88
20.10
17.39
14.52
11.31
7.77
4.07
0.44
-2.93
-5.97
-8.77
-11.49
-14.29
-17.24
-20.30
-23.33
-26.12
-28.57
-30.72
-32.82
-35.29
-38.60
-43.08
-48.73
-55.09
-61.27
-66.09
-68.33
-67.13
-62.16
-53.77
-42.81
-30.32
-17.06
-3.27
11.37
27.44
45.28
64.61
84.31
102.60
117.35
126.71
129.62
126.32
118.42
108.46
99.12
92.24
88.18
85.77
82.95
77.77
69.25
57.69
44.35
30.74
18.00
6.70
-3.01
-11.06
-17.18
-21.02
-22.41
-21.61
-19.41
-16.87
-14.96
-14.18
-14.44
-15.21
-15.90
-16.19
-16.24
-16.56
-17.78
-20.27
-23.92
-28.22
-32.46
-36.04
-38.69
-40.57
-42.16
-44.11
-46.97
-51.07
-56.34
-62.27
-67.96
-72.27
-74.08
-72.67
-67.90
-60.24
-50.54
-39.72
-28.48
-17.20
-5.96
5.22
16.22
26.70
36.10
43.83
49.33
52.26
52.64
50.79
47.35
43.11
38.76
34.74
31.19
28.08
25.34
23.06
21.53
21.16
22.23
24.60
27.63
30.32
31.68
31.14
28.68
24.75
19.93
14.67
9.16
3.44
-2.48
-8.56
-14.82
-21.44
-28.73
-36.85
-45.52
-53.93
-60.99
-65.89
-68.52
-69.57
-70.15
-71.26
-73.38
-76.59
-80.75
-85.80
-91.71
-98.29
-104.94
-110.79
-115.00
-117.24
-117.84
-117.54
-116.98
-116.20
-114.69
-111.54
-106.09
-98.21
-88.21
-76.52
-63.20
-47.82
-29.63
-7.95
17.52
46.60
78.76
113.32
149.40
185.76
220.74
252.37
278.83
298.95
312.47
319.81
321.61
318.14
309.36
295.24
276.31
253.88
229.78
205.69
182.76
161.45
141.63
122.73
103.76
83.32
59.78
31.96
-0.10
-34.69
-68.73
-98.83
-122.47
-138.80
-148.58
-153.41
-154.81
-153.76
-150.80
-146.48
-141.65
-137.31
-134.02
-131.37
-127.92
-121.82
-111.75
-97.81
-81.52
-65.08
-50.29
-37.88
-27.46
-18.33
-10.28
-3.91
-0.20
0.41
-1.41
-4.02
-5.72
-5.80
-5.07
-5.34
-8.42
-15.03
-24.39
-34.70
-44.12
-51.58
-57.02
-61.10
-64.47
-67.37
-69.69
-71.21
-72.07
-72.71
-73.65
-75.13
-76.88
-78.27
-78.71
-77.99
-76.25
-73.84
-71.02
-67.70
-63.58
-58.33
-51.87
-44.48
-36.67
-28.90
-21.47
-14.41
-7.70
-1.40
4.30
9.21
13.29
16.69
19.61
22.03
23.65
23.99
22.76
20.26
17.44
15.64
16.09
19.40
25.28
32.78
40.61
47.69
53.41
57.81
61.25
64.20
66.89
69.23
70.93
71.74
71.58
70.65
69.25
67.56
65.67
63.61
61.61
60.16
59.93
61.52
65.06
70.13
75.67
80.27
82.49
81.19
75.81
66.41
53.65
38.60
22.63
7.12
-6.82
-18.62
-28.37
-36.68
-44.40
-52.16
-60.16
-68.14
-75.66
-82.51
-88.98
-95.87
-104.09
-114.29
-126.48
-140.08
-154.18
-167.92
-180.88
-193.03
-204.56
-215.47
-225.17
-232.40
-235.60
-233.37
-224.98
-210.57
-191.06
-167.89
-142.68
-117.09
