1520875006.00
64.000000
-0.00
-0.00
-0.00
-0.00
-0.00
-0.00
-0.00
-0.00
-0.00
-0.00
0.00
0.01
0.01
-0.00
-0.03
-0.05
-0.05
0.00
0.13
0.36
0.66
1.01
1.37
1.72
2.06
2.40
2.79
3.24
3.80
4.42
5.06
5.66
6.20
6.68
7.15
7.68
8.31
9.14
10.09
11.04
11.88
12.56
13.14
13.76
14.65
15.96
17.91
20.32
22.90
25.38
27.58
29.57
31.68
34.32
37.81
42.54
48.15
54.10
59.83
64.97
69.58
74.14
79.34
85.71
93.76
103.00
112.62
121.73
129.77
136.75
143.30
150.75
157.77
166.64
177.95
191.79
206.97
220.57
228.25
225.36
208.53
176.87
132.76
80.05
23.07
-34.94
-92.44
-149.16
-205.23
-260.37
-313.74
-363.87
-409.83
-450.91
-486.50
-515.74
-537.23
-549.22
-549.96
-538.37
-514.21
-478.67
-433.88
-382.45
-327.02
-269.84
-212.63
-156.66
-102.95
-52.37
-5.90
35.58
71.43
101.35
125.50
144.38
158.69
169.15
176.37
180.75
182.57
182.07
179.51
175.23
169.65
163.18
156.15
148.81
141.30
133.69
126.02
118.33
110.69
103.16
95.80
88.68
81.83
75.25
68.95
62.95
57.25
51.86
46.78
42.03
37.59
33.45
29.61
26.07
22.81
19.83
17.11
14.67
12.48
10.54
8.83
7.35
6.07
4.97
4.05
3.27
2.62
2.09
1.65
1.30
1.01
0.79
0.61
0.47
0.37
0.29
0.23
0.19
0.16
0.15
0.15
0.16
0.17
0.19
0.22
0.25
0.29
0.33
0.37
0.41
0.46
0.51
0.55
0.60
0.66
0.72
0.78
0.85
0.92
1.00
1.09
1.19
1.30
1.43
1.58
1.75
1.92
2.08
2.24
2.39
2.57
2.77
3.01
3.31
3.64
4.00
4.38
4.78
5.20
5.67
6.20
6.81
7.48
8.20
8.94
9.67
10.38
11.07
11.81
12.65
13.60
14.67
15.79
16.87
17.82
18.55
19.04
19.30
19.32
19.08
18.42
17.14
15.02
11.89
7.77
2.80
-2.62
-8.09
-13.27
-18.00
-22.31
-26.33
-30.22
-34.00
-37.52
-40.52
-42.79
-44.24
-45.04
-45.47
-45.85
-46.42
-47.33
-48.74
-50.76
-53.35
-55.98
-57.50
-56.49
-51.74
-42.93
-30.85
-17.08
-3.27
9.43
20.69
30.59
39.09
45.72
49.67
50.35
47.89
43.28
37.90
32.97
29.04
25.77
22.44
18.40
13.61
8.85
5.40
4.43
6.44
10.97
16.78
22.29
26.12
27.38
25.78
21.50
15.17
7.87
0.91
-4.56
-7.94
-9.56
-10.56
-12.42
-16.17
-22.27
-30.22
-38.67
-45.79
-49.93
-50.07
-46.12
-38.93
-30.03
-21.19
-13.78
-8.51
-5.38
-4.05
-4.26
-6.01
-9.51
-14.65
-20.84
-26.86
-31.33
-33.19
-32.22
-29.00
-24.69
-20.55
-17.53
-15.97
-15.69
-16.19
-16.98
-17.82
-18.70
-19.69
-20.67
-21.28
-21.09
-19.89
-17.96
-15.96
-14.42
-13.22
-11.25
-6.81
1.55
14.20
30.00
46.68
61.68
73.15
80.45
84.12
85.22
84.63
82.58
78.71
72.55
64.05
54.06
44.27
36.69
33.05
34.15
39.63
48.13
57.83
66.94
74.15
78.63
79.90
77.69
71.94
62.91
51.29
38.15
24.75
12.07
0.53
-10.07
-20.29
-30.44
-40.13
-48.17
-52.94
-53.19
-48.67
-40.30
-29.83
-19.19
-9.90
-2.71
2.23
5.19
6.44
6.23
4.84
2.62
0.07
-2.43
-4.68
-6.91
-9.68
-13.61
-19.05
-25.87
-33.38
-40.48
-45.98
-48.98
-49.24
-47.22
-43.92
-40.55
-38.16
-37.43
-38.58
-41.45
-45.56
-50.16
-54.20
-56.47
-55.82
-51.55
-43.73
-33.21
-21.44
-9.94
0.17
8.49
15.30
21.37
27.69
35.01
43.54
52.78
61.50
68.14
71.39
70.70
66.51
59.97
52.44
44.81
37.42
30.08
22.51
14.65
6.78
-0.67
-7.24
-12.66
-16.86
-19.93
-22.10
-23.75
-25.45
-27.91
-31.83
-37.56
-44.70
-52.00
-57.55
-59.36
-56.05
-47.46
-34.70
-19.87
-5.33
7.01
16.04
21.51
23.79
23.46
21.07
17.00
11.56
5.22
-1.38
-7.27
-11.39
-12.91
-11.51
-7.65
-2.42
2.75
6.49
7.79
6.19
1.76
-4.97
-12.98
-20.95
-27.39
-31.13
-31.90
-30.58
-29.08
-29.41
-32.78
-38.72
-45.14
-49.12
-48.07
-40.74
-27.65
-10.68
7.60
24.74
38.86
48.81
54.19
55.23
52.77
48.21
43.10
38.82
36.16
35.21
35.47
36.03
35.95
34.45
31.27
26.69
21.66
17.44
15.16
15.26
17.14
19.38
20.24
18.50
13.89
7.06
-0.92
-9.06
-16.85
-23.96
-29.96
-33.98
-34.86
-31.69
-24.25
-13.34
-0.47
12.68
24.76
35.06
43.40
49.71
53.87
55.56
54.39
50.28
43.67
35.60
27.46
20.63
16.03
13.85
13.39
13.32
12.16
8.76
2.81
-5.08
-13.71
-21.81
-28.57
-34.04
-38.95
-44.30
-50.92
-59.01
-68.17
-77.65
-86.51
-93.87
-98.84
-100.45
-97.87
-90.76
-79.65
-66.06
-52.22
-40.23
-31.33
-25.54
-21.76
-18.51
-14.58
-9.43
-3.25
3.42
10.01
16.19
21.78
26.72
30.84
33.83
35.34
35.06
33.01
29.68
25.93
22.81
21.06
20.71
20.91
20.30
17.58
12.19
4.68
-3.25
-9.28
-11.13
-7.35
2.17
16.05
31.80
46.61
58.20
65.45
68.49
68.27
65.86
61.91
56.48
49.34
40.51
30.50
20.30
11.07
3.74
-1.29
-4.10
-5.14
-5.00
-4.29
-3.60
-3.43
-4.14
-5.90
-8.58
-11.91
-15.65
-19.82
-24.74
-30.92
-38.63
-47.53
-56.37
-63.09
-65.33
-61.18
-49.97
-32.58
-11.16
11.53
32.94
51.27
65.55
75.37
80.57
81.18
77.48
70.25
60.82
50.86
41.95
35.16
30.84
28.62
27.68
27.06
25.88
23.60
20.11
15.65
10.59
5.23
-0.35
-6.31
-12.91
-20.30
-28.51
-37.38
-46.64
-55.86
-64.29
-70.85
-74.18
-73.04
-66.70
-55.36
-40.17
-23.01
-5.95
9.27
21.45
30.07
34.94
36.16
33.95
28.80
21.66
13.88
7.05
2.39
0.49
0.95
2.60
4.00
4.01
2.15
-1.33
-5.79
-10.62
-15.54
-20.65
-26.30
-32.78
-40.26
-48.71
-57.88
-67.33
-76.27
-83.49
-87.44
-86.65
-80.29
-68.62
-52.94
-35.38
-18.13
-2.94
9.14
17.65
22.45
23.64
21.62
17.27
11.97
7.33
4.69
4.71
7.14
10.99
14.94
17.85
19.00
18.33
16.28
13.50
10.56
7.62
4.39
0.19
-5.66
-13.51
-23.04
-33.11
-42.03
-48.01
-49.55
-45.96
-37.47
-25.13
-10.62
4.24
17.88
29.15
37.40
42.27
43.58
41.43
36.29
29.22
21.78
15.70
12.32
12.13
14.56
18.30
21.86
24.12
24.69
23.79
21.95
19.65
17.10
14.23
10.85
6.69
1.46
-5.13
-13.21
-22.42
-31.64
-38.98
-42.27
-39.74
-30.84
-16.53
1.05
19.31
36.01
49.74
59.90
66.31
68.93
67.80
63.25
56.14
47.82
39.87
33.63
29.87
28.67
29.50
31.45
33.44
34.53
34.02
31.64
27.54
22.24
16.40
10.58
5.07
-0.18
-5.54
-11.48
-18.36
-26.31
-34.93
-43.28
-49.84
-52.82
-50.66
-42.58
-29.02
-11.74
6.69
23.60
36.99
45.91
50.43
51.16
48.76
43.77
36.67
28.22
19.67
12.58
8.32
7.55
9.85
13.94
18.23
21.41
22.82
22.47
20.74
18.01
14.59
10.59
6.14
1.43
-3.26
-7.75
-12.06
-16.37
-20.88
-25.49
-29.51
-31.68
-30.58
-25.12
-15.12
-1.66
13.20
27.03
37.77
44.29
46.51
45.00
40.52
33.71
25.08
15.28
5.38
-3.22
-9.10
-11.36
-9.97
-5.78
-0.14
5.54
10.23
13.48
15.34
16.12
16.14
15.63
14.70
13.41
11.83
10.09
8.22
6.13
3.56
0.16
-4.21
-9.15
-13.63
-16.24
-15.64
-11.20
-3.30
6.71
16.97
25.81
32.11
35.40
35.75
33.42
28.69
22.00
14.05
5.88
-1.30
-6.44
-9.02
-9.31
-8.16
-6.70
-5.83
-5.95
-6.91
-8.24
-9.54
-10.66
-11.73
-13.03
-14.81
-17.12
-19.92
-23.17
-26.85
-31.08
-35.85
-40.92
-45.67
-49.20
-50.42
-48.50
-43.12
-34.71
-24.42
-13.80
-4.28
3.13
8.02
10.42
10.52
8.50
4.65
-0.47
-5.93
-10.57
-13.38
-13.91
-12.43
-9.82
-7.12
-5.13
-4.08
-3.80
-3.87
-4.01
-4.18
-4.60
-5.62
-7.55
-10.57
-14.76
-20.01
-26.01
-32.09
-37.26
-40.28
-40.11
-36.17
-28.79
-19.02
-8.35
1.84
10.56
17.35
22.05
24.56
24.78
22.65
18.36
12.51
6.11
0.33
-3.85
-5.92
-6.00
-4.80
-3.30
-2.38
-2.53
-3.65
-5.22
-6.57
-7.36
-7.71
-8.29
-9.99
-13.57
-19.36
-26.98
-35.42
-43.23
-48.80
-50.79
-48.48
-41.97
-32.16
-20.46
-8.36
2.85
12.28
19.32
23.57
24.74
22.79
18.17
11.84
5.20
-0.36
-3.89
-5.22
-4.87
-3.81
-2.91
-2.77
-3.53
-5.05
-7.13
-9.59
-12.35
-15.46
-19.01
-23.20
-28.30
-34.57
-42.03
-50.24
-58.10
-64.03
-66.36
-63.96
-56.61
-45.19
-31.37
-17.08
-4.05
6.60
14.33
18.97
20.63
19.54
16.15
11.21
5.73
0.73
-3.00
-5.11
-5.87
-5.81
-5.62
-5.82
-6.66
-8.05
-9.80
-11.73
-13.87
-16.52
-20.21
-25.52
-32.75
-41.73
-51.57
-60.83
-67.73
-70.66
-68.55
-61.17
-49.16
-33.90
-17.17
-0.85
13.42
24.46
31.59
34.69
34.12
30.63
25.31
19.41
14.14
10.33
8.28
7.67
7.75
7.72
6.96
5.27
2.82
-0.05
-3.06
-6.13
-9.47
-13.47
-18.61
-25.27
-33.47
-42.68
-51.70
-58.81
-62.14
-60.25
-52.64
-39.95
-23.87
-6.49
10.17
24.66
36.24
44.72
50.19
52.74
52.50
49.66
44.78
38.75
32.76
27.94
25.07
24.19
24.58
25.06
24.46
22.13
18.14
13.16
7.93
2.86
-2.19
-7.88
-14.96
-23.97
-34.85
-46.90
-58.74
-68.50
-74.16
-74.02
-67.24
-54.14
-36.25
-15.85
4.61
23.17
38.59
50.34
58.31
62.58
63.33
60.99
56.34
50.53
44.82
40.24
37.30
35.90
35.47
35.26
34.64
33.21
30.82
27.43
23.05
17.80
11.89
5.56
-1.00
-7.79
-15.05
-23.16
-32.45
-42.94
-54.12
-64.87
-73.53
-78.15
-76.98
-69.01
-54.39
-34.59
-12.11
10.09
29.40
44.19
54.06
59.61
61.91
62.02
60.56
57.77
53.76
48.83
43.66
39.21
36.39
35.58
36.53
38.27
39.48
38.95
36.04
30.85
24.11
16.82
9.75
3.30
-2.70
-8.66
-15.08
-22.36
-30.82
-40.56
-51.28
-62.06
-71.13
-76.11
-74.71
-65.56
-48.98
-27.07
-3.10
19.52
38.28
52.11
61.17
66.37
68.68
68.74
66.87
63.26
58.28
52.55
46.91
42.16
38.86
37.09
36.40
36.06
35.22
33.30
30.15
25.99
21.19
16.01
10.45
4.20
-3.02
-11.39
-20.79
-30.92
-41.37
-51.53
-60.54
-67.11
-69.69
-66.83
-57.85
-43.31
-24.91
-5.07
13.95
30.63
44.38
55.21
63.33
68.70
71.15
70.61
67.52
62.83
57.91
53.98
51.74
51.09
51.24
51.15
50.01
47.54
44.12
40.42
37.00
33.86
30.42
25.75
19.21
10.81
1.33
-8.04
-16.17
-22.49
-27.16
-30.91
-34.80
-39.94
-47.17
-56.79
-68.36
-80.40
-90.60
-96.31
-95.25
-86.38
-70.35
-49.29
-26.23
-4.15
14.79
29.56
40.17
47.21
51.37
53.12
52.74
50.41
46.54
41.87
37.33
33.73
31.44
30.19
29.22
27.69
25.23
22.06
18.98
16.76
15.71
15.42
14.84
12.94
9.13
3.59
-2.88
-9.30
-14.97
-19.70
-23.71
-27.41
-31.23
-35.53
-40.63
-46.68
-53.32
-59.46
-63.32
-62.93
-56.89
-45.10
-29.01
-11.10
5.98
20.47
31.94
41.07
48.94
56.18
62.60
67.31
69.40
68.61
65.52
61.36
57.39
54.37
52.32
50.70
48.91
46.62
43.96
41.27
38.79
36.51
34.19
31.45
27.97
23.55
18.11
11.70
4.48
-3.19
-10.75
-17.59
-23.22
-27.47
-30.62
-33.38
-36.71
-41.47
-48.11
-56.49
-65.79
-74.54
-80.90
-82.95
-79.27
-69.32
-53.78
-34.43
-13.72
5.95
22.85
36.18
46.00
52.70
56.80
58.69
58.73
57.43
55.36
53.09
50.96
49.07
47.33
45.70
44.23
43.04
42.19
41.56
40.87
39.79
38.05
35.47
32.00
27.60
22.29
16.17
9.37
2.12
-5.28
-12.48
-19.16
-25.04
-30.05
-34.36
-38.38
-42.74
-48.05
-54.73
-62.80
-71.62
-80.02
-86.38
-88.99
-86.54
-78.49
-65.30
-48.31
-29.49
-10.89
5.82
19.56
29.88
36.87
40.89
42.42
41.93
39.94
37.05
33.90
31.19
29.47
28.97
29.58
30.88
32.28
33.21
33.22
32.06
29.67
26.23
22.08
17.66
13.36
9.31
5.40
1.35
-3.12
-8.10
-13.40
-18.66
-23.56
-27.97
-32.03
-36.05
-40.36
-45.23
-50.85
-57.34
-64.63
-72.25
-79.22
-84.06
-85.12
-81.11
-71.63
-57.37
-40.07
-21.95
-5.13
8.96
19.75
27.38
32.37
35.26
36.44
36.22
34.99
33.26
31.63
30.61
30.43
30.93
31.72
32.27
32.20
31.32
29.70
27.57
25.25
22.99
20.86
18.72
16.21
13.05
9.08
4.35
-0.83
-6.17
-11.43
-16.48
-21.24
-25.62
-29.51
-32.89
-35.98
-39.08
-42.58
-46.78
-51.91
-58.15
-65.55
-73.85
-82.18
-89.02
-92.36
-90.37
-82.13
-68.12
-50.19
-30.98
-13.02
2.01
13.51
21.78
27.48
31.23
33.36
34.05
33.57
32.32
30.83
29.56
28.71
28.18
27.74
27.30
26.95
26.92
27.32
27.95
28.33
27.83
26.09
23.11
19.31
15.20
11.21
7.42
3.68
-0.27
-4.63
-9.51
-14.95
-20.93
-27.36
-33.94
-40.14
-45.38
-49.27
-51.85
-53.79
-56.16
-60.14
-66.42
-74.82
-84.17
-92.46
-97.41
-97.11
-90.58
-78.10
-61.11
-41.85
-22.69
-5.57
8.36
18.73
25.75
29.95
31.94
32.32
31.72
30.71
29.79
29.29
29.27
29.55
29.84
29.90
29.69
29.33
29.01
28.83
28.71
28.43
27.70
26.26
23.91
20.60
16.43
11.62
6.44
1.09
-4.34
-9.90
-15.65
-21.52
-27.28
-32.62
-37.35
-41.56
-45.66
-50.29
-55.97
-62.98
-71.07
-79.53
-87.11
-92.20
-93.12
-88.43
-77.50
-60.93
-40.51
-18.84
1.40
18.23
30.82
39.43
44.95
48.25
49.86
49.94
48.54
45.99
42.97
40.33
38.71
38.28
38.70
39.50
40.31
41.05
41.81
42.51
42.81
42.07
39.73
35.54
29.81
23.21
16.53
10.35
4.86
-0.14
-5.03
-10.21
-15.93
-22.18
-28.77
-35.37
-41.68
-47.57
-53.21
-59.00
-65.55
-73.29
-82.17
-91.34
-99.14
-103.41
-102.23
-94.42
-80.13
-60.77
-38.74
-16.71
3.06
19.12
31.09
39.29
44.45
47.16
47.82
46.66
44.03
40.63
37.40
35.34
34.95
36.08
37.89
39.29
39.47
38.16
35.67
32.53
29.15
25.51
21.30
16.12
9.83
2.74
-4.56
-11.33
-17.11
-21.74
-25.42
-28.53
-31.42
-34.44
-37.90
-42.24
-47.91
-55.18
-63.78
-72.70
-80.17
-84.08
-82.54
-74.53
-60.23
-40.97
-18.90
3.58
24.43
42.17
56.06
65.88
71.77
74.01
73.11
69.78
64.91
59.58
54.82
51.42
49.76
49.71
50.72
52.01
52.85
52.71
51.48
49.38
46.81
44.10
41.34
38.31
34.55
29.68
23.52
16.24
8.19
-0.15
-8.33
-15.93
-22.59
-28.14
-32.72
-36.97
-41.80
-48.22
-56.80
-67.24
-78.22
-87.52
-92.58
-91.16
-82.03
-65.36
-42.75
-16.85
9.34
33.13
52.71
67.30
76.96
82.25
83.92
82.73
79.50
75.11
70.44
66.29
63.22
61.50
61.14
62.00
63.82
66.28
68.96
71.32
72.85
73.08
71.84
69.30
65.91
62.29
58.97
56.25
54.04
51.94
49.28
45.30
39.29
30.75
19.43
5.37
-11.12
-29.61
-49.68
-70.95
-93.00
-115.06
-135.68
-152.68
-163.55
-166.13
-159.53
-144.56
-123.55
-99.61
-75.66
-53.70
-34.59
-18.45
-5.13
5.41
12.98
17.45
19.02
18.49
17.06
16.09
16.58
18.82
22.46
26.60
30.39
33.30
35.32
36.74
37.83
38.50
38.35
36.77
33.24
27.62
20.25
11.88
3.43
-4.21
-10.34
-14.69
-17.48
-19.45
-21.67
-25.36
-31.41
-40.03
-50.43
-60.83
-68.75
-71.67
-67.83
-56.82
-39.85
-19.38
1.59
20.41
35.43
46.12
52.86
56.46
57.69
57.09
55.01
51.90
48.42
45.42
43.77
44.00
46.09
49.42
52.97
55.78
57.28
57.47
56.80
55.79
54.60
52.94
50.17
45.71
39.28
31.17
21.96
12.45
3.29
-5.06
-12.49
-19.28
-26.02
-33.58
-42.70
-53.61
-65.59
-76.90
-85.15
-88.00
-83.85
-72.37
-54.53
-32.43
-8.71
13.91
33.23
47.85
57.33
62.07
62.97
61.10
57.48
52.86
47.96
43.41
39.87
37.92
37.79
39.22
41.45
43.47
44.35
43.61
41.39
38.29
34.99
31.86
28.73
25.03
20.12
13.79
6.41
-1.20
-8.17
-14.13
-19.32
-24.42
-30.20
-37.18
-45.41
-54.59
-64.28
-73.92
-82.79
-89.88
-93.77
-93.04
-86.63
-74.39
-57.34
-37.43
-17.03
1.78
17.73
30.45
40.21
47.47
52.54
55.46
56.19
54.86
52.00
48.45
45.20
42.98
42.08
42.26
42.94
43.48
43.41
42.55
40.87
38.43
35.17
30.96
25.64
19.11
11.50
3.24
-5.07
-12.74
-19.21
-24.32
-28.33
-31.98
-36.12
-41.53
-48.56
-57.16
-66.75
-76.40
-84.78
-90.24
-91.18
-86.44
-75.72
-59.89
-40.81
-20.80
-2.08
13.80
26.15
35.01
40.89
44.35
45.88
45.88
44.66
42.59
40.09
37.65
35.63
34.23
33.45
33.08
32.89
32.65
32.27
31.60
30.35
28.03
24.13
18.35
10.92
2.59
-5.55
-12.57
-18.05
-22.24
-25.88
-29.91
-35.07
-41.80
-50.20
-59.88
-69.94
-78.96
-85.03
-86.31
-81.62
-70.94
-55.57
-37.60
-19.29
-2.34
12.34
24.51
34.20
41.37
45.97
47.99
47.73
45.85
43.24
40.73
38.90
37.86
37.36
36.94
36.24
35.21
34.08
33.13
32.43
31.58
29.82
26.35
20.76
13.28
4.77
-3.58
-10.75
-16.21
-20.08
-22.97
-25.75
-29.23
-34.03
-40.51
-48.67
-58.04
-67.54
-75.53
-80.12
-79.68
-73.33
-61.45
-45.61
-28.06
-11.16
3.41
14.95
23.55
29.76
34.10
36.81
37.96
37.66
36.26
34.40
32.82
32.08
32.31
33.23
34.18
34.50
33.74
31.85
29.09
25.85
22.43
18.81
14.80
10.15
4.76
-1.21
-7.51
-13.78
-19.74
-25.15
-29.90
-34.05
-37.90
-41.96
-46.84
-52.96
-60.37
-68.50
-76.24
-82.10
-84.60
-82.59
-75.55
-63.75
-48.31
-31.02
-14.00
0.93
12.69
21.19
27.07
31.15
34.05
35.84
36.37
35.51
33.60
31.36
29.60
28.78
28.76
29.02
28.92
28.13
26.78
25.24
23.67
21.88
19.25
15.18
9.48
2.56
-4.65
-11.26
-16.79
-21.40
-25.68
-30.27
-35.56
-41.61
-48.32
-55.57
-63.08
-70.19
-75.60
-77.62
-74.71
-66.27
-52.98
-36.74
-19.82
-4.21
8.95
19.37
27.16
32.46
35.20
35.39
33.30
29.67
25.59
22.09
19.83
18.86
18.79
18.98
18.98
18.69
18.29
18.05
18.00
17.80
16.83
14.45
10.30
4.52
-2.41
-9.74
-16.82
-23.28
-28.99
-34.12
-39.01
-44.09
-49.75
-56.31
-63.80
-71.71
-78.90
-83.62
-83.94
-78.37
-66.51
-49.47
-29.57
-9.68
7.75
21.29
30.69
36.46
39.31
39.73
38.01
34.57
30.22
26.18
23.63
23.27
24.89
27.52
29.91
31.02
30.44
28.44
25.62
22.58
19.59
16.47
12.77
8.10
2.33
-4.27
-11.14
-17.71
-23.62
-28.93
-34.01
-39.44
-45.72
-53.12
-61.42
-69.96
-77.46
-82.33
-82.88
-77.88
-67.04
-51.24
-32.35
-12.67
5.71
21.44
33.94
43.14
49.16
52.06
51.92
49.16
44.70
39.85
35.92
33.85
33.91
35.70
38.41
41.12
43.02
43.51
42.27
39.33
35.07
30.04
24.87
19.90
15.04
9.89
4.03
-2.69
-9.95
-17.11
-23.51
-28.86
-33.45
-37.90
-43.07
-49.56
-57.47
-66.22
-74.54
-80.72
-82.82
-79.35
-69.64
-54.22
-34.67
-13.25
7.70
26.27
41.24
52.14
58.93
61.94
61.70
58.91
54.48
49.48
44.92
41.62
39.96
39.76
40.51
41.48
42.10
42.04
41.28
39.95
38.02
35.29
31.38
26.00
19.17
11.32
3.17
-4.51
-11.18
-16.66
-21.09
-24.80
-28.18
-31.75
-36.08
-41.87
-49.73
-59.98
-72.30
-85.55
-97.83
-106.76
-110.17
-106.56
-95.69
-78.70
-57.91
-36.19
-16.25
0.01
11.75
19.08
22.66
23.25
21.57
18.21
13.85
9.37
5.71
3.85
4.53
8.03
14.16
22.33
31.66
41.11
49.67
56.31
60.12
60.30
56.39
48.52
37.51
24.81
12.10
0.77
-8.56
-16.08
-22.53
-28.82
-35.56
-42.92
-50.46
-57.17
-61.51
-61.74
-56.33
-44.65
-27.47
-6.77
14.74
34.51
50.96
63.51
72.25
77.44
79.26
77.85
73.78
68.21
62.68
58.67
56.91
57.16
58.39
59.37
59.22
57.85
55.72
53.43
51.33
49.17
46.34
42.10
36.06
28.29
19.38
10.02
0.82
-7.95
-16.41
-24.87
-33.69
-43.15
-53.35
-64.05
-74.44
-83.04
-87.78
-86.67
-78.40
-63.11
-42.50
-19.42
3.03
22.44
37.62
48.48
55.55
59.43
60.51
59.01
55.34
50.30
45.04
40.71
38.14
37.55
38.55
40.39
42.31
43.76
44.47
44.31
43.14
40.68
36.68
30.98
23.82
15.80
7.79
0.52
-5.61
-10.80
-15.80
-21.64
-29.23
-38.86
-49.93
-60.88
-69.46
-73.33
-70.69
-60.97
-44.96
-24.70
-2.92
17.61
34.67
46.97
54.13
56.47
54.81
50.26
44.08
37.65
32.24
28.85
27.86
29.01
31.43
34.05
35.97
36.72
36.30
34.98
33.00
30.38
26.92
22.38
16.67
10.03
2.96
-3.83
-9.62
-13.92
-16.59
-18.00
-19.00
-20.70
-24.05
-29.43
-36.28
-42.98
-47.34
-47.22
-41.31
-29.67
-13.78
3.90
20.64
34.21
43.38
47.93
48.55
46.26
42.21
37.45
33.00
29.73
28.28
28.78
30.76
33.18
34.83
34.83
33.10
30.36
27.73
25.98
25.06
24.01
21.54
16.73
9.56
0.96
-7.81
-15.83
-22.90
-29.56
-36.55
-44.26
-52.47
-60.36
-66.75
-70.41
-70.30
-65.77
-56.72
-43.77
-28.16
-11.66
3.98
17.35
27.61
34.52
38.14
38.74
36.62
32.30
26.49
20.18
14.40
10.02
7.57
7.13
8.35
10.48
12.64
13.95
13.87
12.27
9.41
5.87
2.17
-1.34
-4.65
-7.85
-11.07
-14.35
-17.65
-21.09
-25.06
-30.08
-36.52
-44.12
-51.87
-58.04
-60.74
-58.59
-51.19
-39.30
-24.59
-9.23
4.77
15.86
23.23
26.79
27.07
24.95
21.42
17.39
13.44
9.88
6.83
4.37
2.66
1.92
2.29
3.66
5.62
7.47
8.54
8.35
6.75
3.91
0.17
-4.04
-8.35
-12.44
-16.08
-19.23
-22.10
-25.19
-29.20
-34.71
-41.73
-49.46
-56.28
-60.17
-59.42
-53.25
-42.18
-27.83
-12.38
2.08
14.10
22.98
28.64
31.30
31.28
28.99
24.92
19.73
14.27
9.37
5.69
3.60
3.08
3.85
5.32
6.94
8.16
8.58
7.96
6.26
3.59
0.14
-3.76
-7.79
-11.73
-15.49
-19.17
-23.06
-27.61
-33.25
-40.18
-48.05
-55.84
-61.95
-64.53
-62.25
-54.69
-42.69
-28.00
-12.81
0.95
11.98
19.66
23.97
25.24
24.04
21.06
17.11
13.03
9.55
7.15
6.00
5.97
6.73
7.86
9.00
9.83
10.11
9.57
7.93
4.90
0.46
-5.19
-11.46
-17.61
-23.00
-27.31
-30.72
-33.91
-37.79
-43.13
-50.04
-57.70
-64.37
-67.88
-66.45
-59.49
-47.78
-33.26
-18.18
-4.28
7.54
17.12
24.46
29.42
31.65
30.98
27.79
23.08
18.22
14.43
12.35
11.88
12.38
13.02
13.11
12.27
10.56
8.20
5.49
2.58
-0.61
-4.30
-8.71
-13.79
-19.26
-24.67
-29.80
-34.78
-40.20
-46.77
-54.84
-63.97
-72.76
-79.15
-81.05
-77.10
-67.24
-52.71
-35.70
-18.60
-3.25
9.36
18.99
25.76
29.80
31.16
30.03
27.03
23.21
19.80
17.70
17.13
17.67
18.65
19.50
20.03
20.19
19.93
18.88
16.58
12.79
7.71
2.03
-3.45
-8.24
-12.41
-16.53
-21.31
-27.34
-34.78
-43.48
-53.06
-62.85
-71.72
-78.05
-79.96
-75.86
-65.19
-48.82
-28.96
-8.42
10.26
25.51
36.81
44.32
48.50
49.86
48.96
46.61
43.82
41.53
40.22
39.87
39.95
39.92
39.48
38.68
37.76
36.84
35.75
34.02
31.21
27.07
21.67
15.35
8.55
1.63
-5.17
-11.77
-18.24
-24.77
-31.75
-39.59
-48.64
-58.80
-69.29
-78.56
-84.52
-85.14
-79.09
-66.28
-47.89
-26.16
-3.73
16.97
34.18
47.01
55.41
59.91
61.31
60.49
58.26
55.46
52.84
51.04
50.37
50.69
51.31
51.28
49.80
46.72
42.56
38.25
34.44
31.09
27.33
21.96
14.10
3.76
-8.01
-19.66
-29.73
-37.47
-42.93
-46.82
-50.12
-53.74
-58.42
-64.56
-72.12
-80.33
-87.56
-91.55
-90.08
-81.84
-67.07
-47.62
-26.32
-5.92
11.74
26.06
37.40
46.43
53.53
58.70
61.78
62.85
62.59
62.03
62.23
63.72
66.32
69.26
71.54
72.40
71.59
69.44
66.59
63.69
61.03
58.51
55.64
51.80
46.56
39.83
31.92
23.41
14.98
7.13
0.18
-5.87
-11.35
-16.79
-22.94
-30.47
-39.68
-50.16
-60.63
-69.03
-73.08
-71.00
-62.06
-46.95
-27.58
-6.43
14.12
32.33
47.33
58.94
67.31
72.65
75.12
75.03
72.97
69.97
67.23
65.79
66.18
68.07
70.51
72.16
71.78
68.56
62.36
53.65
43.55
33.60
25.51
20.74
19.89
22.42
26.58
29.95
30.31
26.37
18.21
6.96
-5.81
-18.72
-30.99
-42.35
-52.80
-62.43
-71.32
-79.69
-87.75
-95.42
-101.94
-105.82
-105.06
-98.03
-84.14
-64.39
-41.21
-17.71
3.30
20.11
32.47
41.24
47.66
52.65
56.45
58.71
59.03
57.40
54.45
51.22
48.73
47.54
47.59
48.30
48.90
48.62
46.97
43.75
39.06
33.27
26.89
20.46
14.32
8.52
2.83
-3.09
-9.44
-16.07
-22.66
-28.80
-34.29
-39.10
-43.44
-47.53
-51.65
-56.05
-60.98
-66.60
-72.68
-78.42
-82.43
-83.01
-78.68
-68.82
-53.98
-35.79
-16.44
1.88
17.66
30.12
39.22
45.29
48.74
50.00
49.49
47.80
45.75
44.29
44.22
45.82
48.75
52.15
54.98
56.46
56.35
54.85
52.42
49.43
46.05
42.28
38.10
33.60
28.91
24.12
19.17
13.86
7.94
1.38
-5.60
-12.55
-18.96
-24.57
-29.44
-33.93
-38.64
-44.01
-50.13
-56.42
-61.61
-63.94
-61.71
-54.04
-41.29
-25.10
-7.89
8.12
21.64
32.48
41.29
48.82
55.25
60.08
62.57
62.33
59.82
56.22
52.83
50.42
48.92
47.61
45.50
41.78
35.90
27.45
16.22
2.27
-13.41
-28.80
-41.17
-48.25
-49.64
-47.76
-47.45
-54.36
-72.63
-102.82
-140.88
-178.80
-207.09
-218.02
-208.23
-179.29
-136.11
-84.19
-27.48
31.95
92.47
151.30
204.11
246.49
276.12
294.10
304.12
309.93
312.90
311.46
302.70
284.92
259.25
229.24
198.95
171.23
147.25
126.92
109.76
95.24
82.45
69.55
54.02
33.39
6.50
-25.96
-61.65
-97.37
-130.02
-157.22
-177.56
-190.58
-196.95
-198.36
-197.29
-196.41
-197.73
-202.15
-209.38
-218.41
-227.99
-236.85
-243.49
-245.95
-241.95
-229.51
-207.83
-177.84
-142.08
-103.87
-66.52
-32.51
-3.36
20.25
38.24
51.02
59.46
64.79
68.38
71.47
75.03
79.68
85.66
92.67
99.60
104.38
104.14
95.94
77.65
48.72
10.65
-33.07
-77.46
-117.12
-147.30
-164.98
-169.44
-162.20
-146.43
-126.05
-104.72
-85.09
-68.54
-55.38
-45.27
-37.49
-31.31
-25.95
-20.61
-14.40
-6.48
3.84
16.81
31.95
47.98
62.79
74.08
79.89
79.28
72.62
61.54
48.37
35.30
23.74
14.02
5.68
-1.90
-9.08
-15.90
-22.42
-29.09
-36.86
-46.65
-58.73
-72.15
-84.87
-94.55
-99.60
-100.09
-97.70
-94.95
-94.00
-95.41
-97.87
-98.64
-94.63
-83.50
-64.35
-37.85
-5.91
28.80
63.16
93.97
118.51
135.10
143.77
146.27
145.22
142.90
140.16
136.25
129.70
119.62
106.61
92.74
80.49
71.49
65.70
61.63
57.34
51.53
44.08
35.57
26.40
16.12
3.44
-13.03
-33.77
-57.84
-82.95
-106.47
-126.45
-142.27
-154.49
-164.11
-171.63
-176.73
-178.53
-176.29
-170.11
-161.04
-150.62
-140.18
-130.20
-120.26
-109.36
-96.53
-81.34
-64.25
-46.57
-30.06
-16.45
-6.91
-1.62
0.46
1.39
3.85
10.38
22.58
40.50
62.44
85.44
106.18
122.05
131.92
136.25
136.73
135.28
133.13
130.36
126.03
118.95
108.47
94.96
79.54
63.57
47.99
33.01
18.35
3.96
-9.44
-20.30
-26.69
-27.29
-22.16
-12.98
-2.40
7.06
14.06
18.86
22.78
27.12
32.14
36.70
38.93
37.30
31.60
23.13
13.96
5.87
-0.54
-5.96
-11.88
-19.84
-30.85
-45.23
-62.60
-82.11
-102.68
-123.22
-143.03
-161.86
-179.80
-197.08
-213.63
-228.91
-241.85
-250.85
-253.97
-249.27
-235.68
-213.64
-185.36
-154.16
-123.08
-93.41
-64.26
-33.53
0.35
36.72
72.32
102.56
123.58
134.06
135.39
130.82
123.70
116.41
110.04
104.94
101.23
99.19
99.06
100.75
103.61
106.48
108.12
107.59
104.61
99.64
93.64
87.75
82.84
79.34
77.09
75.46
73.58
70.66
66.19
60.13
52.79
44.65
36.01
26.83
16.84
5.85
-5.75
-16.64
-24.65
-27.38
-23.01
-11.12
7.05
28.99
51.71
72.59
89.94
102.95
111.35
115.15
114.44
109.66
101.78
92.29
82.89
75.05
69.55
66.51
65.53
66.10
67.84
70.52
74.04
78.23
82.84
87.54
91.80
94.94
96.05
94.21
88.53
78.57
64.40
46.75
26.80
5.90
-14.74
-34.19
-51.71
-66.52
-77.55
-83.40
-82.70
-74.79
-60.28
-41.33
-21.11
-3.01
10.46
18.27
20.78
19.18
14.79
8.63
1.50
-5.79
-12.31
-17.04
-19.33
-19.10
-16.92
-13.63
-9.91
-6.02
-2.00
1.98
5.23
6.56
4.79
-0.52
-8.65
-17.82
-25.87
-31.14
-32.91
-31.46
-27.55
-22.01
-15.44
-8.34
-1.32
4.94
9.96
13.92
17.82
23.28
31.85
44.37
60.61
79.41
99.10
118.04
134.83
148.12
156.38
157.74
150.35
133.07
106.16
71.73
33.27
-5.11
-39.86
-68.75
-91.11
-107.43
-118.75
-126.10
-130.19
-131.47
-130.18
-126.45
-120.24
-111.15
-98.60
-82.06
-61.52
-37.84
-12.83
10.95
30.64
43.69
48.53
44.96
34.29
19.06
2.41
-12.63
-23.83
-30.13
-31.53
-28.79
-23.07
-15.61
-7.67
-0.45
5.08
8.55
10.30
11.35
12.77
15.05
17.73
19.59
19.30
16.23
10.91
4.74
-0.74
-4.78
-7.83
-11.20
-16.32
-23.91
-33.81
-45.28
-57.69
-70.96
-85.49
-101.57
-118.94
-136.56
-152.96
-166.81
-177.40
-184.48
-188.00
-187.62
-182.55
-171.98
-155.59
-134.09
-109.23
-83.43
-59.05
-37.79
-20.38
-6.73
3.60
11.15
16.24
19.14
20.27
20.33
20.25
20.84
22.45
24.88
27.65
30.21
32.18
33.39
33.62
32.57
29.94
25.63
19.90
13.49
7.22
1.62
-3.30
-8.05
-13.49
-20.35
-28.89
-38.65
-48.33
-56.13
-59.97
-58.19
-50.06
-36.08
-17.83
2.43
22.54
40.89
56.58
69.21
78.51
84.18
85.92
83.73
78.17
70.41
62.05
54.62
49.34
46.76
46.71
48.47
50.91
52.64
52.27
48.92
42.50
34.09
25.76
19.98
18.70
22.54
30.45
40.08
48.61
53.56
53.33
47.24
35.36
18.52
-1.61
-22.53
-41.11
-54.42
-60.42
-58.61
-50.04
-36.73
-21.02
-4.81
10.66
24.75
37.10
47.40
55.26
60.23
61.94
60.36
55.92
49.49
42.20
35.15
29.15
24.57
21.53
19.94
19.60
20.12
20.76
20.61
18.67
14.33
7.58
-0.92
-10.08
-18.79
-26.32
-32.44
-37.45
-42.07
-47.14
-53.40
-61.13
-69.86
-78.18
-83.99
-84.99
-79.52
-67.25
-49.42
-28.41
-7.04
12.41
28.55
40.91
49.55
54.68
56.54
55.52
52.41
48.36
44.71
42.53
42.29
43.64
45.54
46.67
45.93
42.88
37.87
31.94
26.25
21.53
17.78
14.23
9.96
4.40
-2.16
-8.79
-14.33
-18.17
-20.48
-22.34
-25.21
-30.27
-38.05
-48.05
-58.90
-68.63
-75.15
-76.78
-72.63
-62.81
-48.36
-30.97
-12.56
5.10
20.69
33.37
42.79
48.98
52.37
53.66
53.87
54.12
55.42
58.34
62.76
67.87
72.23
74.30
72.94
67.87
59.76
50.05
40.28
31.65
24.63
18.98
14.17
9.69
5.42
1.50
-1.89
-4.75
-7.45
-10.59
-14.80
-20.52
-27.90
-36.78
-46.70
-56.80
-65.81
-72.17
-74.36
-71.29
-62.69
-49.40
-33.09
-15.94
-0.03
13.18
23.05
29.60
33.31
34.78
34.55
33.21
31.35
29.65
28.63
28.43
28.74
28.91
28.24
26.40
23.54
20.19
16.88
13.77
10.64
7.07
2.78
-2.14
-7.19
-11.79
-15.63
-18.83
-21.87
-25.44
-30.10
-36.15
-43.55
-51.91
-60.43
-67.91
-72.86
-73.78
-69.63
-60.23
-46.54
-30.32
-13.63
1.80
14.88
25.18
32.58
36.96
38.28
36.69
32.88
28.11
23.89
21.40
21.03
22.22
23.88
25.04
25.32
24.94
24.51
24.31
23.95
22.57
19.27
13.73
6.50
-1.20
-8.07
-13.34
-17.13
-20.17
-23.38
-27.40
-32.50
-38.73
-46.04
-54.18
-62.45
-69.42
-73.15
-71.78
-64.42
-51.65
-35.42
-18.29
-2.52
10.62
20.81
28.35
33.51
36.30
36.66
34.75
31.21
27.09
23.57
21.51
21.12
22.08
23.60
24.89
25.39
24.91
23.61
21.83
19.84
17.74
15.44
12.67
9.20
4.91
-0.12
-5.63
-11.29
-16.81
-22.05
-27.02
-31.86
-36.79
-41.99
-47.58
-53.54
-59.56
-64.89
-68.49
-69.17
-65.98
-58.60
-47.54
-34.02
-19.62
-5.73
6.72
17.37
26.24
33.32
38.48
41.43
41.98
40.30
37.12
33.54
30.76
29.65
30.44
32.69
35.50
37.93
39.36
39.59
38.79
37.17
34.83
31.70
27.67
22.80
17.41
11.89
6.57
1.49
-3.51
-8.58
-13.75
-18.78
-23.51
-27.99
-32.57
-37.80
-44.14
-51.68
-59.98
-68.07
-74.63
-78.19
-77.52
-71.95
-61.57
-47.39
-31.15
-14.84
-0.19
11.71
20.58
26.57
30.01
31.16
30.27
27.80
24.49
21.19
18.73
17.56
17.76
19.03
20.87
22.75
24.18
24.76
24.18
22.28
19.14
15.08
10.59
6.17
2.07
-1.74
-5.49
-9.50
-13.91
-18.66
-23.49
-28.07
-32.24
-35.99
-39.64
-43.69
-48.77
-55.34
-63.49
-72.60
-81.34
-87.82
-90.10
-86.75
-77.43
-62.97
-45.19
-26.33
-8.47
6.88
18.90
27.42
32.76
35.58
36.56
36.37
35.47
34.19
32.80
31.63
30.94
30.89
31.35
31.89
31.98
31.33
30.01
28.44
27.08
25.97
24.60
22.11
17.75
11.37
3.51
-4.76
-12.36
-18.70
-23.74
-27.98
-32.16
-36.99
-43.00
-50.47
-59.27
-68.70
-77.39
-83.46
-84.96
-80.54
-69.94
-54.21
-35.38
-15.81
2.51
18.34
31.21
41.13
48.19
52.44
53.92
52.85
49.86
45.93
42.26
39.81
39.05
39.86
41.67
43.70
45.29
46.02
45.68
44.21
41.61
37.94
33.33
28.02
22.23
16.15
9.87
3.46
-2.94
-9.08
-14.71
-19.73
-24.34
-29.03
-34.44
-41.07
-49.18
-58.51
-68.38
-77.66
-84.87
-88.36
-86.70
-79.07
-65.62
-47.68
-27.34
-7.02
11.21
26.07
37.18
44.86
49.78
52.51
53.42
52.78
50.91
48.39
45.95
44.37
44.12
45.23
47.29
49.57
51.38
52.15
51.55
49.51
46.17
41.79
36.69
31.23
25.65
20.11
14.68
9.34
4.06
-1.24
-6.64
-12.21
-17.92
-23.71
-29.48
-35.16
-40.89
-46.97
-53.81
-61.60
-69.92
-77.57
-82.71
-83.35
-78.09
-66.63
-50.05
-30.46
-10.30
8.36
24.28
37.01
46.57
53.01
56.34
56.61
54.24
50.09
45.43
41.53
39.27
38.96
40.34
42.74
45.39
47.61
48.90
48.93
47.64
45.14
41.62
37.28
32.23
26.46
19.99
12.92
5.55
-1.69
-8.34
-14.06
-18.82
-22.89
-26.84
-31.41
-37.34
-45.09
-54.63
-65.10
-74.84
-81.69
-83.49
-78.79
-67.44
-50.62
-30.55
-9.84
9.24
25.29
37.77
46.82
52.82
56.09
56.86
55.44
52.39
48.55
44.96
42.51
41.69
42.47
44.34
46.55
48.29
49.03
48.50
46.73
43.94
40.40
36.24
31.52
26.20
20.29
13.87
7.17
0.51
-5.81
-11.58
-16.85
-21.75
-26.56
-31.56
-37.04
-43.28
-50.49
-58.68
-67.39
-75.56
-81.56
-83.57
-80.15
-70.79
-56.18
-37.98
-18.38
0.59
17.45
31.36
41.97
49.23
53.25
54.36
53.11
50.26
46.67
43.17
40.45
38.96
38.87
40.01
41.91
43.90
45.23
45.41
44.21
41.70
38.15
33.90
29.24
24.40
19.52
14.57
9.41
3.82
-2.38
-9.08
-15.91
-22.29
-27.76
-32.11
-35.61
-38.85
-42.62
-47.61
-54.23
-62.29
-70.89
-78.49
-83.13
-83.03
-77.10
-65.41
-49.12
-30.26
-11.05
6.57
21.29
32.55
40.35
45.06
47.21
47.31
45.86
43.39
40.50
37.89
36.19
35.82
36.80
38.73
40.88
42.48
42.94
42.00
39.71
36.33
32.15
27.54
22.81
18.17
13.71
9.37
5.00
0.48
-4.23
-9.11
-14.00
-18.77
-23.35
-27.76
-32.11
-36.52
-41.07
-45.88
-51.15
-57.09
-63.71
-70.55
-76.37
-79.38
-77.69
-70.12
-56.80
-39.30
-20.23
-2.27
12.62
23.73
31.36
36.33
39.38
40.85
40.81
39.41
37.10
34.65
32.86
32.20
32.56
33.40
33.96
33.79
32.89
31.74
30.87
30.50
30.31
29.58
27.60
24.01
19.03
13.28
7.51
2.13
-2.78
-7.42
-11.95
-16.40
-20.60
-24.39
-27.77
-31.00
-34.43
-38.48
-43.51
-49.76
-57.17
-65.26
-72.91
-78.38
-79.76
-75.61
-65.53
-50.51
-32.61
-14.31
2.19
15.48
25.02
31.02
34.07
34.93
34.40
33.23
32.10
31.42
31.36
31.84
32.61
33.41
34.00
34.21
33.98
33.24
32.11
30.66
29.01
27.15
24.93
22.13
18.48
13.91
8.55
2.68
-3.37
-9.36
-15.26
-21.07
-26.76
-32.16
-36.99
-41.06
-44.43
-47.50
-50.87
-55.23
-60.96
-68.00
-75.62
-82.50
-86.95
-87.31
-82.44
-72.14
-57.32
-39.85
-21.99
-5.79
7.38
17.08
23.62
27.72
30.06
31.11
31.16
30.48
29.42
28.43
28.00
28.49
30.02
32.44
35.42
38.52
41.20
42.96
43.38
42.25
39.69
36.19
32.39
28.85
25.79
23.06
20.26
16.99
13.05
8.37
2.96
-3.12
-9.85
-17.13
-24.77
-32.41
-39.77
-46.69
-53.24
-59.59
-65.73
-71.26
-75.23
-76.37
-73.49
-66.00
-54.30
-39.69
-24.06
-9.23
3.51
13.64
21.13
26.19
28.88
29.27
27.61
24.60
21.33
18.93
18.08
18.81
20.59
22.74
24.72
26.43
27.93
29.29
30.30
30.51
29.42
26.80
22.86
18.19
13.57
9.58
6.45
3.92
1.40
-1.71
-5.70
-10.40
-15.23
-19.57
-23.06
-25.85
-28.58
-32.15
-37.30
-44.31
-52.77
-61.61
-69.35
-74.43
-75.51
-71.85
-63.39
-50.85
-35.50
-19.06
-3.24
10.47
21.11
28.34
32.35
33.77
33.34
31.75
29.60
27.37
25.45
24.21
23.93
24.67
26.22
28.07
29.57
30.09
29.31
27.32
24.55
21.55
18.69
15.91
12.81
8.86
3.73
-2.40
-8.87
-14.87
-19.75
-23.42
-26.33
-29.30
-33.16
-38.45
-45.18
-52.85
-60.60
-67.30
-71.82
-73.21
-70.77
-64.36
-54.31
-41.50
-27.15
-12.57
1.05
12.85
22.26
29.01
32.97
34.17
32.92
29.83
25.78
21.80
18.75
17.14
17.11
18.42
20.66
23.32
25.90
27.89
28.93
28.76
27.37
24.85
21.25
16.60
11.05
4.98
-0.97
-6.06
-9.91
-12.81
-15.62
-19.47
-25.10
-32.46
-40.50
-47.56
-51.81
-51.76
-46.69
-36.80
-23.16
-7.46
8.43
22.85
34.69
43.40
48.74
50.63
49.18
44.81
38.56
32.00
26.81
24.26
24.66
27.30
30.79
33.76
35.33
35.39
34.42
33.05
31.65
30.05
27.64
23.72
18.06
11.08
3.81
-2.69
-7.83
-11.77
-15.25
-19.25
-24.52
-31.33
-39.46
-48.24
-56.67
-63.46
-67.05
-66.00
-59.44
-47.45
-31.20
-12.71
5.72
22.15
35.26
44.48
49.81
51.65
50.56
47.28
42.52
37.15
32.13
28.45
26.87
27.64
30.34
33.91
37.14
39.09
39.45
38.48
36.68
34.32
31.29
27.24
21.93
15.59
8.84
2.39
-3.29
-8.21
-12.70
-17.18
-21.97
-27.25
-33.10
-39.68
-47.11
-55.27
-63.45
-70.35
-74.25
-73.50
-67.15
-55.30
-39.18
-20.76
-2.16
14.87
29.21
40.44
48.51
53.58
55.83
55.57
53.26
49.65
45.69
42.38
40.46
40.17
41.24
42.93
44.33
44.73
43.95
42.29
40.40
38.79
37.47
35.83
33.01
28.27
21.56
13.58
5.53
-1.50
-7.01
-11.31
-15.22
-19.62
-25.07
-31.66
-39.16
-47.30
-55.76
-64.02
-71.09
-75.42
-75.26
-69.28
-57.25
-40.26
-20.52
-0.63
17.15
31.45
41.84
48.51
51.95
52.65
51.07
47.78
43.56
39.35
36.12
34.53
34.75
36.43
38.77
40.85
41.88
41.52
39.85
37.30
34.34
31.23
27.92
24.11
19.54
14.16
8.23
2.21
-3.47
-8.56
-13.07
-17.17
-21.08
-24.97
-28.99
-33.30
-38.16
-43.88
-50.74
-58.76
-67.42
-75.53
-81.28
-82.65
-78.01
-66.84
-49.98
-29.67
-8.86
9.78
24.48
34.84
41.50
45.48
47.60
48.17
47.24
44.92
41.70
38.43
36.00
34.97
35.37
36.75
38.42
39.85
40.77
41.15
40.97
40.05
38.03
34.55
29.56
23.43
16.95
11.05
6.34
2.87
0.10
-2.89
-6.92
-12.31
-18.82
-25.69
-32.08
-37.36
-41.39
-44.52
-47.46
-51.13
-56.23
-62.92
-70.66
-78.16
-83.65
-85.31
-81.73
-72.39
-57.90
-39.91
-20.78
-2.93
11.71
22.18
28.48
31.32
31.63
30.33
28.16
25.77
23.77
22.68
22.73
23.74
25.35
27.16
28.96
30.78
32.56
34.10
34.90
34.49
32.62
29.50
25.64
21.62
17.80
14.25
10.83
7.37
3.70
-0.24
-4.44
-8.84
-13.32
-17.61
-21.34
-24.23
-26.24
-27.74
-29.43
-32.29
-37.15
-44.31
-53.15
-62.12
-68.93
-71.23
-67.46
-57.37
-42.28
-24.53
-6.78
8.81
21.15
30.17
36.39
40.43
42.62
43.10
42.01
39.82
37.28
35.24
34.27
34.47
35.40
36.44
37.09
37.16
36.82
36.31
35.80
35.20
34.16
32.22
28.98
24.35
18.53
12.15
5.94
0.55
-3.75
-7.11
-10.08
-13.33
-17.28
-21.93
-26.86
-31.46
-35.30
-38.39
-41.27
-44.71
-49.50
-55.93
-63.55
-71.09
-76.69
-78.45
-74.99
-65.98
-52.28
-35.74
-18.58
-2.80
10.33
20.35
27.37
31.75
33.85
33.99
32.53
29.98
26.97
24.16
22.10
20.99
20.82
21.28
22.03
22.82
23.47
23.89
23.96
23.49
22.13
19.54
15.60
10.48
4.79
-0.66
-5.15
-8.37
-10.57
-12.41
-14.64
-17.72
-21.70
-26.23
-30.78
-34.87
-38.29
-41.17
-43.95
-47.24
-51.69
-57.71
-65.26
-73.62
-81.36
-86.62
-87.55
-83.07
-73.16
-59.04
-42.67
-26.23
-11.40
0.89
10.45
17.49
22.33
25.26
26.46
26.27
25.22
23.93
23.06
22.97
23.74
25.16
26.82
28.23
29.02
29.01
28.25
27.08
25.82
24.68
23.49
21.70
18.71
14.19
8.36
2.02
-3.85
-8.52
-11.87
-14.44
-17.09
-20.43
-24.59
-29.10
-33.36
-36.95
-40.09
-43.50
-48.00
-54.15
-61.86
-70.33
-78.23
-83.96
-86.05
-83.45
-75.86
-63.77
-48.49
-31.65
-14.92
0.45
13.68
24.37
32.22
36.96
38.57
37.43
34.60
31.46
29.30
28.83
29.99
32.18
34.69
36.99
38.84
40.22
41.04
41.04
39.93
37.50
33.83
29.26
24.26
19.25
14.52
10.18
6.17
2.30
-1.63
-5.80
-10.25
-14.84
-19.37
-23.68
-27.72
-31.62
-35.65
-40.17
-45.54
-52.02
-59.57
-67.74
-75.42
-80.98
-82.51
-78.46
-68.33
-52.90
-34.18
-14.73
3.12
17.91
29.19
37.27
42.72
45.87
46.85
45.79
43.15
39.86
37.11
35.95
36.84
39.44
42.82
45.95
48.14
49.26
49.63
49.57
49.14
47.95
45.42
41.18
35.31
28.49
21.62
15.50
10.43
6.12
1.91
-2.81
-8.32
-14.37
-20.42
-25.95
-30.70
-34.80
-38.64
-42.71
-47.49
-53.34
-60.40
-68.46
-76.71
-83.66
-87.31
-85.78
-77.92
-63.94
-45.38
-24.76
-4.70
12.75
26.49
36.40
42.91
46.69
48.41
48.61
47.85
46.66
45.64
45.34
46.10
47.89
50.38
52.92
54.85
55.75
55.53
54.41
52.68
50.41
47.38
43.23
37.78
31.29
24.49
18.28
13.30
9.60
6.58
3.37
-0.74
-5.94
-11.81
-17.69
-23.01
-27.62
-31.78
-36.01
-40.90
-46.87
-54.10
-62.36
-70.98
-78.79
-84.18
-85.48
-81.37
-71.43
-56.31
-37.67
-17.69
1.56
18.50
32.42
43.18
51.00
56.13
58.72
58.99
57.41
54.84
52.32
50.82
50.74
51.88
53.58
55.14
56.12
56.43
56.26
55.73
54.78
53.05
50.18
45.99
40.55
34.32
27.85
21.79
16.57
12.19
8.25
4.06
-1.00
-7.11
-13.83
-20.35
-25.87
-30.11
-33.51
-37.08
-41.93
-48.77
-57.56
-67.48
-77.03
-84.46
-88.08
-86.54
-79.16
-66.02
-48.17
-27.45
-6.19
13.28
29.17
40.57
47.60
51.07
52.08
51.63
50.41
48.87
47.35
46.21
45.74
46.13
47.29
48.82
50.22
51.03
50.97
50.00
48.24
45.82
42.80
39.19
35.00
30.33
25.38
20.40
15.47
10.57
5.54
0.25
-5.32
-10.99
-16.54
-21.77
-26.54
-30.92
-35.11
-39.48
-44.55
-50.89
-58.76
-67.86
-76.99
-84.07
-86.73
-83.09
-72.52
-56.00
-35.85
-14.91
4.24
20.00
31.89
40.22
45.70
48.92
50.20
49.77
47.99
45.45
42.98
41.28
40.78
41.48
42.99
44.80
46.38
47.36
47.46
46.56
44.65
41.78
38.07
33.65
28.60
22.99
16.95
10.69
4.51
-1.31
-6.69
-11.74
-16.62
-21.44
-26.15
-30.52
-34.45
-38.14
-42.18
-47.34
-54.14
-62.44
-71.23
-78.68
-82.65
-81.36
-73.90
-60.65
-43.11
-23.59
-4.54
12.08
25.13
34.36
40.20
43.33
44.39
43.86
42.22
39.97
37.75
36.21
35.80
36.53
38.08
39.89
41.40
42.18
42.02
40.91
38.87
35.97
32.35
28.18
23.62
18.79
13.74
8.41
2.80
-3.01
-8.80
-14.21
-18.91
-22.77
-25.96
-29.01
-32.67
-37.65
-44.32
-52.50
-61.39
-69.67
-75.80
-78.31
-76.17
-68.97
-57.07
-41.59
-24.22
-6.96
8.38
20.49
28.90
33.89
36.29
37.01
36.67
35.60
33.90
31.82
29.83
28.64
28.84
30.57
33.30
36.05
37.79
37.83
36.15
33.18
29.56
25.72
21.78
17.58
12.94
7.80
2.28
-3.42
-9.07
-14.46
-19.48
-24.12
-28.46
-32.79
-37.48
-42.93
-49.28
-56.32
-63.26
-68.93
-71.89
-70.85
-65.09
-54.70
-40.59
-24.43
-8.09
6.71
18.88
28.03
34.31
38.10
39.81
39.82
38.56
36.63
34.71
33.42
33.14
33.84
35.15
36.50
37.39
37.55
36.91
35.57
33.67
31.22
28.15
24.33
19.76
14.54
8.94
3.24
-2.32
-7.61
-12.61
-17.32
-21.69
-25.67
-29.30
-32.76
-36.45
-40.89
-46.57
-53.71
-61.98
-70.38
-77.20
-80.46
-78.44
-70.38
-56.82
-39.53
-21.04
-3.75
10.68
21.63
29.32
34.38
37.39
38.71
38.54
37.14
35.08
33.11
32.01
32.26
33.82
36.16
38.44
39.88
40.04
38.90
36.84
34.22
31.36
28.27
24.84
20.86
16.19
10.83
4.89
-1.34
-7.47
-13.07
-17.89
-21.94
-25.40
-28.62
-31.95
-35.68
-40.08
-45.50
-52.25
-60.25
-68.72
-76.00
-79.85
-78.26
-70.28
-56.54
-39.12
-20.80
-4.05
9.70
20.20
27.96
33.67
37.75
40.20
40.94
40.13
38.36
36.51
35.42
35.46
36.47
37.87
38.99
39.44
39.20
38.48
37.47
36.24
34.62
32.37
29.32
25.44
20.83
15.64
9.99
3.96
-2.31
-8.59
-14.59
-20.05
-24.80
-28.86
-32.45
-35.89
-39.52
-43.66
-48.51
-54.14
-60.48
-67.09
-73.07
-77.04
-77.44
-73.02
-63.46
-49.56
-33.20
-16.56
-1.45
11.13
21.06
28.64
34.18
37.75
39.35
39.19
37.91
36.52
35.98
36.79
38.73
41.04
42.82
43.37
42.57
40.77
38.59
36.52
34.72
32.94
30.67
27.48
23.21
18.12
12.72
7.59
3.09
-0.71
-4.04
-7.29
-10.75
-14.64
-18.95
-23.48
-27.97
-32.18
-36.06
-39.89
-44.20
-49.57
-56.39
-64.42
-72.71
-79.67
-83.48
-82.64
-76.45
-65.29
-50.48
-33.96
-17.65
-3.02
9.12
18.65
25.91
31.31
35.16
37.60
38.75
38.85
38.26
37.40
36.61
36.08
35.82
35.75
35.83
36.04
36.38
36.67
36.59
35.73
33.82
30.76
26.73
22.06
17.13
12.27
7.71
3.61
-0.01
-3.33
-6.64
-10.27
-14.42
-19.02
-23.80
-28.42
-32.72
-36.85
-41.25
-46.52
-53.04
-60.75
-69.00
-76.54
-81.78
-83.17
-79.66
-71.07
-58.18
-42.58
-26.22
-10.88
2.30
12.91
21.12
27.36
31.94
35.04
36.66
36.93
36.16
34.87
33.70
33.12
33.36
34.32
35.71
37.16
38.26
38.80
38.62
37.64
35.77
32.93
29.05
24.21
18.75
13.15
8.05
3.84
0.52
-2.30
-5.21
-8.65
-12.71
-17.06
-21.28
-25.09
-28.63
-32.31
-36.72
-42.32
-49.24
-57.30
-65.95
-74.26
-80.91
-84.43
-83.40
-77.05
-65.59
-50.36
-33.43
-16.96
-2.63
8.87
17.71
24.51
29.92
34.20
37.25
38.84
38.95
37.95
36.57
35.61
35.55
36.42
37.81
39.19
40.12
40.52
40.44
39.88
38.63
36.32
32.68
27.83
22.35
17.02
12.48
8.91
5.97
3.04
-0.46
-4.79
-9.88
-15.37
-20.85
-25.98
-30.68
-35.01
-39.30
-43.94
-49.39
-55.97
-63.67
-71.94
-79.63
-85.11
-86.64
-82.91
-73.52
-59.20
-41.73
-23.34
-6.13
8.58
20.31
29.27
35.88
40.48
43.23
44.24
43.82
42.55
41.22
40.59
41.09
42.74
45.10
47.51
49.36
50.29
50.16
49.08
47.18
44.54
41.21
37.28
32.94
28.44
23.98
19.53
14.82
9.46
3.16
-3.91
-11.14
-17.71
-22.92
-26.55
-29.03
-31.24
-34.22
-38.76
-45.13
-53.14
-62.21
-71.46
-79.87
-86.15
-88.84
-86.59
-78.57
-64.95
-47.06
-27.11
-7.60
9.42
22.77
32.23
38.28
41.70
43.37
44.05
44.31
44.52
44.83
45.22
45.64
46.07
46.57
47.20
47.89
48.45
48.61
48.15
47.01
45.18
42.66
39.40
35.34
30.57
25.42
20.25
15.32
10.52
5.43
-0.32
-6.89
-13.93
-20.81
-26.89
-31.91
-36.11
-40.05
-44.46
-49.91
-56.68
-64.63
-73.03
-80.53
-85.28
-85.37
-79.43
-67.23
-49.88
-29.63
-9.06
9.62
25.09
36.92
45.29
50.49
52.75
52.32
49.67
45.67
41.56
38.58
37.63
38.91
41.91
45.58
48.84
50.80
51.09
49.76
47.16
43.69
39.68
35.28
30.62
25.79
20.89
16.04
11.24
6.36
1.20
-4.39
-10.36
-16.41
-22.12
-27.22
-31.70
-35.97
-40.67
-46.47
-53.74
-62.39
-71.60
-80.06
-86.09
-87.94
-84.37
-74.96
-60.32
-42.04
-22.32
-3.34
13.20
26.41
36.14
42.66
46.45
47.89
47.44
45.63
43.20
40.95
39.53
39.30
40.29
42.19
44.57
46.88
48.56
49.08
48.09
45.52
41.72
37.23
32.64
28.16
23.66
18.69
12.87
6.12
-1.19
-8.49
-15.23
-21.06
-25.91
-29.92
-33.42
-36.85
-40.84
-46.01
-52.79
-61.13
-70.23
-78.55
-84.06
-84.88
-79.73
-68.53
-52.37
-33.27
-13.68
4.18
18.81
29.65
36.94
41.40
43.85
44.87
44.79
43.78
42.12
40.25
38.82
38.47
39.55
41.92
44.93
47.62
49.11
48.91
47.01
43.88
40.13
36.15
32.08
27.75
22.91
17.45
11.43
5.11
-1.27
-7.49
-13.42
-18.94
-23.94
-28.41
-32.55
-36.88
-42.17
-49.06
-57.74
-67.55
-76.98
-83.89
-86.18
-82.50
-72.69
-57.92
-40.20
-21.83
-4.69
10.06
21.98
31.09
37.57
41.64
43.56
43.77
42.87
41.55
40.40
39.78
39.81
40.37
41.29
42.38
43.49
44.42
44.96
44.88
43.88
41.77
38.46
34.08
28.91
23.38
17.86
12.58
7.51
2.43
-2.91
-8.64
-14.71
-20.88
-26.80
-32.23
-37.08
-41.54
-46.10
-51.42
-57.99
-65.84
-74.14
-81.18
-84.78
-83.00
-74.83
-60.71
-42.31
-22.13
-2.69
14.03
26.96
35.95
41.55
44.56
45.77
45.74
44.81
43.24
41.38
39.74
38.88
39.11
40.36
42.13
43.76
44.70
44.70
43.89
42.51
40.67
38.29
35.10
30.85
25.45
19.00
11.76
4.14
-3.50
-10.74
-17.27
-22.91
-27.70
-31.90
-35.95
-40.31
-45.42
-51.58
-58.93
-67.24
-75.81
-83.33
-88.03
-88.08
-82.23
-70.33
-53.66
-34.47
-15.31
1.72
15.47
25.72
32.77
37.09
39.07
39.11
37.76
35.86
34.42
34.25
35.65
38.29
41.35
43.84
45.01
44.59
42.81
40.19
37.30
34.47
31.66
28.60
24.89
20.23
14.54
7.99
0.98
-5.87
-11.91
-16.69
-20.08
-22.42
-24.51
-27.33
-31.73
-38.21
-46.57
-56.02
-65.21
-72.46
-76.14
-74.99
-68.51
-57.13
-42.24
-25.72
-9.54
4.72
16.15
24.41
29.65
32.27
32.86
32.14
30.82
29.61
28.99
29.18
30.07
31.44
32.91
34.16
34.91
34.99
34.34
33.02
31.18
28.82
25.87
22.04
17.01
10.68
3.38
-4.19
-11.14
-16.76
-20.87
-23.85
-26.54
-29.82
-34.37
-40.41
-47.65
-55.30
-62.12
-66.58
-67.22
-63.01
-53.77
-40.28
-24.15
-7.29
8.52
21.95
32.23
39.01
42.28
42.34
39.84
35.74
31.28
27.67
25.71
25.65
27.02
28.93
30.43
30.92
30.38
29.29
28.18
27.30
26.33
24.49
21.02
15.54
8.30
0.13
-7.90
-14.85
-20.25
-24.06
-26.76
-29.13
-32.15
-36.68
-43.20
-51.58
-60.78
-69.08
-74.34
-74.72
-69.21
-58.06
-42.75
-25.50
-8.55
6.42
18.62
28.05
34.96
39.55
41.88
41.98
40.22
37.31
34.28
32.03
31.02
31.19
32.02
32.85
33.15
32.67
31.44
29.65
27.51
25.10
22.32
18.92
14.64
9.30
3.05
-3.67
-10.25
-16.08
-20.88
-24.79
-28.41
-32.65
-38.40
-46.04
-55.21
-64.70
-72.68
-77.18
-76.63
-70.38
-58.86
-43.50
-26.30
-9.42
5.35
16.95
25.11
30.23
33.08
34.42
34.74
34.27
33.23
31.91
30.85
30.56
31.25
32.66
34.14
34.94
34.60
33.12
30.90
28.56
26.47
24.62
22.57
19.63
15.16
8.95
1.42
-6.56
-13.81
-19.47
-23.33
-25.92
-28.39
-32.00
-37.61
-45.35
-54.44
-63.33
-70.10
-72.92
-70.57
-62.84
-50.55
-35.37
-19.26
-3.96
9.42
20.36
28.77
34.69
38.16
39.33
38.57
36.63
34.44
32.98
32.86
34.14
36.36
38.69
40.26
40.48
39.15
36.61
33.46
30.38
27.76
25.44
22.85
19.24
14.14
7.69
0.61
-6.21
-12.13
-17.05
-21.37
-25.64
-30.30
-35.58
-41.57
-48.42
-56.24
-64.79
-73.13
-79.56
-82.01
-78.85
-69.55
-55.14
-37.77
-20.04
-4.07
9.07
19.31
27.23
33.42
38.10
41.13
42.25
41.54
39.59
37.35
35.84
35.76
37.18
39.63
42.29
44.30
45.00
44.11
41.73
38.17
33.95
29.43
24.83
20.08
15.00
9.43
3.37
-2.90
-8.91
-14.23
-18.66
-22.40
-25.99
-30.10
-35.25
-41.59
-48.94
-56.85
-64.81
-72.12
-77.79
-80.50
-78.86
-71.93
-59.76
-43.64
-25.68
-8.18
7.15
19.53
29.00
35.89
40.48
42.84
43.04
41.44
38.77
36.00
34.12
33.77
35.04
37.44
40.06
41.79
41.75
39.65
35.88
31.30
26.90
23.26
20.35
17.55
14.06
9.25
2.98
-4.38
-12.11
-19.44
-25.77
-30.86
-34.91
-38.42
-42.01
-46.18
-51.13
-56.68
-62.34
-67.31
-70.58
-70.99
-67.41
-59.09
-46.11
-29.59
-11.47
6.02
21.05
32.73
41.08
46.68
50.12
51.69
51.47
49.57
46.53
43.24
40.80
39.96
40.90
43.04
45.28
46.46
45.78
42.98
38.41
32.81
26.91
21.33
16.39
12.11
8.32
4.77
1.16
-2.70
-6.84
-11.19
-15.54
-19.79
-24.00
-28.41
-33.29
-38.82
-44.92
-51.31
-57.62
-63.36
-67.86
-70.19
-69.17
-63.76
-53.60
-39.33
-22.65
-5.75
9.40
21.66
30.82
37.27
41.42
43.47
43.37
41.21
37.56
33.52
30.37
29.11
30.04
32.67
35.95
38.65
39.80
38.97
36.28
32.34
27.94
23.75
20.04
16.62
12.90
8.35
2.75
-3.54
-9.78
-15.27
-19.69
-23.36
-27.03
-31.50
-37.24
-44.27
-52.18
-60.32
-67.81
-73.52
-76.11
-74.21
-66.97
-54.49
-38.07
-19.91
-2.43
12.51
24.09
32.39
38.00
41.51
43.23
43.31
41.96
39.68
37.20
35.35
34.66
35.22
36.64
38.17
39.04
38.62
36.75
33.67
29.99
26.38
23.27
20.61
17.89
14.37
9.56
3.43
-3.50
-10.45
-16.64
-21.65
-25.54
-28.76
-32.00
-36.06
-41.58
-48.92
-57.89
-67.63
-76.61
-82.85
-84.42
-80.00
-69.40
-53.66
-34.87
-15.55
2.07
16.59
27.65
35.64
41.23
44.83
46.57
46.46
44.78
42.24
39.87
38.58
38.75
40.11
41.94
43.40
43.79
42.81
40.49
37.18
33.30
29.26
25.25
21.12
16.56
11.17
4.89
-1.91
-8.54
-14.34
-19.00
-22.82
-26.58
-31.15
-37.21
-44.92
-53.91
-63.42
-72.41
-79.71
-84.05
-84.31
-79.68
-69.91
-55.55
-38.04
-19.50
-2.18
12.11
22.63
29.65
34.12
37.01
38.73
39.25
38.40
36.46
34.27
32.95
33.30
35.26
37.88
39.83
40.09
38.47
35.55
32.22
29.10
26.24
23.20
19.46
14.71
9.09
3.01
-3.08
-8.81
-13.98
-18.51
-22.39
-25.74
-28.88
-32.38
-36.98
-43.28
-51.43
-60.88
-70.25
-77.63
-81.03
-78.92
-70.82
-57.37
-40.31
-21.95
-4.53
10.26
21.70
29.84
35.20
38.32
39.54
39.03
37.02
34.04
30.96
28.88
28.53
29.97
32.52
35.02
36.43
36.36
35.06
33.16
31.12
28.84
25.76
21.28
15.22
8.09
0.84
-5.55
-10.55
-14.28
-17.41
-20.77
-25.05
-30.66
-37.68
-45.86
-54.66
-63.18
-70.09
-73.89
-73.33
-67.75
-57.48
-43.66
-27.96
-12.15
2.37
14.69
24.40
31.34
35.54
37.17
36.65
34.64
31.96
29.40
27.62
27.01
27.66
29.34
31.52
33.53
34.70
34.65
33.30
30.85
27.59
23.65
18.97
13.38
6.91
-0.01
-6.68
-12.44
-17.05
-20.89
-24.79
-29.57
-35.80
-43.49
-52.15
-60.83
-68.22
-72.87
-73.33
-68.63
-58.62
-44.21
-27.19
-9.77
6.05
18.99
28.62
35.18
39.26
41.46
42.24
41.90
40.62
38.61
36.17
33.78
31.90
30.89
30.81
31.38
32.03
32.14
31.24
29.12
25.88
21.80
17.15
12.09
6.66
0.82
-5.34
-11.57
-17.46
-22.77
-27.53
-32.32
-37.95
-45.13
-53.81
-62.96
-70.67
-74.76
-73.57
-66.58
-54.58
-39.35
-23.00
-7.35
6.46
17.91
26.92
33.53
37.80
39.85
40.05
38.97
37.40
36.10
35.50
35.66
36.32
37.03
37.38
37.18
36.46
35.32
33.81
31.79
28.89
24.77
19.24
12.54
5.28
-1.77
-8.06
-13.48
-18.36
-23.23
-28.52
-34.45
-40.99
-48.03
-55.34
-62.43
-68.29
-71.49
-70.47
-64.27
-53.04
-38.09
-21.51
-5.45
8.61
19.96
28.55
34.55
38.10
39.38
38.76
36.99
35.02
33.82
33.87
35.03
36.61
37.72
37.58
35.96
33.23
30.15
27.47
25.53
24.06
22.30
19.41
14.86
8.75
1.72
-5.36
-11.81
-17.43
-22.43
-27.41
-33.00
-39.67
-47.51
-56.10
-64.40
-70.88
-73.88
-72.03
-64.86
-52.92
-37.69
-21.15
-5.17
8.89
20.40
29.23
35.54
39.56
41.49
41.56
40.20
38.10
36.10
34.94
34.92
35.89
37.27
38.37
38.71
38.15
36.86
35.02
32.63
29.56
25.49
20.27
13.94
6.87
-0.36
-7.13
-12.93
-17.59
-21.38
-24.96
-29.17
-34.78
-42.03
-50.56
-59.38
-67.14
-72.40
-73.98
-71.18
-63.89
-52.53
-38.01
-21.60
-4.82
10.82
24.07
34.09
40.63
43.89
44.43
42.97
40.36
37.45
35.04
33.73
33.75
34.87
36.38
37.43
37.41
36.16
34.11
31.92
29.99
28.19
25.85
22.15
16.50
8.95
0.26
-8.33
-15.62
-20.96
-24.51
-27.21
-30.36
-35.08
-41.87
-50.31
-59.26
-67.10
-72.17
-73.20
-69.49
-61.05
-48.47
-32.95
-16.04
0.63
15.59
27.83
36.83
42.55
45.28
45.43
43.54
40.19
36.15
32.23
29.21
27.58
27.38
28.17
29.24
29.94
29.92
29.13
27.64
25.37
22.08
17.42
11.32
4.21
-3.04
-9.39
-14.12
-17.25
-19.49
-22.02
-26.00
-32.13
-40.32
-49.81
-59.37
-67.43
-72.37
-72.73
-67.60
-56.91
-41.64
-23.65
-5.36
11.06
24.25
33.92
40.59
45.10
47.88
48.83
47.71
44.52
40.03
35.63
32.73
32.11
33.44
35.51
36.90
36.65
34.68
31.63
28.27
24.97
21.55
17.50
12.41
6.29
-0.35
-6.85
-12.64
-17.62
-22.09
-26.55
-31.53
-37.36
-44.13
-51.74
-59.86
-67.80
-74.44
-78.38
-78.07
-72.45
-61.40
-45.90
-27.89
-9.69
6.67
19.99
30.03
37.19
42.08
45.20
46.83
47.11
46.29
44.81
43.24
42.07
41.60
41.78
42.33
42.80
42.73
41.69
39.42
35.94
31.58
26.85
22.21
17.89
13.70
9.19
3.93
-2.21
-8.95
-15.70
-21.85
-27.03
-31.15
-34.54
-37.66
-41.11
-45.50
-51.23
-58.37
-66.52
-74.59
-80.98
-83.86
-81.63
-73.47
-59.74
-41.91
-22.29
-3.38
12.87
25.50
34.60
40.91
45.28
48.13
49.53
49.35
47.72
45.19
42.64
40.90
40.33
40.74
41.52
42.04
41.87
40.97
39.46
37.46
34.92
31.68
27.60
22.71
17.20
11.38
5.53
-0.15
-5.55
-10.63
-15.38
-19.87
-24.27
-28.82
-33.73
-39.03
-44.60
-50.38
-56.42
-62.88
-69.79
-76.63
-82.18
-84.69
-82.47
-74.59
-61.35
-44.18
-25.20
-6.54
10.14
23.88
34.29
41.40
45.49
47.03
46.70
45.25
43.43
41.75
40.55
39.91
39.83
40.28
41.14
42.23
43.26
43.83
43.47
41.80
38.67
34.17
28.75
23.01
17.52
12.63
8.37
4.46
0.47
-3.95
-8.98
-14.51
-20.19
-25.64
-30.51
-34.63
-38.08
-41.29
-44.91
-49.69
-56.16
-64.31
-73.42
-82.01
-88.17
-89.92
-85.85
-75.52
-59.61
-39.89
-18.73
1.38
18.45
31.28
39.56
43.76
44.83
43.80
41.62
39.03
36.60
34.80
33.98
34.32
35.76
37.90
40.08
41.68
42.32
41.96
40.88
39.34
37.36
34.77
31.28
26.75
21.42
15.76
10.31
5.37
0.93
-3.33
-7.74
-12.59
-17.86
-23.27
-28.44
-33.05
-37.03
-40.77
-45.02
-50.59
-57.97
-66.89
-76.19
-84.05
-88.42
-87.58
-80.66
-67.96
-50.89
-31.64
-12.68
3.95
17.06
26.47
32.69
36.39
38.04
37.81
35.88
32.77
29.47
27.04
26.20
26.88
28.35
29.70
30.44
30.67
30.91
31.54
32.46
33.02
32.40
30.09
26.06
20.86
15.21
9.74
4.72
0.06
-4.49
-9.11
-13.79
-18.31
-22.38
-25.85
-28.83
-31.77
-35.27
-40.03
-46.46
-54.46
-63.19
-71.12
-76.21
-76.45
-70.53
-58.37
-41.32
-21.81
-2.54
14.32
27.66
37.37
43.87
47.63
48.92
47.89
44.98
40.97
37.06
34.41
33.74
35.10
37.86
41.09
43.87
45.53
45.73
44.42
41.71
37.84
33.07
27.76
22.24
16.79
11.62
6.79
2.23
-2.18
-6.63
-11.21
-15.94
-20.72
-25.45
-30.10
-34.87
-40.19
-46.59
-54.39
-63.27
-72.11
-79.01
-81.85
-78.95
-69.76
-55.13
-37.06
-18.01
-0.19
14.99
26.97
35.76
41.63
44.88
45.76
44.70
42.26
39.27
36.59
34.95
34.71
35.80
37.82
40.18
42.32
43.85
44.52
44.20
42.83
40.42
37.07
32.92
28.13
22.84
17.10
10.95
4.51
-1.98
-8.17
-13.72
-18.52
-22.68
-26.50
-30.37
-34.64
-39.59
-45.47
-52.45
-60.38
-68.63
-75.92
-80.50
-80.60
-75.11
-63.95
-48.24
-29.97
-11.36
5.68
19.95
30.98
38.83
43.75
46.04
45.99
44.05
40.85
37.28
34.36
32.87
33.18
35.08
37.87
40.66
42.62
43.34
42.80
41.31
39.19
36.65
33.59
29.80
25.13
19.63
13.73
7.91
2.58
-2.24
-6.90
-11.81
-17.23
-23.00
-28.67
-33.74
-38.07
-42.12
-46.80
-53.02
-61.08
-70.22
-78.64
-83.99
-84.18
-78.14
-66.14
-49.70
-31.10
-12.68
3.76
17.20
27.38
34.61
39.29
41.85
42.57
41.68
39.49
36.57
33.75
31.84
31.41
32.45
34.39
36.35
37.56
37.70
36.93
35.63
34.06
32.15
29.51
25.79
20.88
15.07
8.85
2.80
-2.78
-7.81
-12.44
-16.81
-21.03
-25.25
-29.71
-34.87
-41.18
-48.82
-57.35
-65.58
-71.71
-73.80
-70.43
-61.23
-47.08
-29.88
-11.96
4.50
18.14
28.38
35.34
39.37
40.93
40.39
38.20
35.03
31.76
29.39
28.63
29.77
32.45
35.90
39.09
41.15
41.52
40.08
37.11
33.13
28.73
24.40
20.31
16.36
12.29
7.84
2.90
-2.39
-7.77
-13.04
-18.14
-23.15
-28.28
-33.65
-39.37
-45.59
-52.40
-59.75
-67.12
-73.42
-77.13
-76.70
-71.16
-60.56
-46.02
-29.35
-12.53
2.87
15.99
26.53
34.59
40.28
43.65
44.71
43.66
41.02
37.70
34.82
33.37
33.81
35.93
38.83
41.29
42.36
41.62
39.39
36.41
33.39
30.62
27.79
24.27
19.50
13.35
6.27
-0.92
-7.48
-13.03
-17.73
-21.95
-26.04
-30.10
-34.04
-37.81
-41.68
-46.24
-52.10
-59.36
-67.28
-74.23
-78.21
-77.53
-71.42
-60.23
-45.24
-28.19
-10.84
5.33
19.25
30.20
37.89
42.41
44.27
44.23
43.14
41.71
40.40
39.45
38.97
38.99
39.40
40.10
40.92
41.68
42.14
42.04
41.06
38.90
35.44
30.81
25.50
20.12
15.12
10.65
6.49
2.21
-2.53
-7.78
-13.32
-18.66
-23.45
-27.58
-31.28
-35.04
-39.47
-45.10
-52.26
-60.86
-70.28
-79.23
-85.88
-88.24
-84.81
-75.12
-60.02
-41.51
-22.11
-4.05
11.21
23.22
32.21
38.64
42.92
45.26
45.91
45.27
43.96
42.64
41.81
41.68
42.12
42.92
43.82
44.69
45.35
45.59
45.13
43.70
41.17
37.56
33.07
27.97
22.54
17.01
11.58
6.38
1.50
-3.12
-7.71
-12.45
-17.44
-22.52
-27.38
-31.72
-35.55
-39.29
-43.65
-49.40
-56.93
-65.95
-75.34
-83.33
-87.81
-86.90
-79.64
-66.21
-48.12
-27.82
-7.98
9.17
22.45
31.77
37.77
41.31
43.05
43.29
42.18
40.01
37.39
35.13
34.06
34.62
36.69
39.66
42.70
45.05
46.22
46.12
44.87
42.70
39.76
36.11
31.80
26.88
21.55
16.10
10.81
5.83
1.05
-3.82
-9.09
-14.78
-20.53
-25.69
-29.68
-32.41
-34.44
-36.84
-40.84
-47.26
-56.08
-66.39
-76.54
-84.52
-88.43
-86.95
-79.62
-66.97
-50.44
-32.01
-13.75
2.72
16.45
27.17
35.01
40.26
43.05
43.51
41.85
38.63
34.79
31.42
29.45
29.34
30.94
33.70
36.88
39.78
41.84
42.66
41.93
39.50
35.51
30.39
24.85
19.54
14.82
10.68
6.74
2.53
-2.28
-7.63
-13.22
-18.58
-23.43
-27.78
-32.07
-36.89
-42.72
-49.64
-57.15
-64.25
-69.67
-72.15
-70.71
-64.84
-54.58
-40.63
-24.27
-7.19
8.79
22.29
32.53
39.43
43.37
44.89
44.49
42.64
39.84
36.71
33.89
32.01
31.40
32.05
33.63
35.54
37.06
37.54
36.56
34.04
30.32
26.01
21.71
17.74
14.01
10.10
5.57
0.28
-5.46
-10.99
-15.67
-19.18
-21.82
-24.26
-27.46
-32.18
-38.73
-46.96
-56.22
-65.43
-73.19
-77.99
-78.42
-73.58
-63.38
-48.66
-31.08
-12.71
4.49
18.99
29.96
37.27
41.23
42.48
41.80
39.98
37.74
35.70
34.38
34.11
34.96
36.74
38.95
40.98
42.24
42.36
41.25
39.07
36.11
32.65
28.88
24.86
20.58
15.97
10.96
5.49
-0.41
-6.62
-12.86
-18.82
-24.11
-28.50
-31.97
-34.81
-37.64
-41.35
-46.82
-54.55
-64.23
-74.63
-83.66
-88.97
-88.71
-82.09
-69.66
-53.08
-34.56
-16.27
0.13
13.72
24.23
31.92
37.28
40.78
42.79
43.53
43.13
41.84
40.06
38.38
37.37
37.37
38.38
40.11
42.04
43.62
44.36
43.92
42.07
38.80
34.31
29.01
23.40
17.99
13.02
8.51
4.24
-0.04
-4.53
-9.24
-14.16
-19.22
-24.45
-29.92
-35.68
-41.77
-48.14
-54.77
-61.49
-67.89
-73.21
-76.28
-75.80
-70.72
-60.73
-46.54
-29.71
-12.32
3.72
17.11
27.29
34.38
38.77
40.86
41.02
39.66
37.38
34.96
33.25
32.91
34.15
36.66
39.70
42.35
43.89
43.96
42.57
40.10
36.97
33.58
30.12
26.49
22.49
17.90
12.61
6.77
0.67
-5.38
-11.11
-16.43
-21.35
-26.00
-30.64
-35.68
-41.60
-48.65
-56.61
-64.55
-70.88
-73.75
-71.64
-63.92
-51.14
-34.88
-17.30
-0.50
13.96
25.28
33.36
38.56
41.38
42.33
41.83
40.39
38.53
36.90
36.11
36.46
37.92
40.07
42.28
43.89
44.40
43.44
40.95
37.05
32.13
26.61
20.92
15.31
9.86
4.52
-0.77
-6.06
-11.29
-16.41
-21.33
-25.95
-30.11
-33.77
-37.08
-40.54
-44.92
-50.87
-58.58
-67.24
-75.18
-80.14
-80.11
-74.08
-62.35
-46.45
-28.57
-10.92
4.86
17.81
27.59
34.23
38.03
39.37
38.80
36.92
34.36
31.71
29.47
28.06
27.77
28.68
30.55
32.82
34.72
35.56
34.98
32.99
29.96
26.40
22.73
19.20
15.81
12.36
8.54
4.02
-1.42
-7.74
-14.67
-21.79
-28.55
-34.58
-39.77
-44.30
-48.67
-53.52
-59.39
-66.47
-74.32
-81.84
-87.44
-89.56
-87.07
-79.69
-68.09
-53.63
-38.01
-22.78
-9.03
2.67
12.17
19.53
24.78
27.94
29.13
28.68
27.32
26.14
26.20
28.16
31.92
36.63
41.10
44.24
45.60
45.43
44.30
42.73
40.87
38.52
35.38
31.37
26.79
22.03
17.33
12.61
7.55
1.89
-4.28
-10.48
-16.13
-20.96
-25.21
-29.62
-35.06
-42.06
-50.37
-58.86
-65.76
-69.10
-67.29
-59.63
-46.70
-30.15
-12.36
4.24
17.90
27.87
34.42
38.36
40.61
41.77
42.01
41.31
39.76
37.81
36.17
35.57
36.41
38.59
41.51
44.33
46.31
46.97
46.23
44.25
41.29
37.54
33.09
28.01
22.45
16.70
11.18
6.34
2.42
-0.67
-3.40
-6.47
-10.54
-15.89
-22.26
-29.13
-35.95
-42.60
-49.40
-56.81
-64.76
-72.26
-77.38
-77.96
-72.52
-61.00
-44.87
-26.65
-8.91
6.46
18.65
27.76
34.35
38.93
41.72
42.70
41.79
39.16
35.30
31.04
27.31
24.80
23.69
23.63
23.88
23.72
22.75
21.01
18.77
16.28
13.46
9.94
5.21
-0.94
-8.22
-15.90
-23.11
-29.24
-34.15
-38.18
-41.87
-45.67
-49.72
-54.07
-58.66
-63.44
-68.22
-72.47
-75.26
-75.43
-71.99
-64.58
-53.63
-40.16
-25.45
-10.66
3.31
15.75
26.05
33.75
38.55
40.51
40.09
38.07
35.44
33.24
32.36
33.30
36.00
39.83
43.70
46.53
47.58
46.78
44.72
42.26
40.09
38.40
36.79
34.59
31.25
26.66
21.20
15.59
10.54
6.44
3.23
0.36
-3.02
-7.77
-14.50
-23.16
-32.97
-42.41
-49.56
-52.58
-50.31
-42.64
-30.62
-16.16
-1.46
11.58
21.72
28.47
31.96
32.66
31.18
28.15
24.20
19.99
16.13
13.04
10.86
9.40
8.33
7.37
6.45
5.76
5.48
5.60
5.79
5.40
3.76
0.34
-4.93
-11.58
-18.75
-25.35
-30.48
-33.75
-35.52
-36.77
-38.78
-42.64
-48.65
-56.23
-64.00
-70.07
-72.66
-70.48
-63.05
-50.85
-35.22
-17.98
-1.02
14.12
26.53
35.95
42.48
46.46
48.18
47.90
46.01
43.01
39.59
36.44
34.10
32.78
32.39
32.57
32.84
32.78
32.01
30.28
27.43
23.38
18.16
11.97
5.23
-1.56
-7.88
-13.45
-18.34
-22.90
-27.71
-33.21
-39.58
-46.55
-53.36
-58.85
-61.63
-60.43
-54.42
-43.66
-29.15
-12.69
3.59
17.83
28.85
36.31
40.55
42.27
42.10
40.53
37.89
34.48
30.76
27.29
24.64
23.10
22.60
22.65
22.70
22.24
21.17
19.61
17.81
15.81
13.29
9.73
4.71
-1.78
-9.19
-16.59
-23.14
-28.45
-32.80
-37.03
-42.01
-48.22
-55.30
-61.97
-66.45
-67.03
-62.70
-53.51
-40.56
-25.56
-10.38
3.52
15.24
24.43
31.11
35.45
37.60
37.75
36.27
33.75
30.96
28.67
27.31
26.90
27.03
27.21
27.16
27.02
27.14
27.75
28.61
28.91
27.75
24.47
19.10
12.34
5.20
-1.48
-7.37
-12.72
-18.05
-23.89
-30.48
-37.63
-44.83
-51.34
-56.20
-58.39
-56.97
-51.33
-41.46
-28.10
-12.67
3.17
17.80
30.07
39.30
45.17
47.66
46.93
43.49
38.21
32.32
27.01
23.20
21.16
20.64
21.03
21.78
22.60
23.39
24.07
24.37
23.83
21.93
18.44
13.50
7.69
1.89
-3.16
-7.05
-9.91
-12.30
-15.05
-19.02
-24.74
-32.21
-40.78
-49.08
-55.30
-57.60
-54.74
-46.49
-33.80
-18.45
-2.55
12.03
23.92
32.36
37.12
38.40
36.75
33.09
28.50
24.04
20.48
18.15
16.94
16.47
16.35
16.32
16.24
16.08
15.83
15.48
14.98
14.13
12.65
10.19
6.50
1.54
-4.36
-10.68
-16.77
-22.17
-26.77
-30.86
-35.02
-39.76
-45.23
-50.90
-55.59
-57.79
-56.12
-49.84
-39.07
-24.96
-9.28
5.98
19.18
29.22
35.67
38.58
38.33
35.56
31.08
25.86
20.83
16.69
13.73
11.85
10.75
10.21
10.16
10.63
11.55
12.53
12.85
11.85
9.19
5.12
0.36
-4.29
-8.34
-11.78
-15.11
-19.00
-23.93
-30.01
-36.96
-44.26
-51.27
-57.22
-61.20
-62.16
-59.12
-51.50
-39.46
-24.05
-7.09
9.29
23.13
33.09
38.71
40.39
39.17
36.36
33.28
30.85
29.49
29.14
29.53
30.35
31.49
32.84
34.20
35.18
35.21
33.75
30.56
25.76
19.78
13.17
6.40
-0.23
-6.56
-12.53
-18.10
-23.32
-28.39
-33.61
-39.32
-45.65
-52.27
-58.22
-62.10
-62.43
-58.14
-49.13
-36.36
-21.50
-6.46
7.25
18.76
27.70
33.95
37.40
37.96
35.81
31.62
26.44
21.52
17.76
15.57
14.91
15.43
16.77
18.62
20.64
22.35
23.14
22.43
19.88
15.56
9.95
3.71
-2.46
-8.18
-13.43
-18.43
-23.64
-29.46
-36.06
-43.28
-50.53
-56.81
-60.84
-61.33
-57.31
-48.38
-35.13
-19.00
-2.06
13.49
25.89
34.13
38.05
38.15
35.31
30.59
25.08
19.80
15.61
13.07
12.38
13.29
15.24
17.42
19.05
19.49
18.43
15.94
12.41
8.36
4.27
0.41
-3.24
-6.92
-10.92
-15.52
-20.99
-27.42
-34.76
-42.56
-49.95
-55.64
-58.23
-56.66
-50.50
-40.26
-27.23
-13.09
0.49
12.17
21.26
27.57
31.39
33.18
33.36
32.29
30.17
27.26
23.95
20.78
18.26
16.73
16.28
16.72
17.67
18.61
19.06
18.53
16.64
13.27
8.53
2.76
-3.57
-10.04
-16.31
-22.16
-27.51
-32.48
-37.43
-42.83
-49.02
-55.83
-62.23
-66.45
-66.54
-61.11
-50.00
-34.44
-16.67
0.80
15.87
27.32
34.79
38.59
39.42
38.13
35.57
32.46
29.36
26.70
24.76
23.72
23.66
24.45
25.75
27.01
27.69
27.37
25.84
23.01
18.86
13.44
6.95
-0.10
-7.00
-13.05
-17.94
-21.93
-25.77
-30.34
-36.25
-43.56
-51.79
-60.16
-67.63
-73.08
-75.30
-73.21
-66.27
-54.75
-39.85
-23.39
-7.24
7.15
19.00
28.02
34.20
37.64
38.52
37.32
34.78
31.85
29.39
27.94
27.64
28.31
29.58
31.05
32.31
32.97
32.71
31.38
29.01
25.69
21.53
16.54
10.73
4.18
-2.78
-9.62
-15.80
-20.96
-25.18
-28.98
-33.13
-38.33
-44.78
-52.03
-58.90
-63.73
-64.85
-61.08
-52.11
-38.67
-22.34
-5.14
11.04
24.82
35.63
43.49
48.75
51.77
52.68
51.47
48.37
44.15
40.08
37.68
37.94
40.82
45.27
49.58
52.20
52.40
50.47
47.25
43.60
39.85
35.70
30.66
24.42
17.17
9.54
2.27
-4.19
-9.80
-14.82
-19.62
-24.42
-29.33
-34.43
-39.84
-45.70
-51.92
-57.84
-62.15
-63.17
-59.47
-50.52
-37.01
-20.69
-3.76
11.85
25.00
35.32
42.87
47.73
49.88
49.36
46.61
42.59
38.68
36.19
35.89
37.69
40.80
44.01
46.17
46.61
45.25
42.52
39.06
35.39
31.66
27.74
23.31
18.21
12.48
6.45
0.51
-5.08
-10.22
-14.90
-19.16
-23.04
-26.69
-30.46
-34.86
-40.36
-46.98
-54.05
-60.25
-63.93
-63.63
-58.53
-48.74
-35.29
-19.82
-4.13
10.21
22.11
31.03
36.83
39.67
39.87
37.94
34.68
31.12
28.33
27.11
27.78
29.96
32.85
35.44
36.88
36.67
34.77
31.49
27.38
23.05
18.92
15.03
11.13
6.76
1.64
-4.06
-9.76
-14.72
-18.50
-21.27
-23.85
-27.31
-32.46
-39.42
-47.57
-55.68
-62.24
-65.81
-65.25
-59.92
-49.87
-35.89
-19.50
-2.60
12.93
25.69
35.07
41.14
44.35
45.20
44.02
41.07
36.77
31.85
27.33
24.21
23.04
23.71
25.55
27.62
29.09
29.54
28.93
27.40
25.10
22.01
18.04
13.16
7.57
1.65
-4.10
-9.27
-13.69
-17.54
-21.40
-25.99
-31.88
-39.18
-47.33
-55.08
-60.79
-62.85
-60.17
-52.51
-40.53
-25.73
-10.04
4.65
16.93
26.02
31.89
34.93
35.63
34.46
31.82
28.24
24.53
21.62
20.30
20.86
22.93
25.55
27.67
28.55
28.03
26.54
24.68
22.87
20.99
18.52
14.75
9.33
2.53
-4.87
-11.78
-17.36
-21.38
-24.21
-26.64
-29.49
-33.31
-38.37
-44.61
-51.60
-58.55
-64.24
-67.20
-66.06
-60.04
-49.30
-35.05
-19.19
-3.78
9.53
19.82
26.94
31.26
33.29
33.50
32.25
29.92
27.08
24.51
22.98
22.96
24.37
26.62
28.89
30.48
31.07
30.72
29.63
27.97
25.67
22.51
18.27
12.89
6.57
-0.17
-6.71
-12.52
-17.31
-21.15
-24.42
-27.74
-31.74
-36.80
-42.98
-49.93
-56.92
-62.81
-66.31
-66.24
-61.84
-53.13
-40.93
-26.71
-12.10
1.44
12.96
22.00
28.48
32.53
34.38
34.38
33.03
30.93
28.74
27.09
26.40
26.81
28.18
30.05
31.81
32.90
32.86
31.52
28.96
25.46
21.42
17.14
12.82
8.44
3.85
-1.11
-6.37
-11.60
-16.35
-20.27
-23.37
-26.14
-29.41
-33.99
-40.30
-48.14
-56.77
-65.03
-71.52
-74.94
-74.10
-68.32
-57.61
-42.88
-25.83
-8.63
6.61
18.48
26.47
30.95
32.78
32.82
31.66
29.65
27.14
24.66
22.97
22.77
24.33
27.23
30.39
32.57
32.82
31.02
27.82
24.25
21.18
18.83
16.74
14.11
10.28
5.05
-1.18
-7.63
-13.47
-18.21
-21.74
-24.40
-26.85
-29.79
-33.82
-39.27
-46.05
-53.64
-61.07
-67.06
-70.24
-69.45
-64.00
-53.94
-40.15
-24.27
-8.27
6.02
17.38
25.41
30.43
33.09
34.01
33.64
32.27
30.26
28.12
26.43
25.68
26.01
27.20
28.79
30.29
31.33
31.74
31.47
30.41
28.39
25.30
21.20
16.39
11.34
6.47
1.95
-2.30
-6.57
-11.08
-15.85
-20.64
-25.09
-29.02
-32.50
-35.85
-39.49
-43.76
-48.88
-54.96
-61.89
-69.20
-75.85
-80.31
-80.87
-76.28
-66.25
-51.68
-34.46
-16.84
-0.73
12.65
22.84
29.89
34.01
35.52
34.86
32.73
29.98
27.51
25.96
25.62
26.38
27.85
29.51
30.83
31.45
31.15
29.85
27.63
24.57
20.78
16.32
11.27
5.80
0.13
-5.44
-10.64
-15.29
-19.36
-22.98
-26.45
-30.19
-34.77
-40.76
-48.49
-57.76
-67.64
-76.48
-82.36
-83.61
-79.28
-69.53
-55.52
-39.12
-22.37
-6.99
5.93
16.08
23.61
28.90
32.25
33.80
33.65
32.13
29.90
27.92
27.06
27.76
29.83
32.58
35.09
36.58
36.63
35.18
32.36
28.48
23.90
19.05
14.27
9.72
5.34
0.87
-3.90
-8.98
-14.09
-18.86
-23.10
-27.00
-31.10
-36.04
-42.22
-49.51
-57.20
-64.09
-68.75
-69.89
-66.64
-58.78
-46.80
-31.94
-15.89
-0.43
12.94
23.36
30.65
35.22
37.71
38.70
38.60
37.74
36.45
35.23
34.59
34.95
36.30
38.19
39.84
40.56
39.99
38.27
35.99
33.74
31.85
30.21
28.26
25.24
20.59
14.28
6.80
-0.93
-7.89
-13.49
-17.65
-20.80
-23.68
-27.01
-31.29
-36.89
-43.88
-52.10
-60.93
-69.08
-74.82
-76.30
-72.26
-62.46
-47.97
-30.77
-13.10
3.09
16.61
26.99
34.35
39.08
41.62
42.39
41.81
40.39
38.71
37.40
36.95
37.58
39.14
41.15
42.99
44.09
44.09
42.90
40.66
37.61
34.03
30.18
26.21
22.14
17.81
12.99
7.49
1.42
-4.89
-10.95
-16.34
-20.92
-24.83
-28.42
-32.15
-36.51
-41.87
-48.45
-56.02
-63.69
-69.89
-72.67
-70.31
-61.97
-48.17
-30.66
-11.93
5.61
20.29
31.42
39.07
43.75
45.98
46.23
44.91
42.51
39.72
37.28
35.91
36.04
37.72
40.57
43.89
46.75
48.31
48.04
45.86
42.16
37.60
32.84
28.23
23.81
19.42
14.81
9.87
4.61
-0.84
-6.36
-11.82
-17.03
-21.78
-25.83
-29.18
-32.14
-35.43
-39.93
-46.34
-54.72
-64.19
-72.97
-78.72
-79.32
-73.44
-61.23
-44.21
-24.80
-5.57
11.52
25.46
36.02
43.42
47.91
49.67
48.91
46.19
42.48
38.97
36.74
36.40
37.94
40.83
44.25
47.40
49.76
51.07
51.26
50.39
48.43
45.25
40.64
34.44
26.73
17.98
8.75
-0.24
-8.44
-15.53
-21.41
-26.11
-29.71
-32.43
-34.69
-37.15
-40.64
-45.84
-52.92
-61.24
-69.30
-74.99
-76.23
-71.56
-60.78
-44.98
-26.36
-7.43
9.57
23.29
33.28
39.72
43.09
43.87
42.55
39.79
36.38
33.25
31.18
30.54
31.28
33.01
35.18
37.27
38.83
39.43
38.73
36.68
33.55
29.85
26.15
22.74
19.46
15.85
11.37
5.79
-0.61
-7.15
-13.16
-18.19
-22.33
-26.01
-29.79
-34.18
-39.47
-45.73
-52.91
-60.60
-68.02
-73.89
-76.64
-74.73
-67.25
-54.43
-37.60
-18.96
-0.91
14.68
26.78
35.23
40.47
43.11
43.68
42.57
40.16
36.98
33.88
31.79
31.47
33.15
36.27
39.74
42.31
43.14
42.03
39.36
35.86
32.09
28.37
24.70
20.98
17.20
13.31
9.31
5.01
0.24
-5.10
-10.79
-16.38
-21.40
-25.57
-29.06
-32.37
-36.16
-40.98
-47.13
-54.54
-62.64
-70.42
-76.38
-78.90
-76.56
-68.74
-55.93
-39.60
-21.86
-4.76
10.19
22.26
31.37
37.78
41.83
43.74
43.77
42.30
39.97
37.53
35.76
35.18
35.94
37.74
39.94
41.84
42.88
42.86
41.84
40.04
37.57
34.37
30.37
25.60
20.43
15.45
11.24
7.95
5.20
2.22
-1.78
-7.09
-13.32
-19.54
-24.84
-28.71
-31.34
-33.48
-36.12
-40.05
-45.68
-52.97
-61.43
-70.17
-77.82
-82.76
-83.39
-78.55
-67.99
-52.60
-34.30
-15.56
1.34
14.92
24.85
31.71
36.48
39.87
42.07
42.80
41.78
39.27
36.10
33.50
32.52
33.45
35.82
38.64
40.94
42.18
42.40
41.90
40.92
39.40
37.02
33.44
28.63
22.89
16.88
11.28
6.54
2.69
-0.67
-4.12
-8.18
-13.06
-18.56
-24.19
-29.38
-33.74
-37.29
-40.38
-43.74
-48.07
-53.84
-61.07
-69.12
-76.72
-82.13
-83.50
-79.33
-69.07
-53.34
-34.07
-13.94
4.36
18.88
28.86
34.80
37.78
38.87
38.69
37.46
35.36
32.86
30.77
29.94
30.74
32.88
35.55
37.89
39.34
39.89
39.82
39.37
38.56
37.14
34.81
31.43
27.14
22.27
17.18
12.13
7.29
2.76
-1.52
-5.67
-9.85
-14.23
-18.83
-23.44
-27.75
-31.43
-34.43
-37.01
-39.67
-43.00
-47.55
-53.55
-60.88
-68.80
-75.97
-80.54
-80.67
-75.10
-63.74
-47.86
-29.73
-11.86
3.74
16.12
25.26
31.64
35.82
38.19
38.97
38.44
37.00
35.17
33.56
32.67
32.81
34.08
36.25
38.83
41.23
42.95
43.67
43.30
41.77
39.03
34.98
29.67
23.39
16.83
10.75
5.68
1.61
-1.96
-5.80
-10.37
-15.69
-21.30
-26.56
-31.08
-34.92
-38.51
-42.48
-47.34
-53.27
-59.97
-66.62
-71.91
-74.36
-72.65
-66.08
-54.88
-40.20
-23.84
-7.70
6.71
18.56
27.56
33.76
37.24
38.05
36.45
33.02
28.80
25.04
22.82
22.58
24.12
26.67
29.30
31.38
32.64
33.08
32.85
31.90
30.07
27.17
23.28
18.64
13.75
8.97
4.40
-0.12
-4.91
-10.22
-15.98
-21.83
-27.21
-31.64
-34.90
-37.14
-38.79
-40.52
-43.00
-46.79
-52.14
-58.75
-65.61
-71.09
-73.22
-70.40
-62.07
-48.91
-32.76
-15.81
0.10
13.95
25.41
34.44
40.99
44.89
46.11
45.04
42.51
39.63
37.37
36.27
36.37
37.42
39.02
40.75
42.20
43.03
43.01
42.03
40.18
37.59
34.33
30.42
25.84
20.65
15.15
9.75
4.80
0.44
-3.45
-7.17
-11.08
-15.40
-20.18
-25.25
-30.32
-35.07
-39.31
-43.24
-47.43
-52.71
-59.80
-68.77
-78.72
-87.76
-93.56
-94.04
-88.23
-76.55
-60.60
-42.65
-24.82
-8.64
5.13
16.39
25.30
32.03
36.73
39.46
40.43
40.02
38.88
37.75
37.43
38.45
40.86
44.19
47.49
49.79
50.54
49.76
48.04
46.11
44.41
42.80
40.70
37.42
32.59
26.39
19.57
13.09
7.73
3.82
1.10
-1.11
-3.71
-7.38
-12.40
-18.40
-24.59
-30.07
-34.33
-37.49
-40.24
-43.55
-48.27
-54.80
-63.03
-72.29
-81.45
-89.06
-93.49
-93.24
-87.33
-75.65
-59.14
-39.60
-19.32
-0.36
15.71
28.06
36.54
41.46
43.48
43.44
42.29
40.94
40.15
40.35
41.57
43.54
45.76
47.80
49.32
50.15
50.29
49.83
48.93
47.78
46.38
44.57
42.04
38.46
33.69
27.91
21.59
15.45
10.10
5.85
2.54
-0.35
-3.57
-7.68
-12.82
-18.62
-24.39
-29.49
-33.57
-36.79
-39.71
-43.10
-47.66
-53.87
-61.79
-70.85
-79.88
-87.07
-90.40
-88.12
-79.50
-65.05
-46.54
-26.46
-7.20
9.39
22.45
31.92
38.24
42.04
43.91
44.30
43.57
42.13
40.41
39.01
38.45
39.05
40.79
43.28
45.95
48.21
49.75
50.43
50.29
49.34
47.48
44.48
40.19
34.63
28.20
21.60
15.61
10.81
7.24
4.37
1.34
-2.62
-7.82
-13.92
-20.13
-25.52
-29.51
-32.14
-34.09
-36.48
-40.44
-46.70
-55.20
-64.99
-74.34
-81.17
-83.55
-80.28
-71.13
-57.00
-39.63
-21.17
-3.62
11.57
23.76
33.04
39.88
44.73
47.76
48.96
48.46
46.75
44.69
43.26
43.12
44.27
46.15
47.99
49.18
49.48
49.06
48.22
47.17
45.85
43.99
41.25
37.34
32.21
26.12
19.60
13.39
8.16
4.27
1.55
-0.66
-3.23
-6.90
-11.94
-18.04
-24.52
-30.59
-35.79
-40.15
-44.17
-48.63
-54.30
-61.61
-70.35
-79.61
-87.71
-92.65
-92.58
-86.42
-74.31
-57.60
-38.48
-19.29
-1.86
12.81
24.54
33.62
40.46
45.38
48.63
50.40
51.01
50.82
50.24
49.66
49.41
49.73
50.66
52.05
53.57
54.79
55.35
55.06
53.90
51.90
49.06
45.25
40.36
34.45
27.90
21.31
15.44
10.76
7.31
4.70
2.25
-0.69
-4.47
-9.03
-14.01
-18.95
-23.54
-27.82
-31.99
-36.37
-41.21
-46.65
-52.86
-60.10
-68.65
-78.44
-88.61
-97.41
-102.46
-101.58
-93.62
-79.03
-59.74
-38.53
-18.04
-0.13
14.41
25.62
33.96
39.83
43.47
45.12
45.13
44.15
42.99
42.42
42.91
44.57
47.10
49.86
52.19
53.57
53.81
53.04
51.59
49.82
47.89
45.70
43.02
39.52
35.09
29.84
24.12
18.36
12.92
7.94
3.37
-0.95
-5.25
-9.73
-14.46
-19.42
-24.39
-29.13
-33.39
-37.14
-40.53
-43.89
-47.57
-51.90
-57.02
-63.01
-69.82
-77.03
-83.75
-88.50
-89.57
-85.52
-75.88
-61.52
-44.41
-26.99
-11.19
2.01
12.65
21.28
28.31
33.79
37.37
38.85
38.55
37.30
36.27
36.37
37.97
40.71
43.85
46.54
48.32
49.19
49.53
49.65
49.58
48.97
47.23
43.98
39.27
33.77
28.40
23.97
20.74
18.39
16.09
13.01
8.62
2.86
-3.86
-10.88
-17.65
-23.78
-29.27
-34.42
-39.77
-45.88
-53.17
-61.73
-71.17
-80.49
-88.10
-92.11
-90.84
-83.31
-69.82
