1520264731.00
64.000000
-0.00
-0.00
-0.00
-0.00
-0.00
-0.00
-0.00
-0.00
-0.00
-0.00
0.00
0.01
0.01
-0.00
-0.03
-0.05
-0.05
0.00
0.13
0.36
0.66
1.01
1.37
1.72
2.06
2.40
2.79
3.24
3.80
4.42
5.06
5.66
6.20
6.68
7.15
7.68
8.31
9.14
10.09
11.04
11.88
12.56
13.14
13.76
14.65
15.96
17.91
20.32
22.90
25.38
27.58
29.57
31.68
34.32
37.81
42.54
48.15
54.10
59.83
64.97
69.58
74.14
79.34
85.71
93.76
103.00
112.62
121.73
129.77
136.75
143.30
150.75
157.77
166.64
177.95
191.79
206.97
220.57
228.25
225.36
208.53
176.87
132.76
80.05
23.07
-34.94
-92.44
-149.16
-205.23
-260.37
-313.74
-363.87
-409.83
-450.91
-486.50
-515.74
-537.23
-549.22
-549.96
-538.37
-514.21
-478.67
-433.88
-382.45
-327.02
-269.84
-212.63
-156.66
-102.95
-52.37
-5.90
35.58
71.43
101.35
125.50
144.38
158.69
169.15
176.37
180.75
182.57
182.07
179.51
175.23
169.65
163.18
156.15
148.81
141.30
133.69
126.02
118.33
110.69
103.16
95.80
88.68
81.83
75.25
68.95
62.95
57.25
51.86
46.78
42.03
37.59
33.45
29.61
26.07
22.81
19.83
17.11
14.67
12.48
10.54
8.83
7.35
6.07
4.97
4.05
3.27
2.62
2.09
1.65
1.30
1.01
0.79
0.61
0.47
0.37
0.28
0.22
0.18
0.15
0.13
0.12
0.12
0.12
0.14
0.16
0.18
0.22
0.25
0.29
0.33
0.37
0.42
0.46
0.51
0.56
0.61
0.66
0.72
0.78
0.85
0.92
1.00
1.09
1.19
1.30
1.43
1.56
1.72
1.90
2.09
2.30
2.54
2.81
3.10
3.42
3.77
4.15
4.57
5.02
5.51
6.04
6.60
7.21
7.86
8.56
9.29
10.08
10.90
11.77
12.69
13.65
14.68
15.77
16.92
18.13
19.39
20.65
21.88
23.00
23.91
24.49
24.64
24.22
23.16
21.39
18.90
15.75
12.01
7.84
3.43
-1.03
-5.31
-9.22
-12.57
-15.25
-17.20
-18.39
-18.90
-18.82
-18.28
-17.40
-16.27
-14.93
-13.46
-11.87
-10.20
-8.49
-6.82
-5.23
-3.75
-2.33
-0.90
0.62
2.25
4.04
5.98
7.89
9.69
11.35
12.96
14.66
16.59
18.85
21.44
24.30
27.00
29.31
31.17
32.76
34.39
36.40
38.97
42.09
45.54
48.53
50.57
51.54
51.76
51.83
52.34
53.60
55.50
57.60
58.55
57.43
53.86
48.03
40.35
31.08
19.73
4.50
-12.38
-31.23
-52.66
-77.41
-105.86
-137.55
-170.68
-201.93
-226.99
-241.70
-244.35
-235.61
-218.52
-197.29
-175.68
-155.77
-137.70
-120.45
-102.83
-84.99
-67.69
-51.95
-38.39
-26.94
-16.96
-7.70
1.32
10.16
18.12
24.58
29.19
32.07
33.77
34.99
36.35
38.16
40.37
42.49
44.04
44.74
44.56
43.77
42.71
41.66
40.69
39.64
38.19
36.04
33.14
29.63
25.88
22.30
19.20
16.67
14.56
12.47
9.91
6.42
1.89
-3.36
-8.55
-12.59
-14.51
-13.83
-10.70
-5.88
-0.41
4.78
9.14
12.57
15.21
17.34
19.09
20.49
21.55
22.33
22.96
23.57
24.17
24.64
24.84
24.65
24.09
23.26
22.32
21.37
20.47
19.63
18.86
18.11
17.29
16.21
14.69
12.63
10.15
7.58
5.33
3.66
2.53
1.61
0.41
-1.50
-4.35
-8.09
-12.44
-16.92
-21.01
-24.07
-25.51
-24.94
-22.25
-17.76
-12.15
-6.27
-0.91
3.43
6.67
9.03
10.94
12.79
14.81
17.00
19.18
21.08
22.49
23.32
23.59
23.37
22.80
21.95
20.91
19.75
18.60
17.57
16.72
16.06
15.49
14.82
13.87
12.49
10.65
8.46
6.17
4.03
2.30
1.04
0.16
-0.62
-1.72
-3.54
-6.41
-10.36
-15.08
-19.90
-23.88
-26.06
-25.82
-23.04
-18.20
-12.23
-6.14
-0.79
3.44
6.54
8.89
10.96
13.16
15.65
18.34
20.93
23.13
24.74
25.77
26.41
26.89
27.29
27.54
27.41
26.71
25.44
23.84
22.25
20.93
19.94
19.07
17.94
16.22
13.76
10.65
7.21
3.79
0.73
-1.75
-3.56
-4.76
-5.58
-6.34
-7.45
-9.24
-11.89
-15.20
-18.63
-21.43
-22.86
-22.48
-20.27
-16.61
-12.17
-7.64
-3.56
-0.25
2.15
3.73
4.69
5.36
6.07
7.06
8.38
9.84
11.14
12.01
12.32
12.17
11.75
11.23
10.67
10.01
9.18
8.12
6.93
5.78
4.84
4.23
3.97
3.92
3.86
3.57
2.88
1.70
0.09
-1.84
-3.90
-5.95
-7.93
-9.86
-11.87
-14.12
-16.71
-19.65
-22.71
-25.43
-27.19
-27.41
-25.76
-22.32
-17.62
-12.45
-7.61
-3.61
-0.60
1.67
3.59
5.52
7.60
9.73
11.68
13.19
14.15
14.59
14.66
14.53
14.34
14.09
13.75
13.24
12.52
11.66
10.82
10.15
9.78
9.68
9.65
9.39
8.62
7.20
5.29
3.24
1.40
0.02
-0.94
-1.72
-2.60
-3.77
-5.29
-7.13
-9.29
-11.79
-14.56
-17.31
-19.47
-20.35
-19.47
-16.81
-12.88
-8.51
-4.51
-1.34
0.90
2.43
3.55
4.46
5.24
5.88
6.40
6.80
7.11
7.30
7.34
7.15
6.67
5.91
4.97
3.96
3.06
2.35
1.89
1.60
1.33
0.98
0.50
-0.03
-0.41
-0.48
-0.19
0.32
0.75
0.75
0.07
-1.39
-3.59
-6.34
-9.41
-12.52
-15.32
-17.41
-18.38
-17.89
-15.89
-12.69
-8.85
-5.08
-1.92
0.40
1.98
3.08
3.98
4.79
5.55
6.25
6.92
7.60
8.32
9.00
9.52
9.78
9.82
9.82
9.97
10.40
11.05
11.76
12.34
12.69
12.87
13.03
13.36
14.03
15.12
16.69
18.75
21.23
23.94
26.57
28.75
30.20
30.95
31.38
32.12
33.77
36.56
40.09
43.45
45.46
45.07
41.70
35.29
26.21
15.12
2.77
-10.02
-22.47
-33.84
-43.60
-51.50
-57.61
-62.23
-65.70
-68.26
-70.00
-70.84
-70.56
-68.88
-65.57
-60.56
-54.05
-46.61
-39.07
-32.32
-27.06
-23.53
-21.42
-20.03
-18.54
-16.36
-13.39
-10.08
-7.29
-5.89
-6.45
-8.98
-12.89
-17.22
-20.89
-23.04
-23.24
-21.49
-18.30
-14.41
-10.67
-7.72
-5.82
-4.76
-3.97
-2.79
-0.68
2.53
6.70
11.37
15.99
19.99
22.84
24.24
24.21
23.23
22.16
22.06
23.67
27.16
32.00
37.19
41.70
44.73
45.91
45.18
42.61
38.29
32.42
25.35
17.66
10.02
3.00
-3.22
-8.88
-14.50
-20.50
-26.89
-33.10
-38.15
-41.10
-41.44
-39.41
-35.85
-31.83
-28.18
-25.29
-23.09
-21.33
-19.82
-18.47
-17.19
-15.74
-13.76
-11.01
-7.51
-3.69
-0.16
2.50
4.11
4.82
5.07
5.25
5.68
6.48
7.72
9.37
11.28
13.11
14.37
14.59
13.59
11.53
8.89
6.20
3.77
1.58
-0.62
-3.17
-6.23
-9.69
-13.23
-16.40
-18.79
-20.07
-20.04
-18.68
-16.27
-13.24
-10.14
-7.39
-5.22
-3.57
-2.25
-1.03
0.21
1.56
3.06
4.71
6.45
8.15
9.60
10.58
10.93
10.68
9.99
9.08
8.12
7.16
6.11
4.86
3.30
1.46
-0.52
-2.46
-4.16
-5.51
-6.47
-7.13
-7.59
-7.96
-8.36
-8.96
-9.98
-11.62
-13.86
-16.40
-18.65
-19.85
-19.44
-17.29
-13.75
-9.58
-5.59
-2.32
0.08
1.83
3.34
4.94
6.80
8.82
10.81
12.52
13.80
14.58
14.91
14.91
14.68
14.33
13.93
13.52
13.15
12.89
12.79
12.81
12.82
12.60
11.90
10.62
8.85
6.83
4.89
3.23
1.86
0.63
-0.75
-2.46
-4.62
-7.22
-10.20
-13.43
-16.68
-19.58
-21.63
-22.35
-21.44
-18.91
-15.16
-10.79
-6.47
-2.69
0.38
2.83
4.93
6.98
9.10
11.25
13.19
14.62
15.39
15.47
15.07
14.48
13.96
13.68
13.67
13.84
14.05
14.18
14.15
13.97
13.63
13.17
12.58
11.83
10.85
9.55
7.94
6.08
4.13
2.31
0.78
-0.41
-1.32
-2.14
-3.13
-4.47
-6.26
-8.43
-10.80
-12.98
-14.57
-15.13
-14.38
-12.30
-9.16
-5.49
-1.88
1.18
3.51
5.22
6.60
7.88
9.10
10.15
10.85
11.12
11.04
10.83
10.66
10.67
10.86
11.17
11.47
11.70
11.82
11.79
11.61
11.29
10.85
10.30
9.63
8.79
7.69
6.28
4.60
2.79
1.07
-0.42
-1.60
-2.56
-3.51
-4.71
-6.40
-8.69
-11.57
-14.82
-18.05
-20.75
-22.44
-22.73
-21.55
-19.14
-15.94
-12.42
-8.96
-5.74
-2.82
-0.25
1.88
3.43
4.32
4.62
4.57
4.48
4.62
5.12
5.94
6.90
7.80
8.44
8.72
8.60
8.11
7.40
6.61
5.91
5.36
4.87
4.24
3.31
1.99
0.39
-1.23
-2.63
-3.67
-4.44
-5.16
-6.13
-7.55
-9.45
-11.68
-13.92
-15.81
-16.97
-17.17
-16.35
-14.66
-12.45
-10.07
-7.80
-5.78
-3.99
-2.41
-1.02
0.12
0.94
1.42
1.69
1.98
2.51
3.43
4.69
6.09
7.37
8.30
8.83
9.07
9.22
9.41
9.64
9.76
9.51
8.79
7.59
6.11
4.55
3.07
1.68
0.28
-1.24
-2.99
-5.04
-7.44
-10.17
-13.10
-15.90
-18.13
-19.28
-19.05
-17.46
-14.83
-11.69
-8.59
-5.90
-3.86
-2.50
-1.77
-1.56
-1.72
-2.03
-2.28
-2.30
-2.06
-1.62
-1.14
-0.76
-0.48
-0.19
0.29
1.08
2.07
2.98
3.42
3.10
1.92
0.03
-2.23
-4.51
-6.53
-8.14
-9.27
-9.96
-10.29
-10.51
-11.01
-12.17
-14.19
-16.91
-19.83
-22.23
-23.43
-23.05
-21.10
-18.00
-14.32
-10.68
-7.55
-5.13
-3.40
-2.15
-1.11
-0.08
1.00
2.07
2.97
3.56
3.78
3.68
3.38
3.01
2.73
2.63
2.79
3.19
3.74
4.27
4.55
4.40
3.70
2.44
0.73
-1.24
-3.24
-5.02
-6.42
-7.40
-8.09
-8.77
-9.79
-11.43
-13.76
-16.60
-19.46
-21.69
-22.62
-21.86
-19.43
-15.83
-11.84
-8.20
-5.34
-3.26
-1.58
0.11
2.03
4.10
5.99
7.38
8.15
8.46
8.62
8.97
9.63
10.50
11.28
11.69
11.55
10.92
10.06
9.30
8.90
8.84
8.84
8.50
7.51
5.83
3.72
1.59
-0.21
-1.60
-2.78
-4.05
-5.68
-7.69
-9.92
-12.13
-14.17
-16.04
-17.70
-19.04
-19.79
-19.59
-18.25
-15.89
-12.85
-9.66
-6.75
-4.32
-2.36
-0.72
0.76
2.16
3.48
4.74
5.92
7.07
8.21
9.29
10.25
11.04
11.65
12.16
12.66
13.21
13.80
14.30
14.62
14.64
14.38
13.90
13.31
12.67
11.92
10.97
9.70
8.05
6.04
3.82
1.54
-0.65
-2.73
-4.75
-6.84
-9.15
-11.79
-14.83
-18.15
-21.41
-24.01
-25.23
-24.45
-21.46
-16.64
-10.96
-5.60
-1.54
0.83
1.82
2.23
2.86
4.15
6.04
8.04
9.59
10.36
10.37
10.00
9.73
9.97
10.94
12.73
15.40
19.00
23.37
28.02
32.10
34.66
35.07
33.41
30.49
27.59
25.76
25.44
26.34
27.75
29.03
29.93
30.55
31.03
31.33
31.15
30.13
28.10
25.22
21.90
18.64
15.93
14.15
13.59
14.39
16.50
19.62
23.27
26.86
29.93
32.23
33.70
34.39
34.39
33.76
32.61
31.17
29.69
28.40
27.32
26.31
25.10
23.39
21.07
18.17
14.90
11.56
8.46
5.83
3.79
2.26
1.04
-0.16
-1.55
-3.25
-5.19
-7.24
-9.30
-11.39
-13.55
-15.81
-18.09
-20.23
-22.03
-23.44
-24.58
-25.63
-26.83
-28.34
-30.21
-32.43
-34.90
-37.39
-39.52
-40.79
-40.69
-38.97
-35.73
-31.47
-26.91
-22.71
-19.28
-16.70
-14.79
-13.27
-11.82
-10.21
-8.31
-6.11
-3.68
-1.19
1.16
3.25
5.02
6.53
7.83
8.97
9.90
10.52
10.79
10.78
10.62
10.44
10.23
9.85
9.10
7.80
5.95
3.70
1.28
-1.08
-3.29
-5.31
-7.18
-8.89
-10.46
-11.90
-13.33
-14.96
-17.04
-19.70
-22.83
-26.10
-28.92
-30.68
-30.91
-29.43
-26.41
-22.32
-17.81
-13.46
-9.70
-6.64
-4.21
-2.21
-0.44
1.22
2.76
4.17
5.42
6.49
7.41
8.17
8.75
9.15
9.40
9.58
9.78
10.10
10.55
11.01
11.31
11.29
10.84
10.03
8.97
7.84
6.79
5.84
4.93
3.93
2.74
1.29
-0.38
-2.17
-3.95
-5.62
-7.16
-8.59
-10.06
-11.75
-13.81
-16.33
-19.19
-22.09
-24.52
-25.91
-25.82
-24.03
-20.71
-16.35
-11.60
-7.13
-3.34
-0.36
1.90
3.68
5.19
6.53
7.74
8.82
9.76
10.60
11.40
12.20
12.99
13.73
14.35
14.78
15.01
15.10
15.10
15.11
15.14
15.11
14.88
14.30
13.31
11.99
10.48
8.98
7.60
6.35
5.11
3.76
2.21
0.48
-1.34
-3.16
-4.91
-6.61
-8.33
-10.19
-12.31
-14.74
-17.36
-19.86
-21.75
-22.47
-21.70
-19.41
-16.02
-12.15
-8.43
-5.23
-2.62
-0.44
1.49
3.25
4.83
6.19
7.32
8.30
9.16
9.83
10.21
10.22
9.91
9.43
8.99
8.70
8.53
8.36
8.12
7.86
7.70
7.76
7.96
8.02
7.56
6.34
4.40
2.07
-0.17
-1.98
-3.31
-4.40
-5.66
-7.45
-9.88
-12.89
-16.19
-19.43
-22.24
-24.19
-24.89
-24.10
-21.81
-18.34
-14.24
-10.15
-6.55
-3.66
-1.41
0.39
1.96
3.37
4.58
5.50
6.12
6.50
6.77
7.06
7.39
7.67
7.74
7.51
7.03
6.49
6.13
6.08
6.30
6.55
6.55
6.11
5.24
4.13
3.01
2.07
1.33
0.75
0.16
-0.61
-1.75
-3.36
-5.49
-8.06
-10.81
-13.37
-15.31
-16.27
-16.05
-14.72
-12.56
-9.97
-7.32
-4.82
-2.53
-0.40
1.61
3.45
5.02
6.22
7.03
7.45
7.56
7.36
6.88
6.13
5.21
4.30
3.58
3.21
3.18
3.42
3.74
3.96
3.89
3.34
2.20
0.44
-1.78
-4.19
-6.46
-8.34
-9.77
-10.86
-11.88
-13.14
-14.88
-17.22
-20.02
-22.90
-25.25
-26.47
-26.16
-24.30
-21.32
-18.01
-15.18
-13.43
-12.93
-13.42
-14.32
-14.97
-14.85
-13.74
-11.80
-9.39
-6.97
-4.86
-3.13
-1.67
-0.29
1.16
2.64
4.00
5.08
5.86
6.36
6.73
7.00
7.10
6.89
6.30
5.37
4.27
3.17
2.15
1.17
0.05
-1.40
-3.30
-5.70
-8.51
-11.53
-14.45
-16.84
-18.18
-18.08
-16.37
-13.31
-9.45
-5.47
-1.93
0.97
3.30
5.33
7.23
9.02
10.57
11.77
12.62
13.21
13.70
14.15
14.46
14.50
14.16
13.51
12.74
12.04
11.51
11.10
10.59
9.81
8.63
7.11
5.31
3.35
1.29
-0.87
-3.08
-5.24
-7.25
-9.10
-10.89
-12.90
-15.46
-18.87
-23.24
-28.40
-33.88
-38.96
-42.82
-44.73
-44.27
-41.44
-36.64
-30.55
-23.78
-16.84
-9.98
-3.33
3.03
8.94
14.21
18.62
22.06
24.56
26.24
27.24
27.72
27.83
27.66
27.31
26.83
26.30
25.78
25.35
25.07
24.94
24.96
25.01
25.03
24.92
24.64
24.16
23.45
22.48
21.18
19.46
17.28
14.73
11.98
9.25
6.62
4.04
1.29
-1.91
-5.67
-9.77
-13.66
-16.57
-17.81
-17.04
-14.41
-10.52
-6.15
-2.01
1.47
4.18
6.29
8.03
9.62
11.19
12.72
14.20
15.57
16.78
17.81
18.63
19.18
19.44
19.40
19.10
18.63
18.16
17.83
17.73
17.85
18.01
17.99
17.56
16.63
15.25
13.61
11.93
10.43
9.13
7.97
6.74
5.24
3.31
0.92
-1.85
-4.82
-7.80
-10.65
-13.39
-16.09
-18.89
-21.79
-24.59
-26.81
-27.88
-27.34
-25.04
-21.29
-16.76
-12.23
-8.27
-5.10
-2.60
-0.43
1.66
3.78
5.86
7.75
9.34
10.61
11.61
12.41
13.04
13.51
13.83
14.02
14.16
14.28
14.42
14.53
14.55
14.38
13.98
13.32
12.43
11.39
10.22
8.97
7.59
6.06
4.38
2.57
0.72
-1.04
-2.60
-3.92
-5.01
-5.97
-6.97
-8.13
-9.56
-11.34
-13.46
-15.91
-18.57
-21.22
-23.49
-24.86
-24.89
-23.33
-20.28
-16.19
-11.74
-7.58
-4.16
-1.59
0.26
1.64
2.79
3.85
4.88
5.89
6.93
8.02
9.15
10.26
11.25
11.98
12.41
12.59
12.64
12.74
13.03
13.49
13.99
14.30
14.21
13.60
12.49
11.05
9.54
8.17
7.01
6.00
4.93
3.65
2.11
0.41
-1.26
-2.69
-3.81
-4.69
-5.56
-6.63
-8.11
-10.07
-12.44
-15.06
-17.60
-19.68
-20.85
-20.75
-19.23
-16.44
-12.81
-8.95
-5.42
-2.56
-0.43
1.12
2.38
3.54
4.71
5.83
6.80
7.52
7.98
8.22
8.31
8.31
8.27
8.18
8.07
7.97
7.95
8.06
8.34
8.70
9.02
9.12
8.91
8.35
7.52
6.55
5.50
4.47
3.47
2.51
1.59
0.66
-0.31
-1.42
-2.72
-4.17
-5.66
-7.07
-8.35
-9.57
-10.96
-12.76
-15.06
-17.68
-20.18
-21.96
-22.46
-21.46
-19.08
-15.77
-12.10
-8.56
-5.44
-2.82
-0.64
1.15
2.54
3.57
4.29
4.86
5.47
6.28
7.28
8.30
9.13
9.60
9.72
9.64
9.59
9.72
10.02
10.36
10.52
10.32
9.67
8.65
7.43
6.20
5.12
4.29
3.66
3.10
2.46
1.65
0.70
-0.30
-1.27
-2.22
-3.29
-4.70
-6.63
-9.12
-12.01
-14.94
-17.50
-19.25
-19.86
-19.17
-17.19
-14.19
-10.59
-6.87
-3.49
-0.70
1.45
3.05
4.19
4.99
5.47
5.68
5.68
5.58
5.46
5.41
5.40
5.38
5.29
5.09
4.79
4.43
4.01
3.54
3.01
2.42
1.74
0.96
0.03
-1.10
-2.44
-3.95
-5.52
-6.93
-8.06
-8.85
-9.44
-10.07
-10.99
-12.41
-14.32
-16.56
-18.83
-20.76
-21.98
-22.15
-21.08
-18.79
-15.51
-11.68
-7.80
-4.30
-1.45
0.62
1.96
2.68
2.95
3.00
3.07
3.33
3.86
4.53
5.13
5.50
5.53
5.35
5.10
4.94
4.89
4.90
4.90
4.86
4.79
4.71
4.57
4.24
3.57
2.47
0.91
-0.94
-2.85
-4.59
-6.00
-7.11
-8.08
-9.18
-10.69
-12.73
-15.17
-17.63
-19.61
-20.56
-20.12
-18.22
-15.09
-11.20
-7.07
-3.19
0.14
2.77
4.74
6.15
7.15
7.86
8.39
8.83
9.19
9.52
9.78
10.00
10.25
10.63
11.20
11.89
12.55
12.91
12.78
12.08
10.97
9.68
8.47
7.42
6.42
5.30
3.86
2.12
0.19
-1.69
-3.34
-4.73
-5.96
-7.22
-8.70
-10.56
-12.83
-15.44
-18.24
-20.86
-22.84
-23.63
-22.87
-20.47
-16.81
-12.50
-8.26
-4.64
-1.79
0.41
2.22
3.86
5.44
6.97
8.42
9.78
11.00
12.03
12.77
13.16
13.20
12.99
12.71
12.50
12.48
12.67
13.04
13.51
13.98
14.31
14.36
14.06
13.38
12.41
11.25
9.95
8.51
6.89
5.09
3.21
1.43
-0.12
-1.43
-2.66
-4.13
-6.14
-8.80
-11.99
-15.33
-18.37
-20.64
-21.74
-21.45
-19.73
-16.78
-13.04
-9.05
-5.37
-2.35
-0.05
1.72
3.27
4.82
6.51
8.27
10.00
11.56
12.88
13.89
14.61
15.01
15.08
14.84
14.33
13.61
12.85
12.21
11.81
11.63
11.51
11.21
10.56
9.57
8.45
7.45
6.72
6.22
5.75
5.08
4.06
2.69
1.06
-0.72
-2.57
-4.44
-6.29
-8.12
-9.91
-11.74
-13.70
-15.85
-18.13
-20.27
-21.87
-22.45
-21.67
-19.41
-15.86
-11.45
-6.81
-2.58
0.82
3.23
4.79
5.85
6.79
7.89
9.24
10.73
12.14
13.27
14.01
14.33
14.33
14.15
13.91
13.70
13.59
13.61
13.76
14.01
14.30
14.46
14.34
13.79
12.80
11.45
9.95
8.48
7.12
5.85
4.55
3.07
1.36
-0.54
-2.51
-4.41
-6.09
-7.45
-8.49
-9.37
-10.37
-11.83
-13.92
-16.50
-19.08
-20.91
-21.33
-20.02
-17.19
-13.45
-9.52
-6.00
-3.16
-0.99
0.69
2.04
3.22
4.34
5.51
6.79
8.16
9.49
10.57
11.26
11.54
11.51
11.37
11.26
11.23
11.26
11.27
11.26
11.26
11.28
11.24
11.01
10.45
9.50
8.25
6.90
5.64
4.54
3.53
2.45
1.18
-0.25
-1.72
-3.05
-4.12
-5.02
-5.99
-7.30
-9.07
-11.19
-13.20
-14.55
-14.80
-13.81
-11.77
-9.09
-6.16
-3.22
-0.34
2.49
5.18
7.49
9.13
9.86
9.70
8.87
7.79
6.83
6.29
6.29
6.80
7.72
8.77
9.68
10.14
10.05
9.49
8.79
8.31
8.25
8.53
8.76
8.48
7.38
5.51
3.24
1.09
-0.54
-1.57
-2.21
-2.85
-3.89
-5.58
-7.95
-10.84
-13.94
-16.83
-19.04
-20.23
-20.14
-18.80
-16.42
-13.40
-10.17
-7.10
-4.45
-2.36
-0.85
0.18
0.88
1.45
2.04
2.68
3.34
3.85
4.12
4.10
3.87
3.54
3.19
2.79
2.32
1.77
1.25
0.92
0.81
0.81
0.66
0.09
-1.01
-2.50
-4.04
-5.30
-6.13
-6.62
-7.07
-7.83
-9.18
-11.20
-13.73
-16.44
-18.85
-20.45
-20.83
-19.82
-17.58
-14.52
-11.18
-8.06
-5.48
-3.56
-2.24
-1.36
-0.73
-0.19
0.35
0.97
1.67
2.44
3.22
3.99
4.71
5.30
5.69
5.82
5.67
5.35
5.05
4.95
5.13
5.47
5.70
5.50
4.66
3.21
1.37
-0.51
-2.13
-3.40
-4.48
-5.62
-7.13
-9.09
-11.45
-14.01
-16.58
-19.00
-21.13
-22.75
-23.58
-23.29
-21.70
-18.91
-15.32
-11.55
-8.21
-5.73
-4.23
-3.52
-3.22
-2.92
-2.32
-1.34
-0.07
1.23
2.28
2.89
3.02
2.75
2.25
1.68
1.13
0.61
0.11
-0.38
-0.86
-1.35
-1.90
-2.57
-3.42
-4.47
-5.66
-6.82
-7.76
-8.32
-8.46
-8.29
-8.11
-8.27
-9.08
-10.72
-13.14
-16.15
-19.45
-22.68
-25.43
-27.24
-27.75
-26.70
-24.17
-20.51
-16.32
-12.20
-8.55
-5.53
-3.02
-0.86
1.14
3.01
4.73
6.25
7.54
8.62
9.55
10.43
11.35
12.40
13.58
14.83
16.04
17.11
18.02
18.67
19.02
18.91
18.20
16.80
14.78
12.34
9.75
7.25
4.91
2.76
0.74
-1.08
-2.55
-3.52
-3.98
-4.12
-4.31
-5.06
-6.77
-9.61
-13.44
-17.76
-21.81
-24.76
-25.96
-25.05
-22.11
-17.57
-12.11
-6.47
-1.28
2.97
6.07
8.03
9.07
9.58
10.02
10.76
12.05
13.92
16.24
18.70
20.97
22.75
23.89
24.48
24.74
24.95
25.33
25.91
26.57
27.03
27.02
26.35
24.92
22.84
20.28
17.47
14.63
11.90
9.30
6.81
4.37
2.04
-0.06
-1.78
-3.06
-3.97
-4.70
-5.56
-6.84
-8.78
-11.48
-14.90
-18.70
-22.37
-25.19
-26.49
-25.89
-23.41
-19.55
-15.07
-10.69
-6.88
-3.77
-1.22
0.98
2.89
4.46
5.53
6.03
5.97
5.55
5.06
4.77
4.87
5.40
6.36
7.64
9.20
11.03
13.08
15.20
17.11
18.46
18.97
18.56
17.46
16.14
15.03
14.43
14.27
14.26
14.04
13.35
12.24
10.91
9.72
8.89
8.53
8.56
8.81
9.03
8.97
8.38
7.04
4.82
1.80
-1.75
-5.34
-8.45
-10.65
-11.70
-11.63
-10.63
-8.91
-6.63
-3.87
-0.62
3.06
7.09
11.32
15.62
19.89
24.02
27.85
31.14
33.58
34.84
34.65
32.95
29.84
25.63
20.75
15.69
10.91
6.75
3.35
0.65
-1.50
-3.33
-4.95
-6.32
-7.38
-8.12
-8.68
-9.35
-10.40
-11.99
-14.00
-16.17
-18.23
-20.07
-21.79
-23.64
-25.87
-28.59
-31.66
-34.82
-37.72
-40.00
-41.23
-41.05
-39.11
-35.29
-29.83
-23.27
-16.39
-9.94
-4.39
0.13
3.79
6.85
9.47
11.68
13.40
14.58
15.32
15.89
16.57
17.57
18.92
20.43
21.84
22.89
23.48
23.58
23.27
22.61
21.67
20.53
19.33
18.28
17.58
17.31
17.38
17.52
17.35
16.53
14.90
12.49
9.50
6.22
2.85
-0.52
-3.88
-7.34
-11.04
-15.03
-19.33
-23.72
-27.81
-30.99
-32.62
-32.23
-29.75
-25.62
-20.62
-15.65
-11.38
-8.04
-5.48
-3.37
-1.43
0.44
2.15
3.60
4.75
5.68
6.58
7.60
8.80
10.10
11.34
12.31
12.86
12.90
12.51
11.82
11.05
10.41
10.03
9.88
9.79
9.49
8.68
7.15
4.82
1.87
-1.39
-4.51
-7.12
-9.08
-10.53
-11.86
-13.53
-15.85
-18.81
-22.11
-25.18
-27.40
-28.27
-27.53
-25.15
-21.37
-16.62
-11.47
-6.51
-2.26
1.00
3.25
4.70
5.71
6.56
7.45
8.42
9.40
10.37
11.31
12.26
13.18
13.96
14.48
14.69
14.64
14.57
14.67
15.02
15.43
15.47
14.70
12.86
10.03
6.62
3.20
0.26
-1.97
-3.53
-4.70
-5.77
-7.03
-8.65
-10.74
-13.31
-16.26
-19.41
-22.36
-24.58
-25.55
-24.90
-22.58
-18.92
-14.52
-10.05
-6.06
-2.78
-0.14
2.11
4.18
6.19
8.10
9.77
11.08
12.00
12.63
13.10
13.54
13.98
14.37
14.64
14.70
14.59
14.39
14.17
14.01
13.85
13.61
13.14
12.37
11.34
10.13
8.86
7.54
6.17
4.60
2.76
0.62
-1.77
-4.27
-6.79
-9.28
-11.76
-14.31
-16.95
-19.53
-21.71
-23.04
-23.09
-21.63
-18.79
-15.03
-10.97
-7.18
-3.97
-1.34
0.90
3.03
5.16
7.29
9.25
10.90
12.15
13.08
13.79
14.38
14.89
15.24
15.35
15.21
14.96
14.80
14.91
15.32
15.83
16.10
15.82
14.84
13.28
11.45
9.73
8.40
7.49
6.84
6.11
5.00
3.39
1.35
-0.86
-2.99
-4.81
-6.34
-7.68
-9.01
-10.49
-12.25
-14.36
-16.79
-19.43
-21.92
-23.80
-24.52
-23.73
-21.40
-17.90
-13.85
-9.92
-6.53
-3.82
-1.62
0.33
2.24
4.18
6.06
7.74
9.11
10.15
10.90
11.44
11.86
12.20
12.47
12.63
12.70
12.67
12.57
12.41
12.19
11.96
11.69
11.37
10.93
10.36
9.63
8.75
7.77
6.71
5.60
4.45
3.30
2.19
1.19
0.36
-0.25
-0.71
-1.14
-1.68
-2.52
-3.71
-5.19
-6.79
-8.31
-9.64
-10.81
-11.98
-13.38
-15.11
-17.04
-18.82
-19.95
-20.00
-18.79
-16.45
-13.41
-10.24
-7.43
-5.22
-3.57
-2.22
-0.93
0.41
1.75
2.89
3.78
4.44
5.08
5.83
6.70
7.50
7.97
7.96
7.52
6.91
6.43
6.23
6.30
6.46
6.57
6.54
6.44
6.34
6.33
6.38
6.36
6.15
5.69
4.93
3.98
2.93
1.89
0.92
0.01
-0.88
-1.86
-2.99
-4.32
-5.79
-7.27
-8.59
-9.64
-10.43
-11.09
-11.83
-12.86
-14.28
-16.04
-17.92
-19.57
-20.61
-20.75
-19.81
-17.85
-15.12
-11.97
-8.78
-5.85
-3.33
-1.26
0.41
1.77
2.87
3.73
4.32
4.64
4.74
4.67
4.55
4.51
4.69
5.14
5.91
6.91
8.02
9.13
10.10
10.85
11.26
11.25
10.73
9.70
8.29
6.74
5.34
4.26
3.45
2.65
1.55
-0.07
-2.14
-4.32
-6.26
-7.64
-8.47
-8.93
-9.31
-9.85
-10.67
-11.84
-13.34
-15.07
-16.83
-18.34
-19.21
-19.13
-17.92
-15.67
-12.67
-9.34
-6.09
-3.26
-1.04
0.49
1.39
1.86
2.12
2.40
2.79
3.29
3.82
4.31
4.75
5.14
5.51
5.84
6.12
6.35
6.57
6.84
7.19
7.54
7.76
7.73
7.38
6.77
6.02
5.23
4.48
3.77
3.11
2.44
1.73
0.91
-0.11
-1.33
-2.71
-4.09
-5.32
-6.29
-7.10
-7.93
-9.06
-10.59
-12.40
-14.15
-15.35
-15.54
-14.55
-12.55
-9.95
-7.33
-5.11
-3.43
-2.21
-1.20
-0.19
0.82
1.68
2.24
2.45
2.44
2.45
2.70
3.25
3.97
4.66
5.12
5.28
5.14
4.79
4.26
3.57
2.74
1.86
1.02
0.30
-0.35
-1.06
-1.97
-3.15
-4.48
-5.77
-6.83
-7.64
-8.30
-9.04
-10.06
-11.43
-13.16
-15.20
-17.49
-19.89
-22.22
-24.17
-25.33
-25.37
-24.17
-21.85
-18.76
-15.33
-11.96
-8.94
-6.41
-4.42
-2.90
-1.72
-0.72
0.24
1.20
2.14
2.96
3.56
3.93
4.14
4.31
4.56
4.90
5.27
5.58
5.78
5.86
5.87
5.85
5.78
5.56
5.02
4.05
2.60
0.81
-1.10
-2.87
-4.34
-5.51
-6.52
-7.60
-8.99
-10.80
-13.08
-15.76
-18.74
-21.88
-24.94
-27.48
-29.02
-29.13
-27.58
-24.56
-20.63
-16.48
-12.74
-9.75
-7.44
-5.52
-3.64
-1.53
0.85
3.34
5.69
7.64
9.04
9.91
10.33
10.56
10.80
11.22
11.83
12.57
13.30
13.85
14.12
14.03
13.55
12.69
11.46
10.01
8.47
7.03
5.80
4.79
3.86
2.81
1.47
-0.20
-2.16
-4.32
-6.62
-9.10
-11.85
-14.98
-18.47
-22.19
-25.80
-28.83
-30.74
-31.09
-29.63
-26.47
-22.03
-17.01
-12.07
-7.70
-4.02
-0.94
1.81
4.40
6.86
9.17
11.29
13.21
14.92
16.44
17.71
18.71
19.40
19.89
20.27
20.64
21.04
21.46
21.86
22.19
22.39
22.39
22.10
21.41
20.32
18.93
17.44
16.04
14.83
13.68
12.37
10.65
8.43
5.82
3.08
0.49
-1.80
-3.82
-5.79
-7.99
-10.73
-14.13
-18.14
-22.47
-26.60
-29.85
-31.56
-31.26
-28.84
-24.59
-19.18
-13.41
-8.00
-3.42
0.23
3.08
5.45
7.61
9.75
11.92
14.11
16.29
18.41
20.42
22.24
23.75
24.84
25.42
25.56
25.41
25.22
25.16
25.27
25.43
25.40
24.96
24.01
22.60
20.89
19.06
17.21
15.35
13.42
11.43
9.43
7.48
5.67
3.99
2.36
0.67
-1.19
-3.29
-5.64
-8.26
-11.18
-14.46
-18.14
-22.10
-26.03
-29.33
-31.33
-31.41
-29.31
-25.24
-19.89
-14.13
-8.75
-4.23
-0.57
2.47
5.26
8.03
10.81
13.50
15.94
18.02
19.73
21.08
22.10
22.79
23.11
23.06
22.73
22.29
21.98
21.97
22.24
22.60
22.74
22.37
21.41
19.98
18.38
16.87
15.60
14.51
13.43
12.19
10.67
8.81
6.64
4.22
1.62
-1.05
-3.65
-6.07
-8.26
-10.32
-12.42
-14.84
-17.78
-21.27
-25.05
-28.53
-30.96
-31.62
-30.08
-26.41
-21.21
-15.34
-9.70
-4.88
-1.04
1.95
4.43
6.66
8.83
10.91
12.83
14.45
15.67
16.46
16.89
17.07
17.13
17.17
17.20
17.21
17.23
17.30
17.46
17.77
18.15
18.45
18.53
18.30
17.79
17.08
16.22
15.20
13.98
12.47
10.66
8.60
6.38
4.09
1.83
-0.31
-2.30
-4.20
-6.15
-8.36
-10.99
-14.05
-17.39
-20.61
-23.22
-24.77
-24.91
-23.58
-20.96
-17.51
-13.84
-10.52
-7.94
-6.12
-4.81
-3.57
-2.00
0.08
2.57
5.14
7.43
9.11
10.05
10.34
10.28
10.17
10.34
10.89
11.73
12.64
13.36
13.69
13.59
13.15
12.52
11.81
11.11
10.38
9.57
8.61
7.44
6.02
4.37
2.54
0.63
-1.31
-3.29
-5.33
-7.49
-9.78
-12.15
-14.52
-16.76
-18.70
-20.03
-20.41
-19.56
-17.42
-14.29
-10.72
-7.33
-4.58
-2.56
-1.03
0.34
1.84
3.46
5.05
6.39
7.29
7.76
7.90
7.93
8.02
8.33
8.93
9.77
10.68
11.45
11.94
12.06
11.81
11.29
10.56
9.71
8.81
7.92
7.04
6.17
5.22
4.07
2.68
1.04
-0.76
-2.67
-4.69
-6.93
-9.48
-12.29
-15.09
-17.41
-18.76
-18.78
-17.43
-14.94
-11.79
-8.46
-5.29
-2.47
-0.03
2.06
3.77
5.08
5.93
6.35
6.51
6.65
6.99
7.65
8.60
9.65
10.55
11.09
11.24
11.08
10.79
10.53
10.37
10.23
9.94
9.32
8.23
6.61
4.54
2.16
-0.33
-2.73
-4.92
-6.86
-8.58
-10.19
-11.79
-13.50
-15.35
-17.28
-19.12
-20.60
-21.38
-21.15
-19.78
-17.37
-14.23
-10.86
-7.69
-5.06
-3.05
-1.58
-0.46
0.43
1.09
1.43
1.30
0.69
-0.26
-1.30
-2.12
-2.51
-2.49
-2.25
-2.03
-1.97
-2.03
-2.04
-1.80
-1.25
-0.52
0.14
0.41
0.08
-0.90
-2.33
-3.93
-5.41
-6.66
-7.76
-8.93
-10.49
-12.63
-15.34
-18.35
-21.26
-23.61
-25.00
-25.17
-24.01
-21.61
-18.19
-14.20
-10.16
-6.57
-3.75
-1.76
-0.41
0.64
1.71
2.99
4.46
5.94
7.28
8.34
9.14
9.70
10.09
10.32
10.39
10.33
10.19
10.01
9.83
9.64
9.36
8.95
8.44
7.86
7.25
6.59
5.75
4.68
3.35
1.89
0.49
-0.73
-1.79
-2.83
-4.14
-5.93
-8.29
-11.09
-14.05
-16.75
-18.75
-19.70
-19.36
-17.70
-14.94
-11.49
-7.86
-4.54
-1.83
0.19
1.66
2.85
4.08
5.54
7.24
9.11
10.94
12.53
13.77
14.65
15.25
15.63
15.85
15.92
15.80
15.45
14.89
14.15
13.29
12.39
11.52
10.75
10.16
9.79
9.58
9.37
8.91
8.00
6.54
4.62
2.49
0.45
-1.27
-2.58
-3.59
-4.57
-5.85
-7.66
-10.15
-13.23
-16.68
-20.09
-23.00
-24.96
-25.62
-24.85
-22.72
-19.55
-15.81
-11.97
-8.45
-5.48
-3.09
-1.15
0.54
2.13
3.71
5.25
6.65
7.83
8.75
9.40
9.84
10.11
10.24
10.23
10.11
9.96
9.94
10.16
10.67
11.40
12.15
12.65
12.70
12.24
11.37
10.31
9.29
8.46
7.80
7.17
6.39
5.31
3.89
2.20
0.41
-1.32
-2.87
-4.25
-5.61
-7.14
-9.07
-11.56
-14.57
-17.89
-21.03
-23.44
-24.52
-23.92
-21.64
-18.05
-13.81
-9.62
-6.07
-3.37
-1.41
0.09
1.46
2.87
4.28
5.56
6.59
7.33
7.92
8.48
9.15
9.92
10.66
11.21
11.48
11.53
11.46
11.44
11.50
11.56
11.46
11.09
10.47
9.72
9.00
8.39
7.83
7.24
6.55
5.81
5.09
4.47
3.91
3.26
2.31
0.95
-0.77
-2.73
-4.73
-6.64
-8.42
-10.13
-11.84
-13.72
-15.83
-18.22
-20.79
-23.24
-25.16
-26.09
-25.71
-24.00
-21.25
-17.95
-14.64
-11.67
-9.17
-7.10
-5.28
-3.61
-2.01
-0.51
0.86
2.02
2.93
3.60
4.10
4.54
5.06
5.81
6.79
7.91
8.96
9.74
10.13
10.11
9.86
9.56
9.40
9.43
9.58
9.65
9.45
8.85
7.81
6.47
4.98
3.53
2.24
1.21
0.46
-0.05
-0.45
-0.93
-1.65
-2.81
-4.46
-6.61
-9.27
-12.44
-16.13
-20.30
-24.75
-29.02
-32.53
-34.69
-35.11
-33.75
-30.90
-27.08
-22.81
-18.52
-14.47
-10.76
-7.31
-4.01
-0.71
2.67
6.06
9.29
12.08
14.19
15.55
16.22
16.40
16.33
16.20
16.11
16.11
16.24
16.54
17.05
17.73
18.44
18.94
19.04
18.57
17.56
16.19
14.68
13.25
11.99
10.87
9.80
8.74
7.68
6.65
5.63
4.55
3.24
1.60
-0.33
-2.36
-4.24
-5.82
-7.16
-8.58
-10.44
-13.03
-16.29
-19.83
-22.95
-24.91
-25.12
-23.39
-19.97
-15.46
-10.59
-6.00
-2.06
1.13
3.68
5.71
7.24
8.17
8.40
7.95
7.07
6.15
5.59
5.65
6.31
7.37
8.57
9.70
10.70
11.64
12.61
13.69
14.85
16.01
17.04
17.77
18.01
17.63
16.60
15.04
13.17
11.23
9.39
7.69
6.05
4.34
2.46
0.40
-1.83
-4.16
-6.56
-8.99
-11.39
-13.71
-15.92
-18.06
-20.23
-22.53
-24.93
-27.20
-28.93
-29.65
-28.97
-26.81
-23.41
-19.27
-14.99
-11.07
-7.81
-5.24
-3.26
-1.68
-0.35
0.80
1.78
2.54
3.06
3.37
3.60
3.90
4.44
5.27
6.32
7.41
8.30
8.79
8.80
8.40
7.73
6.93
6.08
5.20
4.27
3.32
2.37
1.47
0.61
-0.22
-1.09
-2.07
-3.20
-4.51
-6.02
-7.75
-9.75
-12.06
-14.68
-17.53
-20.38
-22.86
-24.51
-24.90
-23.81
-21.31
-17.81
-13.92
-10.27
-7.29
-5.12
-3.65
-2.59
-1.68
-0.75
0.25
1.25
2.09
2.62
2.80
2.66
2.40
2.21
2.28
2.64
3.18
3.67
3.98
4.04
3.90
3.63
3.23
2.62
1.68
0.36
-1.30
-3.14
-4.97
-6.73
-8.43
-10.23
-12.31
-14.78
-17.67
-20.93
-24.40
-27.85
-30.89
-33.06
-33.87
-32.97
-30.29
-26.12
-20.97
-15.45
-10.07
-5.09
-0.56
3.57
7.35
10.69
13.48
15.61
17.05
17.93
18.42
18.77
19.13
19.62
20.20
20.79
21.23
21.34
21.04
20.34
19.42
18.51
17.84
17.50
17.48
17.62
17.64
17.22
16.12
14.19
11.52
8.33
4.96
1.69
-1.33
-4.14
-6.87
-9.64
-12.50
-15.31
-17.76
-19.51
-20.23
-19.76
-18.14
-15.56
-12.33
-8.75
-5.14
-1.71
1.36
3.94
6.06
7.84
9.53
11.32
13.30
15.34
17.17
18.51
19.23
19.40
19.29
19.13
19.08
19.10
19.09
18.89
18.47
17.91
17.33
16.84
16.35
15.71
14.66
13.06
10.98
8.67
6.42
4.44
2.70
1.03
-0.87
-3.21
-6.08
-9.39
-12.91
-16.32
-19.22
-21.17
-21.83
-21.02
-18.84
-15.58
-11.66
-7.54
-3.60
-0.07
2.88
5.22
7.00
8.35
9.42
10.39
11.32
12.28
13.23
14.09
14.79
15.26
15.44
15.35
15.04
14.60
14.14
13.68
13.23
12.73
12.10
11.32
10.37
9.23
7.87
6.25
4.35
2.27
0.18
-1.73
-3.36
-4.74
-6.02
-7.43
-9.10
-11.11
-13.43
-15.98
-18.66
-21.29
-23.53
-24.90
-24.94
-23.37
-20.30
-16.19
-11.78
-7.68
-4.26
-1.50
0.83
2.95
4.95
6.79
8.36
9.62
10.64
11.56
12.50
13.46
14.34
15.02
15.44
15.68
15.88
16.18
16.61
17.08
17.35
17.23
16.61
15.52
14.18
12.82
11.69
10.87
10.23
9.56
8.54
7.03
5.00
2.64
0.20
-2.17
-4.44
-6.77
-9.36
-12.36
-15.83
-19.69
-23.76
-27.77
-31.44
-34.38
-36.16
-36.42
-34.95
-31.78
-27.25
-21.95
-16.53
-11.55
-7.36
-4.03
-1.36
0.89
2.98
5.00
6.92
8.67
10.16
11.39
12.37
13.16
13.76
14.19
14.52
14.81
15.14
15.55
15.96
16.26
16.27
15.89
15.13
14.09
12.93
11.84
10.96
10.38
10.03
9.77
9.42
8.78
7.79
6.51
5.06
3.58
2.11
0.54
-1.28
-3.50
-6.21
-9.37
-12.83
-16.28
-19.29
-21.36
-22.05
-21.15
-18.74
-15.24
-11.30
-7.50
-4.25
-1.68
0.34
2.06
3.65
5.23
6.74
8.09
9.10
9.67
9.73
9.35
8.69
7.92
7.24
6.74
6.46
6.41
6.59
7.01
7.66
8.48
9.29
9.83
9.85
9.25
8.08
6.56
4.96
3.48
2.20
1.03
-0.13
-1.42
-2.83
-4.36
-5.96
-7.70
-9.68
-12.04
-14.76
-17.62
-20.20
-21.94
-22.43
-21.46
-19.18
-16.01
-12.50
-9.13
-6.23
-3.89
-2.05
-0.57
0.72
1.95
3.16
4.39
5.57
6.66
7.62
8.46
9.20
9.86
10.43
10.86
11.15
11.29
11.34
11.34
11.29
11.15
10.81
10.17
9.22
8.02
6.74
5.57
4.64
3.92
3.26
2.46
1.38
0.04
-1.40
-2.74
-3.87
-4.86
-5.92
-7.29
-9.12
-11.34
-13.74
-16.04
-17.93
-19.16
-19.52
-18.86
-17.14
-14.46
-11.11
-7.49
-4.09
-1.27
0.78
2.11
2.96
3.66
4.42
5.27
6.14
6.90
7.45
7.87
8.25
8.71
9.24
9.74
10.13
10.36
10.49
10.56
10.66
10.76
10.84
10.82
10.61
10.14
9.35
8.27
7.03
5.78
4.66
3.69
2.76
1.68
0.36
-1.22
-2.89
-4.46
-5.83
-7.05
-8.27
-9.71
-11.47
-13.56
-15.83
-17.97
-19.58
-20.27
-19.71
-17.84
-14.89
-11.34
-7.78
-4.74
-2.48
-1.00
-0.05
0.72
1.60
2.67
3.89
5.04
5.95
6.56
6.90
7.12
7.38
7.73
8.12
8.41
8.52
8.39
8.11
7.77
7.48
7.23
6.96
6.52
5.81
4.79
3.52
2.16
0.84
-0.32
-1.30
-2.18
-3.04
-3.93
-4.82
-5.65
-6.33
-6.85
-7.28
-7.84
-8.79
-10.29
-12.33
-14.61
-16.66
-17.89
-17.84
-16.37
-13.72
-10.43
-7.17
-4.47
-2.54
-1.28
-0.32
0.70
2.00
3.56
5.18
6.60
7.65
8.22
8.37
8.22
7.92
7.62
7.40
7.38
7.55
7.89
8.35
8.82
9.14
9.12
8.64
7.63
6.20
4.55
2.96
1.59
0.48
-0.45
-1.25
-1.94
-2.51
-2.94
-3.33
-3.86
-4.68
-5.89
-7.47
-9.34
-11.41
-13.58
-15.72
-17.63
-18.95
-19.33
-18.53
-16.55
-13.68
-10.41
-7.26
-4.62
-2.60
-1.11
0.13
1.36
2.72
4.12
5.44
6.54
7.34
7.86
8.17
8.30
8.28
8.14
8.01
8.02
8.30
8.88
9.63
10.30
10.66
10.53
9.91
8.92
7.73
6.50
5.33
4.21
3.08
1.85
0.48
-1.05
-2.68
-4.45
-6.35
-8.46
-10.79
-13.26
-15.77
-18.16
-20.26
-21.99
-23.21
-23.74
-23.38
-21.97
-19.54
-16.36
-12.92
-9.72
-7.09
-5.06
-3.41
-1.80
-0.06
1.83
3.65
5.16
6.25
6.98
7.53
8.04
8.55
8.95
9.15
9.13
9.02
8.99
9.19
9.57
9.92
10.00
9.65
8.85
7.70
6.29
4.70
2.97
1.12
-0.74
-2.48
-3.97
-5.24
-6.37
-7.55
-8.89
-10.47
-12.23
-14.13
-16.07
-17.94
-19.48
-20.34
-20.12
-18.60
-15.84
-12.28
-8.60
-5.40
-3.05
-1.48
-0.31
0.94
2.60
4.80
7.48
10.53
13.77
16.98
19.80
21.81
22.65
22.20
20.71
18.71
16.81
15.43
14.71
14.46
14.39
14.21
13.77
13.01
11.97
10.74
9.41
8.04
6.70
5.37
3.96
2.35
0.38
-2.02
-4.85
-7.98
-11.16
-14.08
-16.41
-17.87
-18.28
-17.60
-15.94
-13.59
-10.91
-8.28
-6.04
-4.33
-3.13
-2.29
-1.60
-0.95
-0.32
0.19
0.55
0.81
1.11
1.61
2.40
3.40
4.41
5.19
5.59
5.62
5.44
5.25
5.19
5.19
5.11
4.71
3.79
2.33
0.42
-1.73
-3.85
-5.74
-7.31
-8.60
-9.75
-10.99
-12.57
-14.62
-17.14
-19.87
-22.41
-24.22
-24.85
-24.02
-21.76
-18.43
-14.61
-10.90
-7.77
-5.36
-3.61
-2.21
-0.93
0.36
1.61
2.70
3.52
4.07
4.48
4.94
5.60
6.46
7.43
8.31
8.94
9.25
9.28
9.16
9.02
8.94
8.82
8.49
7.73
6.48
4.77
2.81
0.84
-0.97
-2.52
-3.88
-5.11
-6.37
-7.74
-9.37
-11.35
-13.74
-16.48
-19.37
-22.02
-23.91
-24.54
-23.61
-21.14
-17.55
-13.44
-9.43
-5.88
-2.85
-0.18
2.32
4.71
6.87
8.66
9.99
10.97
11.82
12.73
13.79
14.91
15.91
16.66
17.11
17.35
17.48
17.58
17.61
17.48
17.02
16.15
14.87
13.32
11.78
10.46
9.54
8.89
8.28
7.36
5.93
4.01
1.80
-0.35
-2.20
-3.70
-4.99
-6.26
-7.70
-9.43
-11.42
-13.66
-16.06
-18.39
-20.23
-21.02
-20.24
-17.66
-13.51
-8.44
-3.17
1.72
6.03
9.85
13.40
16.79
19.99
22.92
25.60
28.26
31.24
34.84
39.14
43.89
48.63
52.81
55.81
57.13
56.41
53.62
49.23
44.17
39.61
36.46
34.90
34.19
33.05
30.31
25.53
19.41
13.39
9.07
7.39
8.25
10.65
13.22
14.82
14.92
13.58
11.21
8.21
4.76
0.88
-3.42
-7.79
-11.58
-13.89
-13.95
-11.45
-6.61
-0.13
7.15
14.44
21.21
27.12
32.00
35.83
38.63
40.56
41.86
42.71
43.28
43.70
44.22
45.26
47.33
50.79
55.62
61.23
66.55
70.32
71.34
68.94
63.01
54.08
43.07
31.04
18.78
6.66
-5.40
-17.66
-30.28
-43.15
-55.88
-68.13
-79.70
-90.74
-101.48
-112.00
-122.01
-130.86
-137.77
-142.07
-143.39
-141.65
-137.07
-130.09
-121.35
-111.63
-101.76
-92.46
-84.21
-77.20
-71.32
-66.20
-61.38
-56.29
-50.49
-43.71
-35.99
-27.63
-19.14
-11.04
-3.68
2.77
8.31
13.02
16.99
20.24
22.76
24.52
25.54
25.82
25.50
24.72
23.70
22.64
21.63
20.73
19.95
19.27
18.65
18.07
17.39
16.46
15.18
13.59
11.91
10.40
9.26
8.45
7.78
6.92
5.64
3.92
1.96
0.02
-1.70
-3.18
-4.46
-5.69
-7.08
-8.80
-11.03
-13.89
-17.40
-21.30
-25.08
-28.04
-29.50
-29.09
-26.79
-23.10
-18.72
-14.37
-10.51
-7.33
-4.70
-2.40
-0.23
1.85
3.76
5.37
6.61
7.54
8.34
9.20
10.23
11.36
12.39
13.06
13.28
13.10
12.70
12.27
11.85
11.35
10.67
9.78
8.81
7.97
7.37
6.93
6.42
5.57
4.24
2.54
0.70
-1.04
-2.56
-3.93
-5.32
-6.92
-8.91
-11.29
-14.02
-16.88
-19.55
-21.59
-22.59
-22.22
-20.41
-17.40
-13.67
-9.82
-6.33
-3.45
-1.23
0.49
1.89
3.13
4.22
5.18
6.01
6.80
7.71
8.87
10.32
11.95
13.52
14.75
15.47
15.67
15.49
15.17
14.86
14.59
14.25
13.65
12.67
11.32
9.78
8.33
7.24
6.65
6.47
6.45
6.19
5.34
3.75
1.46
-1.26
-4.07
-6.60
-8.58
-9.79
-10.08
-9.29
-7.43
-4.64
-1.33
2.02
5.00
7.45
9.47
11.26
12.93
14.41
15.48
15.96
15.87
15.50
15.23
15.34
15.81
16.38
16.74
16.71
16.33
15.79
15.33
15.04
14.88
14.68
14.22
13.34
11.95
10.05
7.78
5.29
2.73
0.22
-2.27
-4.77
-7.38
-10.14
-13.11
-16.25
-19.39
-22.21
-24.25
-24.95
-23.91
-21.11
-16.94
-12.12
-7.47
-3.55
-0.55
1.69
3.49
5.09
6.51
7.61
8.25
8.41
8.31
8.27
8.61
9.40
10.44
11.42
12.04
12.21
12.14
12.13
12.41
12.99
13.61
13.90
13.58
12.52
10.85
8.78
6.57
4.40
2.42
0.70
-0.70
-1.77
-2.62
-3.38
-4.28
-5.55
-7.37
-9.78
-12.62
-15.47
-17.70
-18.65
-17.84
-15.25
-11.32
-6.87
-2.80
0.25
2.07
2.94
3.36
3.84
4.66
5.85
7.28
8.77
10.23
11.65
12.98
14.18
15.10
15.64
15.83
15.71
15.46
15.16
14.80
14.29
13.53
12.44
11.00
9.31
7.48
5.66
3.98
2.48
1.16
-0.06
-1.34
-2.80
-4.41
-6.12
-7.78
-9.36
-11.00
-13.01
-15.69
-19.19
-23.27
-27.36
-30.68
-32.52
-32.45
-30.49
-27.09
-22.96
-18.82
-15.18
-12.26
-9.96
-8.01
-6.10
-4.02
-1.69
0.88
3.60
6.37
9.02
11.39
13.25
14.48
15.03
15.09
14.98
15.02
15.44
16.21
17.09
17.77
17.92
17.41
16.34
14.98
13.58
12.30
11.14
10.00
8.74
7.28
5.62
3.87
2.07
0.33
-1.30
-2.78
-4.04
-5.07
-5.95
-6.89
-8.13
-9.95
-12.46
-15.59
-19.03
-22.24
-24.67
-25.80
-25.39
-23.50
-20.49
-16.87
-13.17
-9.78
-6.90
-4.55
-2.64
-1.05
0.37
1.75
3.22
4.88
6.70
8.54
10.18
11.40
12.10
12.33
12.32
12.30
12.49
12.93
13.52
14.07
14.39
14.36
14.00
13.38
12.59
11.70
10.74
9.77
8.88
8.18
7.78
7.75
7.99
8.25
8.22
7.63
6.38
4.60
2.61
0.75
-0.72
-1.78
-2.65
-3.65
-5.09
-7.18
-9.93
-13.21
-16.66
-19.81
-22.10
-23.04
-22.35
-20.10
-16.73
-12.95
-9.48
-6.79
-4.96
-3.75
-2.75
-1.64
-0.30
1.17
2.64
4.01
5.27
6.47
7.65
8.78
9.77
10.56
11.16
11.63
12.07
12.49
12.81
12.91
12.70
12.17
11.36
10.39
9.32
8.23
7.13
6.07
5.04
4.03
2.98
1.83
0.54
-0.88
-2.32
-3.69
-4.89
-5.83
-6.48
-6.84
-6.99
-7.12
-7.51
-8.45
-10.15
-12.63
-15.66
-18.80
-21.47
-23.14
-23.44
-22.28
-19.88
-16.66
-13.12
-9.75
-6.84
-4.55
-2.85
-1.61
-0.64
0.28
1.30
2.48
3.74
4.92
5.85
6.47
6.80
7.07
7.45
8.06
8.86
9.69
10.35
10.73
10.81
10.69
10.42
10.07
9.53
8.70
7.52
6.06
4.52
3.15
2.11
1.42
0.94
0.47
-0.16
-1.00
-2.04
-3.21
-4.47
-5.85
-7.41
-9.21
-11.28
-13.55
-15.95
-18.38
-20.83
-23.31
-25.82
-28.30
-30.51
-32.08
-32.64
-31.97
-30.12
-27.45
-24.47
-21.69
-19.37
-17.47
-15.73
-13.88
-11.75
-9.43
-7.16
-5.24
-3.91
-3.17
-2.98
-3.12
-3.39
-3.50
-3.14
-2.05
-0.03
2.84
6.23
9.59
12.32
13.99
14.42
13.72
12.24
10.40
8.61
7.14
6.10
5.41
4.91
4.34
3.55
2.39
0.86
-1.03
-3.20
-5.53
-7.80
-9.71
-11.07
-11.83
-12.21
-12.61
-13.41
-14.78
-16.63
-18.53
-19.94
-20.38
-19.55
-17.36
-13.97
-9.66
-4.83
0.08
4.68
8.70
12.02
14.73
17.04
19.15
21.26
23.37
25.40
27.15
28.45
29.20
29.48
29.43
29.20
28.87
28.38
27.61
26.48
25.02
23.38
21.76
20.25
18.82
17.37
15.78
14.09
12.48
11.14
10.18
9.43
8.54
7.14
5.00
2.18
-1.01
-4.17
-6.99
-9.40
-11.56
-13.72
-16.09
-18.74
-21.54
-24.18
-26.31
-27.54
-27.56
-26.22
-23.62
-20.06
-16.10
-12.24
-8.88
-6.23
-4.26
-2.79
-1.58
-0.43
0.77
2.04
3.29
4.42
5.33
5.98
6.38
6.61
6.77
7.01
7.46
8.26
9.44
10.93
12.51
13.87
14.71
14.83
14.22
13.05
11.55
9.95
8.40
6.99
5.81
4.94
4.41
4.17
3.97
3.53
2.50
0.71
-1.89
-5.18
-8.97
-13.03
-17.05
-20.65
-23.34
-24.63
-24.22
-22.11
-18.67
-14.48
-10.16
-6.20
-2.90
-0.33
1.61
3.13
4.51
5.98
7.59
9.24
10.68
11.65
12.03
11.94
11.64
11.40
11.40
11.62
11.96
12.31
12.64
12.97
13.35
13.71
13.97
13.98
13.66
12.98
11.98
10.72
9.24
7.58
5.74
3.71
1.51
-0.79
-3.14
-5.52
-8.03
-10.83
-14.12
-17.99
-22.28
-26.58
-30.26
-32.68
-33.38
-32.24
-29.48
-25.60
-21.20
-16.84
-12.90
-9.61
-6.95
-4.79
-2.85
-0.90
1.20
3.41
5.57
7.47
8.96
10.00
10.72
11.32
11.97
12.76
13.68
14.61
15.35
15.79
15.84
15.54
14.98
14.23
13.36
12.34
11.17
9.79
8.24
6.54
4.73
2.80
0.78
-1.35
-3.56
-5.75
-7.86
-9.90
-11.96
-14.25
-16.94
-20.05
-23.32
-26.25
-28.17
-28.50
-27.02
-23.88
-19.63
-14.90
-10.30
-6.22
-2.86
-0.21
1.87
3.63
5.35
7.24
9.38
11.61
13.65
15.28
16.46
17.30
18.00
18.74
19.46
20.01
20.20
19.93
19.27
18.36
17.35
16.31
15.24
14.13
12.95
11.68
10.32
8.84
7.20
5.46
3.70
2.03
0.54
-0.72
-1.87
-3.09
-4.63
-6.70
-9.39
-12.56
-15.85
-18.70
-20.54
-20.92
-19.63
-16.78
-12.82
-8.37
-4.09
-0.51
2.18
4.04
5.45
6.78
8.31
10.05
11.83
13.38
14.54
15.35
15.99
16.69
17.55
18.52
19.45
20.16
20.54
20.56
20.31
19.90
19.38
18.79
18.09
17.20
16.06
14.66
13.10
11.50
9.91
8.30
6.58
4.64
2.51
0.32
-1.73
-3.49
-4.95
-6.30
-7.87
-9.94
-12.70
-16.06
-19.64
-22.81
-24.81
-25.04
-23.26
-19.73
-15.11
-10.32
-6.02
-2.61
-0.08
1.87
3.50
5.09
6.71
8.39
10.07
11.72
13.23
14.50
15.43
15.96
16.17
16.17
16.14
16.16
16.28
16.46
16.62
16.67
16.51
16.07
15.35
14.39
13.27
12.16
11.11
10.16
9.22
8.10
6.65
4.80
2.64
0.36
-1.77
-3.59
-5.09
-6.40
-7.73
-9.26
-11.11
-13.35
-15.96
-18.85
-21.74
-24.15
-25.51
-25.30
-23.32
-19.85
-15.58
-11.34
-7.78
-5.14
-3.22
-1.64
-0.10
1.49
3.02
4.34
5.43
6.41
7.42
8.52
9.57
10.37
10.71
10.57
10.13
9.74
9.65
9.98
10.62
11.29
11.71
11.65
11.02
9.92
8.52
7.04
5.65
4.48
3.53
2.77
2.07
1.32
0.43
-0.61
-1.76
-2.92
-4.01
-4.99
-5.91
-6.88
-8.05
-9.55
-11.46
-13.74
-16.21
-18.51
-20.23
-20.89
-20.28
-18.41
-15.60
-12.33
-9.11
-6.36
-4.25
-2.81
-1.80
-0.94
0.08
1.38
2.91
4.42
5.62
6.34
6.56
6.50
6.42
6.52
6.85
7.40
8.02
8.65
9.19
9.58
9.71
9.45
8.71
7.54
6.05
4.44
2.92
1.65
0.71
0.07
-0.41
-0.91
-1.64
-2.68
-4.01
-5.44
-6.73
-7.68
-8.23
-8.50
-8.74
-9.28
-10.41
-12.25
-14.66
-17.31
-19.63
-21.03
-21.09
-19.66
-17.03
-13.73
-10.37
-7.42
-5.09
-3.40
-2.17
-1.26
-0.54
0.05
0.59
1.15
1.79
2.56
3.43
4.35
5.25
6.06
6.69
7.05
7.11
6.84
6.38
5.87
5.52
5.41
5.54
5.77
5.87
5.66
5.07
4.17
3.10
2.04
1.09
0.26
-0.50
-1.22
-1.95
-2.70
-3.45
-4.21
-4.97
-5.79
-6.68
-7.67
-8.80
-10.13
-11.76
-13.72
-15.99
-18.38
-20.55
-22.12
-22.73
-22.20
-20.63
-18.23
-15.35
-12.35
-9.44
-6.77
-4.42
-2.46
-0.94
0.16
0.95
1.57
2.20
2.94
3.82
4.79
5.71
6.54
7.22
7.75
8.09
8.23
8.11
7.72
7.10
6.37
5.66
5.10
4.74
4.59
4.59
4.61
4.53
4.26
3.80
3.13
2.32
1.42
0.44
-0.60
-1.65
-2.65
-3.48
-4.04
-4.33
-4.46
-4.67
-5.25
-6.38
-8.14
-10.47
-13.16
-15.96
-18.52
-20.49
-21.51
-21.38
-20.04
-17.70
-14.72
-11.57
-8.70
-6.39
-4.70
-3.55
-2.72
-2.03
-1.32
-0.59
0.14
0.87
1.60
2.36
3.17
4.02
4.83
5.56
6.20
6.81
7.45
8.11
8.74
9.21
9.46
9.43
9.14
8.60
7.83
6.83
5.70
4.59
3.61
2.84
2.22
1.58
0.74
-0.42
-1.82
-3.29
-4.59
-5.60
-6.37
-7.06
-7.88
-8.98
-10.44
-12.23
-14.23
-16.26
-18.09
-19.39
-19.87
-19.26
-17.50
-14.75
-11.35
-7.75
-4.37
-1.57
0.48
1.76
2.45
2.83
3.25
3.95
4.99
6.24
7.43
8.36
8.95
9.29
9.54
9.76
9.92
9.95
9.81
9.56
9.32
9.15
8.99
8.72
8.18
7.31
6.18
4.98
3.90
3.07
2.51
2.10
1.62
0.85
-0.37
-2.05
-4.03
-6.05
-7.81
-9.13
-9.98
-10.56
-11.13
-12.00
-13.46
-15.65
-18.47
-21.54
-24.22
-25.81
-25.83
-24.14
-21.05
-17.16
-13.14
-9.52
-6.60
-4.49
-3.14
-2.42
-2.03
-1.61
-0.82
0.56
2.43
4.50
6.35
7.69
8.40
8.57
8.38
8.06
7.78
7.71
7.97
8.64
9.63
10.75
11.67
12.08
11.80
10.85
9.40
7.75
6.13
4.69
3.43
2.30
1.24
0.20
-0.79
-1.76
-2.78
-4.01
-5.62
-7.72
-10.30
-13.23
-16.32
-19.29
-21.80
-23.42
-23.73
-22.44
-19.64
-15.81
-11.67
-7.91
-4.96
-2.86
-1.29
0.06
1.39
2.73
3.99
5.14
6.22
7.29
8.34
9.28
9.97
10.42
10.73
11.11
11.69
12.51
13.43
14.22
14.62
14.47
13.69
12.30
10.43
8.27
6.03
3.86
1.86
0.03
-1.61
-3.03
-4.21
-5.17
-6.06
-7.16
-8.81
-11.25
-14.49
-18.24
-21.87
-24.65
-25.93
-25.35
-23.00
-19.36
-15.12
-10.99
-7.42
-4.56
-2.33
-0.49
1.14
2.69
4.25
5.90
7.69
9.60
11.53
13.30
14.72
15.69
16.32
16.75
17.17
17.62
18.08
18.40
18.44
18.07
17.29
16.15
14.75
13.24
11.71
10.23
8.74
7.12
5.29
3.25
1.13
-0.89
-2.66
-4.20
-5.68
-7.38
-9.60
-12.52
-16.16
-20.37
-24.78
-28.81
-31.82
-33.23
-32.68
-30.20
-26.18
-21.26
-16.11
-11.30
-7.14
-3.71
-0.88
1.59
3.94
6.38
8.97
11.63
14.20
16.51
18.45
20.01
21.27
22.31
23.19
23.93
24.53
24.96
25.22
25.33
25.30
25.13
24.71
23.96
22.75
21.12
19.21
17.28
15.56
14.15
12.94
11.65
9.98
7.76
5.10
2.27
-0.34
-2.47
-4.04
-5.23
-6.38
-7.92
-10.24
-13.53
-17.76
-22.54
-27.19
-30.92
-33.03
-33.13
-31.24
-27.75
-23.26
-18.42
-13.72
-9.42
-5.64
-2.33
0.67
3.50
6.32
9.24
12.16
14.93
17.29
19.05
20.19
20.90
21.48
22.19
23.17
24.36
25.59
26.70
27.59
28.23
28.57
28.53
28.03
26.98
25.45
23.57
21.53
19.52
17.62
15.82
14.08
12.37
10.62
8.78
6.84
4.77
2.67
0.64
-1.18
-2.70
-3.96
-5.08
-6.26
-7.74
-9.80
-12.65
-16.37
-20.78
-25.37
-29.42
-32.10
-32.80
-31.31
-27.89
-23.17
-17.93
-12.96
-8.78
-5.66
-3.56
-2.18
-1.04
0.36
2.35
4.98
7.98
10.97
13.54
15.39
16.43
16.75
16.59
16.18
15.80
15.68
15.99
16.68
17.61
18.41
18.70
18.16
16.72
14.58
12.17
10.00
8.47
7.70
7.53
7.60
7.48
6.88
5.72
4.04
2.03
-0.08
-2.11
-3.97
-5.64
-7.32
-9.27
-11.75
-14.88
-18.48
-22.01
-24.73
-25.94
-25.22
-22.55
-18.43
-13.59
-8.85
-4.77
-1.59
0.80
2.76
4.64
6.68
8.86
11.01
12.90
14.41
15.51
16.29
16.89
17.34
17.65
17.79
17.73
17.51
17.16
16.75
16.31
15.85
15.30
14.59
13.63
12.40
10.98
9.56
8.36
7.49
6.85
6.12
4.91
2.97
0.37
-2.54
-5.27
-7.44
-8.99
-10.17
-11.40
-13.07
-15.41
-18.41
-21.83
-25.35
-28.48
-30.76
-31.76
-31.17
-28.94
-25.30
-20.74
-15.88
-11.34
-7.53
-4.57
-2.33
-0.44
1.44
3.59
6.02
8.58
11.02
13.11
14.75
15.98
16.93
17.73
18.38
18.86
19.16
19.29
19.43
19.73
20.21
20.81
21.23
21.20
20.50
19.11
17.20
15.04
12.90
10.97
9.33
7.93
6.66
5.31
3.73
1.84
-0.30
-2.49
-4.49
-6.17
-7.56
-8.82
-10.18
-11.80
-13.75
-16.03
-18.60
-21.43
-24.40
-27.21
-29.42
-30.47
-29.93
-27.73
-24.15
-19.83
-15.44
-11.58
-8.49
-6.14
-4.34
-2.82
-1.35
0.25
2.09
4.16
6.38
8.55
10.44
11.94
13.06
14.00
14.97
16.02
17.09
17.93
18.37
18.35
18.01
17.54
17.08
16.63
16.07
15.34
14.43
13.48
12.57
11.70
10.77
9.63
8.20
6.54
4.82
3.19
1.66
0.15
-1.49
-3.31
-5.17
-6.84
-8.15
-9.07
-9.83
-10.78
-12.30
-14.64
-17.80
-21.54
-25.46
-29.03
-31.67
-32.84
-32.16
-29.57
-25.40
-20.30
-15.13
-10.64
-7.26
-5.00
-3.47
-2.22
-0.86
0.71
2.42
4.12
5.73
7.31
8.90
10.49
11.91
12.97
13.50
13.46
13.04
12.48
12.04
11.86
11.90
11.99
11.96
11.64
11.02
10.21
9.33
8.49
7.67
6.80
5.77
4.54
3.18
1.78
0.46
-0.74
-1.86
-2.95
-4.04
-5.13
-6.25
-7.48
-8.97
-10.89
-13.39
-16.47
-19.92
-23.30
-26.03
-27.50
-27.31
-25.39
-22.05
-17.86
-13.47
-9.46
-6.19
-3.82
-2.32
-1.54
-1.23
-1.11
-0.94
-0.55
0.03
0.66
1.16
1.49
1.71
2.01
2.54
3.29
4.09
4.67
4.82
4.46
3.63
2.44
1.04
-0.41
-1.73
-2.69
-3.01
-2.53
-1.33
0.27
1.70
2.36
1.91
0.33
-2.06
-4.81
-7.51
-9.91
-11.91
-13.48
-14.66
-15.51
-16.15
-16.74
-17.36
-17.90
-18.06
-17.44
-15.84
-13.30
-10.15
-6.84
-3.80
-1.29
0.60
1.83
2.46
2.55
2.25
1.74
1.16
0.67
0.33
0.25
0.50
1.17
2.28
3.68
5.16
6.45
7.41
7.99
8.29
8.42
8.51
8.60
8.70
8.82
8.98
9.29
9.84
10.69
11.73
12.68
13.17
12.90
11.78
9.97
7.87
5.80
4.01
2.60
1.65
1.35
1.92
3.53
6.11
9.25
12.34
14.83
16.43
17.21
17.47
17.52
17.55
17.55
17.42
17.05
16.47
15.86
15.49
15.56
16.09
16.88
17.58
17.84
17.45
16.46
15.01
13.26
11.24
8.93
6.33
3.62
1.08
-1.02
-2.58
-3.72
-4.73
-5.84
-7.18
-8.75
-10.59
-12.78
-15.36
-18.24
-21.00
-23.00
-23.57
-22.36
-19.44
-15.34
-10.82
-6.58
-3.07
-0.43
1.40
2.63
3.46
4.07
4.55
4.96
5.33
5.66
5.98
6.31
6.68
7.06
7.34
7.43
7.23
6.76
6.12
5.53
5.18
5.13
5.30
5.42
5.16
4.26
2.63
0.47
-1.87
-4.05
-5.85
-7.31
-8.60
-9.97
-11.60
-13.56
-15.86
-18.47
-21.24
-23.93
-26.10
-27.24
-26.93
-25.10
-22.07
-18.44
-14.87
-11.85
-9.50
-7.64
-6.04
-4.48
-2.91
-1.36
0.14
1.64
3.21
4.90
6.65
8.36
9.82
10.92
11.57
11.83
11.80
11.62
11.42
11.25
11.12
10.96
10.65
10.05
9.02
7.51
5.54
3.27
0.95
-1.17
-2.90
-4.20
-5.16
-6.00
-7.02
-8.51
-10.68
-13.62
-17.15
-20.80
-23.89
-25.69
-25.63
-23.58
-19.87
-15.21
-10.43
-6.17
-2.78
-0.26
1.59
3.04
4.29
5.50
6.74
8.07
9.48
10.94
12.36
13.64
14.68
15.47
16.08
16.64
17.27
18.01
18.78
19.35
19.50
19.00
17.80
15.96
13.67
11.20
8.81
6.64
4.77
3.19
1.78
0.49
-0.75
-1.89
-2.88
-3.70
-4.42
-5.23
-6.37
-8.05
-10.39
-13.38
-16.79
-20.24
-23.18
-25.08
-25.50
-24.31
-21.73
-18.24
-14.44
-10.81
-7.66
-5.08
-3.00
-1.30
0.13
1.39
2.56
3.70
4.83
5.86
6.69
7.26
7.62
7.93
8.35
8.99
9.75
10.47
10.93
11.01
10.76
10.34
9.90
9.48
9.04
8.40
7.43
6.12
4.52
2.81
1.16
-0.29
-1.49
-2.44
-3.20
-3.89
-4.61
-5.45
-6.56
-8.00
-9.77
-11.73
-13.57
-14.87
-15.24
-14.48
-12.65
-10.11
-7.29
-4.60
-2.28
-0.33
1.37
2.95
4.49
5.94
7.16
8.02
8.43
8.42
8.12
7.74
7.47
7.43
7.62
7.91
8.20
8.42
8.57
8.69
8.77
8.72
8.44
7.86
6.95
5.83
4.59
3.36
2.15
0.90
-0.47
-2.05
-3.76
-5.47
-6.94
-7.98
-8.49
-8.52
-8.34
-8.31
-8.85
-10.20
-12.31
-14.78
-17.02
-18.37
-18.43
-17.13
-14.73
-11.73
-8.64
-5.84
-3.52
-1.80
-0.63
0.05
0.44
0.79
1.36
2.33
3.66
5.10
6.33
7.13
7.45
7.45
7.35
7.32
7.43
7.65
7.90
8.13
8.34
8.45
8.40
8.09
7.43
6.47
5.32
4.18
3.22
2.48
1.87
1.24
0.46
-0.51
-1.62
-2.78
-3.93
-5.14
-6.49
-8.12
-10.11
-12.43
-14.92
-17.26
-19.09
-20.02
-19.81
-18.40
-15.98
-12.95
-9.79
-6.92
-4.57
-2.78
-1.45
-0.42
0.47
1.31
2.13
2.94
3.73
4.45
5.08
5.60
5.98
6.23
6.38
6.48
6.57
6.65
6.74
6.80
6.79
6.71
6.54
6.29
5.94
5.49
4.88
4.11
3.16
2.07
0.87
-0.37
-1.58
-2.68
-3.61
-4.37
-5.09
-5.96
-7.21
-8.97
-11.18
-13.58
-15.74
-17.14
-17.38
-16.25
-13.90
-10.78
-7.48
-4.62
-2.57
-1.36
-0.71
-0.25
0.39
1.35
2.53
3.75
4.78
5.51
5.93
6.12
6.20
6.26
6.37
6.52
6.66
6.72
6.62
6.36
5.92
5.38
4.75
4.01
3.14
2.16
1.16
0.27
-0.42
-0.91
-1.30
-1.75
-2.39
-3.24
-4.21
-5.12
-5.84
-6.30
-6.62
-6.99
-7.71
-9.06
-11.17
-13.91
-16.86
-19.44
-21.10
-21.46
-20.45
-18.26
-15.26
-11.88
-8.55
-5.64
-3.43
-1.97
-1.10
-0.45
0.38
1.64
3.32
5.16
6.81
8.02
8.71
8.95
8.85
8.53
8.12
7.76
7.60
7.73
8.13
8.66
9.11
9.28
9.08
8.54
7.75
6.83
5.85
4.85
3.84
2.78
1.66
0.48
-0.75
-1.97
-3.16
-4.25
-5.26
-6.20
-7.15
-8.17
-9.34
-10.78
-12.57
-14.78
-17.30
-19.84
-21.96
-23.16
-23.06
-21.56
-18.91
-15.58
-12.16
-9.16
-6.84
-5.23
-4.14
-3.26
-2.28
-0.99
0.66
2.55
4.42
6.03
7.12
7.66
7.72
7.57
7.45
7.61
8.11
8.87
9.67
10.30
10.59
10.50
10.11
9.51
8.83
8.09
7.29
6.38
5.29
3.99
2.50
0.88
-0.75
-2.23
-3.43
-4.27
-4.79
-5.20
-5.78
-6.91
-8.83
-11.60
-14.97
-18.41
-21.19
-22.66
-22.44
-20.57
-17.48
-13.83
-10.24
-7.19
-4.85
-3.16
-1.91
-0.88
0.07
1.00
1.90
2.74
3.53
4.35
5.25
6.23
7.23
8.11
8.75
9.15
9.42
9.65
9.93
10.18
10.24
10.00
9.36
8.42
7.27
6.00
4.67
3.31
1.97
0.73
-0.40
-1.43
-2.47
-3.67
-5.17
-7.03
-9.27
-11.80
-14.52
-17.24
-19.68
-21.48
-22.26
-21.72
-19.84
-16.85
-13.25
-9.61
-6.42
-3.88
-1.94
-0.37
1.09
2.54
3.89
4.97
5.64
5.91
6.00
6.21
6.76
7.65
8.69
9.63
10.22
10.44
10.41
10.37
10.51
10.85
11.25
11.42
11.04
9.90
8.02
5.62
3.06
0.70
-1.30
-2.97
-4.46
-5.99
-7.68
-9.56
-11.64
-13.90
-16.34
-18.81
-20.98
-22.34
-22.35
-20.73
-17.52
-13.21
-8.47
-3.98
-0.25
2.51
4.32
5.38
6.00
6.45
6.90
7.41
7.96
8.48
9.01
9.63
10.43
11.43
12.53
13.52
14.24
14.60
14.67
14.58
14.39
14.07
13.49
12.51
11.09
9.31
7.38
5.49
3.80
2.35
1.09
-0.19
-1.73
-3.82
-6.67
-10.29
-14.44
-18.60
-22.07
-24.21
-24.61
-23.20
-20.29
-16.47
-12.35
-8.44
-4.99
-2.05
0.49
2.79
4.99
7.20
9.45
11.71
13.88
15.76
17.20
18.10
18.48
18.50
18.41
18.34
18.38
18.44
18.39
18.14
17.63
16.89
15.98
14.95
13.81
12.50
10.94
9.07
6.93
4.60
2.19
-0.18
-2.51
-4.83
-7.25
-9.86
-12.77
-16.02
-19.58
-23.28
-26.75
-29.46
-30.81
-30.29
-27.79
-23.59
-18.32
-12.73
-7.50
-3.06
0.42
3.02
5.02
6.82
8.80
11.22
14.04
16.97
19.54
21.35
22.26
22.44
22.25
22.01
21.91
21.92
21.90
21.78
21.55
21.24
20.90
20.46
19.86
18.99
17.83
16.37
14.63
12.62
10.36
7.92
5.43
3.03
0.87
-1.02
-2.79
-4.64
-6.90
-9.84
-13.57
-17.94
-22.52
-26.65
-29.58
-30.72
-29.76
-26.83
-22.43
-17.28
-12.14
-7.61
-4.00
-1.28
0.82
2.68
4.66
6.97
9.61
12.42
15.13
17.50
19.37
20.71
21.59
22.13
22.47
22.69
22.84
22.98
23.15
23.38
23.64
23.83
23.79
23.37
22.43
20.98
19.13
17.04
14.85
12.66
10.50
8.39
6.29
4.27
2.38
0.70
-0.75
-2.03
-3.32
-4.85
-6.82
-9.37
-12.49
-16.11
-20.02
-23.99
-27.64
-30.49
-32.01
-31.76
-29.60
-25.78
-20.95
-15.92
-11.41
-7.84
-5.21
-3.23
-1.46
0.50
2.93
5.84
9.05
12.18
14.76
16.47
17.18
17.09
16.55
16.02
15.82
16.02
16.55
17.20
17.81
18.30
18.67
18.88
18.85
18.44
17.57
16.30
14.77
13.14
11.58
10.14
8.85
7.69
6.67
5.70
4.71
3.49
1.90
-0.12
-2.45
-4.84
-7.04
-8.91
-10.54
-12.20
-14.26
-16.95
-20.35
-24.20
-28.00
-31.15
-33.06
-33.33
-31.85
-28.83
-24.72
-20.11
-15.66
-11.82
-8.81
-6.56
-4.78
-3.12
-1.34
0.58
2.54
4.33
5.90
7.34
8.81
10.46
12.27
14.12
15.86
17.36
18.63
19.72
20.65
21.45
22.03
22.20
21.80
20.71
18.99
16.90
14.81
13.07
11.87
11.13
10.51
9.67
8.36
6.54
4.38
2.14
0.07
-1.62
-2.85
-3.68
-4.30
-5.01
-6.16
-8.02
-10.64
-13.91
-17.54
-21.14
-24.25
-26.40
-27.14
-26.20
-23.54
-19.55
-14.88
-10.37
-6.70
-4.22
-2.86
-2.24
-1.87
-1.31
-0.33
1.08
2.74
4.45
5.98
7.22
8.18
8.93
9.59
10.26
11.03
11.92
12.93
13.96
14.90
15.57
15.77
15.36
14.31
12.70
10.73
8.69
6.80
5.24
4.03
3.08
2.23
1.29
0.14
-1.27
-2.93
-4.79
-6.73
-8.64
-10.42
-12.03
-13.56
-15.24
-17.27
-19.82
-22.79
-25.79
-28.24
-29.50
-29.11
-26.98
-23.40
-18.93
-14.26
-9.99
-6.49
-3.88
-2.06
-0.83
0.09
0.87
1.67
2.54
3.53
4.59
5.67
6.69
7.49
8.05
8.35
8.50
8.67
9.00
9.56
10.24
10.89
11.30
11.32
10.89
10.08
9.02
7.87
6.71
5.57
4.31
2.77
0.89
-1.26
-3.46
-5.40
-6.89
-7.96
-8.87
-9.98
-11.59
-13.81
-16.56
-19.61
-22.68
-25.35
-27.18
-27.67
-26.40
-23.35
-18.86
-13.71
-8.79
-4.80
-2.05
-0.34
0.75
1.75
3.02
4.66
6.56
8.43
9.94
10.86
11.18
11.08
10.93
11.05
11.56
12.40
13.26
13.79
13.78
13.19
12.13
10.75
9.21
7.57
5.89
4.24
2.73
1.41
0.32
-0.68
-1.75
-3.07
-4.76
-6.80
-9.06
-11.39
-13.71
-16.02
-18.49
-21.20
-24.08
-26.78
-28.77
-29.49
-28.62
-26.22
-22.67
-18.60
-14.61
-11.10
-8.20
-5.76
-3.57
-1.41
0.81
3.03
5.12
6.89
8.27
9.33
10.20
11.05
11.97
12.89
13.66
14.17
14.40
14.44
14.45
14.51
14.55
14.38
13.82
12.75
11.26
9.52
7.70
5.91
4.12
2.28
0.39
-1.45
-3.12
-4.50
-5.63
-6.66
-7.89
-9.60
-12.02
-15.22
-18.96
-22.84
-26.18
-28.30
-28.73
-27.26
-24.13
-19.85
-15.10
-10.51
-6.49
-3.22
-0.61
1.55
3.56
5.58
7.68
9.72
11.49
12.85
13.73
14.23
14.49
14.69
14.93
15.26
15.69
16.20
16.72
17.08
17.13
16.72
15.86
14.67
13.33
11.99
10.68
9.33
7.87
6.30
4.70
3.16
1.73
0.33
-1.19
-3.02
-5.28
-8.01
-11.24
-14.96
-19.07
-23.29
-27.12
-29.86
-30.86
-29.73
-26.54
-21.88
-16.57
-11.45
-7.07
-3.60
-0.92
1.21
3.02
4.65
6.17
7.60
8.93
10.13
11.18
12.07
12.86
13.62
14.43
15.30
16.14
16.83
17.24
17.37
17.25
16.90
16.31
15.38
14.06
12.34
10.34
8.27
6.29
4.48
2.77
1.10
-0.59
-2.27
-3.91
-5.50
-7.18
-9.16
-11.61
-14.54
-17.69
-20.53
-22.48
-23.00
-21.82
-19.06
-15.10
-10.51
-5.89
-1.68
1.83
4.57
6.65
8.26
9.59
10.74
11.71
12.40
12.71
12.66
12.37
12.08
11.97
12.11
12.41
12.70
12.84
12.76
12.49
12.05
11.45
10.58
9.33
7.64
5.60
3.38
1.21
-0.67
-2.16
-3.25
-4.06
-4.82
-5.78
-7.20
-9.27
-12.06
-15.41
-18.98
-22.20
-24.39
-24.97
-23.70
-20.72
-16.62
-12.11
-7.82
-4.11
-0.98
1.77
4.38
6.96
9.44
11.63
13.31
14.38
14.81
14.75
14.41
14.03
13.80
13.80
13.98
14.30
14.69
15.10
15.51
15.82
15.85
15.41
14.39
12.76
10.69
8.43
6.24
4.34
2.82
1.66
0.69
-0.30
-1.61
-3.51
-6.13
-9.49
-13.33
-17.30
-20.91
-23.63
-24.97
-24.60
-22.46
-18.84
-14.37
-9.79
-5.75
-2.60
-0.33
1.40
2.97
4.67
6.57
8.57
10.49
12.16
13.49
14.51
15.27
15.83
16.27
16.63
16.98
17.33
17.67
17.95
18.06
17.91
17.42
16.53
15.31
13.87
12.32
10.73
9.10
7.36
5.46
3.42
1.30
-0.81
-2.83
-4.74
-6.60
-8.49
-10.55
-12.96
-15.83
-19.20
-22.81
-26.15
-28.51
-29.22
-27.98
-24.97
-20.87
-16.50
-12.59
-9.42
-6.92
-4.77
-2.68
-0.48
1.79
4.03
6.14
8.08
9.87
11.53
13.00
14.19
15.01
15.50
15.78
16.10
16.62
17.35
18.10
18.55
18.39
17.52
16.05
14.29
12.58
11.16
10.16
9.48
8.94
8.30
7.34
5.88
3.89
1.46
-1.09
-3.37
-5.07
-6.08
-6.56
-6.94
-7.72
-9.31
-11.91
-15.41
-19.42
-23.30
-26.30
-27.73
-27.13
-24.47
-20.21
-15.20
-10.38
-6.54
-4.02
-2.68
-2.03
-1.47
-0.49
1.16
3.47
6.20
9.00
11.52
13.44
14.60
14.94
14.59
13.79
12.87
12.17
11.90
12.08
12.56
13.03
13.17
12.85
12.03
10.85
9.47
8.04
6.65
5.39
4.33
3.53
2.90
2.28
1.45
0.19
-1.54
-3.61
-5.79
-7.86
-9.75
-11.52
-13.35
-15.44
-17.91
-20.62
-23.27
-25.35
-26.33
-25.82
-23.71
-20.26
-16.04
-11.74
-8.00
-5.19
-3.35
-2.21
-1.39
-0.51
0.66
2.10
3.64
5.03
6.08
6.74
7.05
7.12
7.08
7.06
7.16
7.46
7.99
8.65
9.24
9.53
9.36
8.73
7.79
6.76
5.83
5.04
4.38
3.70
2.85
1.73
0.26
-1.59
-3.74
-5.97
-7.94
-9.37
-10.14
-10.42
-10.63
-11.29
-12.78
-15.22
-18.40
-21.78
-24.69
-26.54
-26.92
-25.72
-23.20
-19.83
-16.19
-12.78
-9.86
-7.49
-5.50
-3.63
-1.61
0.71
3.30
5.97
8.37
10.22
11.31
11.67
11.56
11.30
11.19
11.40
11.96
12.72
13.54
14.19
14.54
14.45
13.89
12.87
11.55
10.06
8.54
7.10
5.77
4.58
3.53
2.56
1.60
0.59
-0.53
-1.76
-3.06
-4.42
-5.84
-7.40
-9.24
-11.40
-13.89
-16.54
-19.01
-20.91
-21.80
-21.40
-19.64
-16.76
-13.29
-9.80
-6.81
-4.56
-3.04
-1.98
-1.08
-0.08
1.09
2.41
3.76
4.98
6.01
6.84
7.53
8.18
8.80
9.38
9.85
10.10
10.15
10.03
9.80
9.52
9.15
8.66
8.05
7.43
6.91
6.54
6.24
5.84
5.10
3.90
2.25
0.34
-1.57
-3.26
-4.62
-5.72
-6.79
-8.10
-9.84
-12.05
-14.55
-17.07
-19.31
-21.00
-21.97
-22.06
-21.21
-19.49
-17.14
-14.53
-12.02
-9.84
-7.93
-6.05
-3.92
-1.46
1.19
3.70
5.71
7.05
7.76
8.06
8.21
8.41
8.73
9.14
9.56
9.95
10.30
10.61
10.83
10.87
10.61
9.96
8.95
7.70
6.43
5.36
4.66
4.39
4.45
4.58
4.44
3.74
2.34
0.39
-1.72
-3.53
-4.82
-5.66
-6.47
-7.77
-9.97
-13.17
-17.08
-21.03
-24.28
-26.17
-26.32
-24.74
-21.82
-18.10
-14.18
-10.50
-7.26
-4.52
-2.25
-0.39
1.16
2.51
3.82
5.16
6.51
7.76
8.77
9.48
10.01
10.54
11.22
12.08
12.96
13.61
13.83
13.51
12.74
11.68
10.51
9.32
8.15
6.94
5.61
4.15
2.64
1.20
-0.00
-0.96
-1.76
-2.61
-3.67
-5.00
-6.52
-8.09
-9.64
-11.26
-13.09
-15.29
-17.75
-20.17
-21.97
-22.57
-21.66
-19.26
-15.79
-11.94
-8.42
-5.71
-3.92
-2.83
-1.97
-0.90
0.61
2.50
4.50
6.29
7.72
8.79
9.66
10.50
11.33
12.04
12.49
12.62
12.50
12.30
12.13
12.01
11.83
11.44
10.77
9.87
8.86
7.88
6.93
5.95
4.82
3.47
1.94
0.35
-1.14
-2.43
-3.51
-4.55
-5.79
-7.48
-9.81
-12.83
-16.36
-19.98
-23.12
-25.12
-25.52
-24.15
-21.32
-17.60
-13.74
-10.34
-7.62
-5.53
-3.75
-1.97
-0.04
2.05
4.19
6.30
8.28
10.08
11.59
12.70
13.33
13.54
13.50
13.47
13.61
13.95
14.41
14.77
14.84
14.50
13.71
12.53
11.06
9.46
7.88
6.48
5.33
4.38
3.52
2.54
1.33
-0.10
-1.64
-3.12
-4.48
-5.72
-7.00
-8.52
-10.47
-12.95
-15.99
-19.37
-22.72
-25.47
-27.03
-26.93
-25.07
-21.78
-17.70
-13.60
-10.04
-7.26
-5.11
-3.29
-1.44
0.60
2.88
5.26
7.60
9.75
11.57
12.96
13.92
14.46
14.71
14.84
15.01
15.28
15.66
16.05
16.36
16.51
16.47
16.21
15.68
14.84
13.67
12.26
10.74
9.29
8.02
6.90
5.75
4.36
2.59
0.48
-1.72
-3.66
-5.09
-6.06
-6.84
-7.90
-9.66
-12.35
-15.90
-19.95
-23.97
-27.35
-29.52
-30.03
-28.68
-25.59
-21.31
-16.58
-12.20
-8.68
-6.11
-4.22
-2.56
-0.79
1.19
3.26
5.25
7.06
8.70
10.25
11.73
13.08
14.20
15.06
15.70
16.23
16.74
17.25
17.70
17.95
17.88
17.40
16.50
15.24
13.75
12.20
10.75
9.50
8.39
7.25
5.90
4.22
2.22
0.09
-1.94
-3.66
-5.00
-6.03
-6.97
-8.15
-9.84
-12.25
-15.34
-18.82
-22.17
-24.69
-25.76
-25.06
-22.68
-19.12
-15.08
-11.23
-8.01
-5.50
-3.51
-1.74
0.04
1.94
3.94
5.98
8.04
10.13
12.19
14.11
15.67
16.69
17.10
17.05
16.76
16.53
16.55
16.84
17.21
17.39
17.06
16.08
14.47
12.48
10.47
8.84
7.78
7.27
7.03
6.68
5.82
4.30
2.19
-0.23
-2.65
-4.83
-6.71
-8.44
-10.31
-12.59
-15.43
-18.76
-22.22
-25.25
-27.21
-27.57
-26.11
-22.97
-18.69
-14.00
-9.59
-5.94
-3.17
-1.13
0.48
1.97
3.53
5.22
7.04
8.93
10.80
12.55
14.05
15.24
16.13
16.78
17.31
17.77
18.20
18.55
18.71
18.57
18.07
17.14
15.82
14.27
12.64
11.15
9.86
8.77
7.70
6.48
5.00
3.27
1.41
-0.48
-2.30
-4.07
-5.79
-7.50
-9.24
-11.10
-13.23
-15.79
-18.87
-22.34
-25.77
-28.53
-30.00
-29.73
-27.67
-24.15
-19.73
-15.08
-10.73
-7.02
-4.04
-1.69
0.25
2.02
3.77
5.56
7.30
8.89
10.31
11.58
12.82
14.10
15.44
16.77
17.97
18.93
19.61
19.99
20.07
19.85
19.35
18.58
17.57
16.35
14.93
13.36
11.72
10.13
8.73
7.59
6.60
5.56
4.22
2.49
0.48
-1.58
-3.39
-4.85
-6.07
-7.35
-9.02
-11.24
-14.04
-17.24
-20.54
-23.58
-25.95
-27.22
-27.04
-25.22
-21.89
-17.55
-12.90
-8.68
-5.41
-3.23
-1.87
-0.85
0.24
1.65
3.31
5.01
6.46
7.50
8.19
8.67
9.15
9.70
10.37
11.04
11.66
12.21
12.72
13.23
13.71
14.07
14.13
13.74
12.83
11.52
10.02
8.60
7.43
6.55
5.81
4.99
3.91
2.50
0.82
-0.95
-2.73
-4.52
-6.46
-8.73
-11.41
-14.39
-17.31
-19.68
-21.01
-21.00
-19.61
-17.08
-13.80
-10.21
-6.72
-3.63
-1.14
0.66
1.86
2.65
3.30
3.99
4.77
5.60
6.32
6.90
7.40
7.97
8.72
9.61
10.47
11.08
11.29
11.09
10.63
10.11
9.70
9.45
9.27
8.96
8.33
7.30
5.91
4.38
2.96
1.78
0.81
-0.04
-0.97
-2.05
-3.27
-4.65
-6.24
-8.17
-10.51
-13.09
-15.45
-16.95
-17.02
-15.43
-12.43
-8.63
-4.80
-1.54
0.88
2.54
3.69
4.59
5.41
6.18
6.84
7.38
7.85
8.35
8.99
9.78
10.58
11.22
11.50
11.41
11.06
10.72
10.54
10.60
10.76
10.74
10.30
9.29
7.72
5.73
3.54
1.35
-0.64
-2.31
-3.58
-4.48
-5.15
-5.85
-6.89
-8.52
-10.87
-13.82
-16.98
-19.81
-21.73
-22.31
-21.35
-18.99
-15.62
-11.79
-8.07
-4.91
-2.57
-1.00
0.02
0.86
1.82
3.03
4.43
5.81
6.96
7.76
8.28
8.69
9.17
9.80
10.56
11.28
11.82
12.06
12.07
11.92
11.74
11.55
11.23
10.64
9.61
8.09
6.18
4.11
2.09
0.31
-1.17
-2.43
-3.57
-4.75
-6.19
-8.01
-10.35
-13.21
-16.42
-19.69
-22.58
-24.61
-25.39
-24.69
-22.53
-19.20
-15.19
-11.04
-7.23
-4.04
-1.54
0.42
2.05
3.58
5.11
6.65
8.14
9.49
10.67
11.72
12.67
13.53
14.29
14.87
15.24
15.41
15.42
15.36
15.26
15.05
14.66
14.00
13.04
11.77
10.27
8.63
7.00
5.48
4.15
2.94
1.77
0.49
-0.93
-2.46
-3.99
-5.42
-6.74
-8.06
-9.54
-11.35
-13.58
-16.24
-19.19
-22.13
-24.62
-26.17
-26.37
-25.03
-22.31
-18.68
-14.78
-11.19
-8.27
-6.10
-4.51
-3.24
-2.02
-0.72
0.70
2.18
3.63
4.99
6.18
7.21
8.03
8.65
9.08
9.34
9.54
9.74
10.02
10.44
11.02
11.71
12.40
12.91
13.03
12.57
11.47
9.84
7.96
6.16
4.72
3.71
3.04
2.47
1.80
0.89
-0.24
-1.54
-2.91
-4.34
-5.87
-7.61
-9.69
-12.17
-15.07
-18.22
-21.34
-24.05
-25.87
-26.45
-25.62
-23.50
-20.48
-17.09
-13.85
-11.12
-9.02
-7.46
-6.19
-4.94
-3.54
-1.90
-0.07
1.83
3.64
5.28
6.75
8.04
9.18
10.14
10.85
11.28
11.45
11.43
11.39
11.41
11.47
11.49
11.28
10.72
9.75
8.46
7.03
5.66
4.52
3.62
2.91
2.28
1.56
0.72
-0.28
-1.41
-2.58
-3.81
-5.13
-6.67
-8.55
-10.85
-13.55
-16.45
-19.19
-21.26
-22.20
-21.68
-19.68
-16.54
-12.86
-9.30
-6.43
-4.46
-3.27
-2.46
-1.53
-0.19
1.63
3.72
5.76
7.44
8.61
9.25
9.42
9.18
8.70
8.10
7.64
7.52
7.85
8.50
9.25
9.75
9.70
8.99
7.69
6.08
4.45
3.07
2.06
1.35
0.79
0.17
-0.63
-1.60
-2.72
-3.89
-5.13
-6.48
-8.03
-9.81
-11.80
-13.96
-16.16
-18.27
-20.09
-21.34
-21.69
-20.89
-18.89
-15.89
-12.32
-8.70
-5.47
-2.89
-1.02
0.29
1.23
1.99
2.71
3.45
4.26
5.15
6.13
7.19
8.30
9.42
10.47
11.44
12.27
12.95
13.46
13.75
13.76
13.42
12.73
11.69
10.41
9.00
7.64
6.45
5.52
4.82
4.26
3.68
2.93
1.92
0.62
-0.91
-2.55
-4.21
-5.79
-7.26
-8.67
-10.16
-11.97
-14.31
-17.20
-20.41
-23.40
-25.51
-26.13
-25.02
-22.32
-18.57
-14.48
-10.64
-7.43
-4.92
-2.98
-1.39
0.05
1.52
3.13
4.96
7.01
9.17
11.24
12.95
14.06
14.47
14.26
13.74
13.25
13.11
13.44
14.13
14.89
15.40
15.44
14.94
13.99
12.72
11.32
9.93
8.65
7.54
6.57
5.64
4.59
3.28
1.63
-0.29
-2.30
-4.19
-5.82
-7.17
-8.30
-9.32
-10.36
-11.60
-13.22
-15.40
-18.22
-21.49
-24.78
-27.44
-28.79
-28.40
-26.19
-22.52
-18.13
-13.83
-10.27
-7.76
-6.19
-5.14
-4.10
-2.73
-0.95
1.11
3.19
5.13
6.86
8.41
9.80
10.96
11.81
12.30
12.54
12.68
12.95
13.39
13.91
14.20
13.99
13.16
11.81
10.30
9.00
8.19
7.89
7.81
7.59
6.91
5.71
4.13
2.40
0.72
-0.90
-2.58
-4.43
-6.54
-8.92
-11.60
-14.67
-18.12
-21.86
-25.46
-28.26
-29.56
-28.87
-26.17
-21.91
-16.89
-11.94
-7.72
-4.50
-2.20
-0.51
0.96
2.52
4.31
6.27
8.24
10.01
11.47
12.60
13.45
14.10
14.61
15.00
15.31
15.52
15.62
15.52
15.13
14.35
13.16
11.70
10.14
8.68
7.42
6.32
5.22
3.94
2.42
0.68
-1.10
-2.74
-4.10
-5.14
-5.93
-6.69
-7.75
-9.43
-12.02
-15.56
-19.75
-23.98
-27.35
-29.04
-28.59
-26.10
-22.15
-17.58
-13.17
-9.38
-6.36
-3.97
-2.02
-0.31
1.32
2.99
4.78
6.70
8.62
10.37
11.84
12.99
13.91
14.73
15.48
16.11
16.54
16.73
16.80
16.89
17.05
17.17
16.98
16.20
14.79
12.97
11.15
9.70
8.77
8.21
7.64
6.66
5.07
2.92
0.51
-1.82
-3.81
-5.45
-6.96
-8.71
-11.05
-14.19
-18.05
-22.29
-26.38
-29.63
-31.47
-31.48
-29.52
-25.82
-20.93
-15.64
-10.72
-6.73
-3.90
-2.04
-0.73
0.50
2.02
3.95
6.23
8.64
10.95
13.00
14.74
16.17
17.33
18.20
18.81
19.22
19.55
19.96
20.56
21.34
22.07
22.44
22.17
21.11
19.43
17.44
15.52
13.93
12.72
11.71
10.60
9.14
7.21
4.95
2.62
0.53
-1.14
-2.45
-3.72
-5.29
-7.51
-10.56
-14.37
-18.77
-23.36
-27.65
-31.02
-32.86
-32.65
-30.23
-25.91
-20.41
-14.71
-9.68
-5.80
-3.07
-1.11
0.62
2.52
4.80
7.39
10.08
12.64
14.88
16.70
18.06
18.95
19.43
19.63
19.73
19.89
20.18
20.60
21.05
21.44
21.65
21.58
21.08
20.06
18.51
16.63
14.69
13.05
11.88
11.09
10.35
9.23
7.47
5.08
2.34
-0.40
-2.87
-4.97
-6.83
-8.65
-10.69
-13.19
-16.27
-19.87
-23.73
-27.27
-29.83
-30.80
-29.83
-27.01
-22.86
-18.16
-13.64
-9.78
-6.71
-4.22
-2.01
0.19
2.48
4.76
6.85
8.62
9.99
11.01
11.74
12.28
12.77
13.29
13.91
14.57
15.16
15.47
15.42
15.05
14.53
14.05
13.63
13.20
12.63
11.83
10.86
9.85
8.84
7.72
6.33
4.55
2.46
0.36
-1.42
-2.73
-3.73
-4.81
-6.39
-8.72
-11.77
-15.21
-18.54
-21.19
-22.69
-22.66
-20.97
-17.81
-13.59
-9.03
-4.76
-1.28
1.27
3.07
4.53
6.04
7.82
9.86
11.97
13.93
15.50
16.60
17.28
17.64
17.78
17.75
17.60
17.36
17.10
16.88
16.72
16.55
16.27
15.71
14.80
13.53
11.95
10.12
8.09
5.89
3.56
1.23
-0.91
-2.66
-3.91
-4.73
-5.33
-6.05
-7.27
-9.29
-12.23
-15.98
-20.18
-24.20
-27.31
-28.87
-28.49
-26.23
-22.53
-18.06
-13.54
-9.50
-6.22
-3.66
-1.68
-0.03
1.49
3.01
4.59
6.29
8.08
9.89
11.56
12.93
13.88
14.41
14.63
14.69
14.76
14.93
15.20
15.52
15.76
15.82
15.55
14.89
13.85
12.54
11.15
9.86
8.72
7.68
6.57
5.23
3.59
1.66
-0.44
-2.60
-4.75
-6.76
-8.54
-10.10
-11.58
-13.27
-15.54
-18.55
-22.15
-25.81
-28.80
-30.44
-30.33
-28.46
-25.23
-21.16
-16.87
-12.88
-9.50
-6.82
-4.69
-2.81
-0.88
1.23
3.44
5.51
7.22
8.49
9.37
10.05
10.67
11.28
11.82
12.28
12.72
13.25
13.96
14.73
15.28
15.24
14.34
12.62
10.42
8.25
6.56
5.61
5.27
5.22
5.03
4.39
3.19
1.53
-0.36
-2.25
-4.00
-5.58
-7.10
-8.76
-10.80
-13.38
-16.56
-20.16
-23.77
-26.84
-28.72
-28.96
-27.31
-23.96
-19.42
-14.45
-9.82
-6.07
-3.38
-1.53
-0.10
1.35
3.10
5.15
7.26
9.11
10.54
11.48
12.06
12.42
12.66
12.83
12.93
12.99
13.08
13.31
13.73
14.25
14.67
14.72
14.23
13.15
11.63
9.94
8.36
7.08
6.11
5.23
4.20
2.81
1.03
-1.00
-3.05
-4.90
-6.47
-7.89
-9.36
-11.10
-13.23
-15.77
-18.64
-21.66
-24.52
-26.81
-28.00
-27.69
-25.67
-22.16
-17.69
-13.04
-8.94
-5.82
-3.74
-2.39
-1.34
-0.19
1.24
2.88
4.55
6.07
7.37
8.48
9.53
10.53
11.49
12.37
13.16
13.89
14.62
15.31
15.85
16.05
15.74
14.90
13.69
12.32
11.05
9.97
8.99
7.92
6.52
4.70
2.54
0.28
-1.80
-3.50
-4.76
-5.71
-6.61
-7.75
-9.40
-11.74
-14.78
-18.29
-21.85
-24.80
-26.50
-26.48
-24.60
-21.17
-16.80
-12.24
-8.16
-4.91
-2.60
-0.99
0.25
1.45
2.81
4.31
5.79
7.11
8.17
8.97
9.61
10.19
10.73
11.22
11.65
12.10
12.64
13.30
14.03
14.63
14.89
14.65
13.96
12.98
11.93
10.97
10.17
9.45
8.67
7.72
6.50
4.97
3.16
1.13
-1.01
-3.15
-5.21
-7.20
-9.22
-11.48
-14.15
-17.31
-20.77
-24.14
-26.86
-28.40
-28.38
-26.74
-23.77
-19.98
-15.93
-12.07
-8.68
-5.77
-3.21
-0.90
1.27
3.28
5.09
6.70
8.16
9.52
10.84
12.09
13.11
13.80
14.13
14.25
14.38
14.71
15.30
15.97
16.46
16.51
16.00
15.01
13.75
12.41
11.10
9.88
8.72
7.68
6.80
6.10
5.47
4.73
3.59
1.89
-0.33
-2.79
-5.15
-7.12
-8.59
-9.76
-10.95
-12.53
-14.71
-17.50
-20.62
-23.66
-26.09
-27.40
-27.23
-25.44
-22.25
-18.19
-13.93
-10.15
-7.21
-5.16
-3.72
-2.48
-1.12
0.47
2.22
3.96
5.46
6.66
7.57
8.29
8.91
9.52
10.14
10.75
11.41
12.14
12.99
13.97
14.99
15.85
16.30
16.11
15.20
13.67
11.80
9.91
8.30
7.02
6.01
5.12
4.14
3.02
1.73
0.33
-1.10
-2.55
-4.02
-5.57
-7.20
-8.95
-10.86
-12.96
-15.34
-18.02
-20.90
-23.69
-25.92
-27.06
-26.69
-24.73
-21.49
-17.54
-13.56
-10.11
-7.44
-5.56
-4.21
-3.06
-1.77
-0.14
1.87
4.14
6.38
8.30
9.70
10.52
10.94
11.16
11.34
11.57
11.82
12.14
12.62
13.32
14.17
14.93
15.25
14.87
13.77
12.19
10.54
9.14
8.14
7.48
6.96
6.43
5.75
4.87
3.71
2.22
0.35
-1.75
-3.86
-5.70
-7.12
-8.16
-9.09
-10.22
-11.81
-13.98
-16.67
-19.73
-22.85
-25.65
-27.59
-28.14
-27.01
-24.17
-20.05
-15.40
-11.06
-7.64
-5.31
-3.88
-2.86
-1.83
-0.51
1.11
2.82
4.43
5.78
6.88
7.85
8.79
9.78
10.77
11.67
12.39
12.87
13.12
13.18
13.08
12.78
12.22
11.33
10.13
8.72
7.26
5.91
4.73
3.67
2.59
1.37
-0.09
-1.73
-3.39
-4.90
-6.10
-6.91
-7.44
-7.85
-8.37
-9.19
-10.42
-12.11
-14.21
-16.52
-18.70
-20.31
-20.86
-19.99
-17.57
-13.88
-9.49
-5.14
-1.51
1.05
2.58
3.44
4.14
5.06
6.33
7.80
9.15
10.11
10.59
10.73
10.73
10.79
10.94
11.05
11.04
10.92
10.85
11.01
11.48
12.07
12.47
12.28
11.36
9.79
7.86
5.96
4.38
3.25
2.53
2.03
1.49
0.73
-0.36
-1.74
-3.28
-4.83
-6.32
-7.86
-9.63
-11.85
-14.62
-17.77
-20.94
-23.64
-25.38
-25.80
-24.80
-22.49
-19.27
-15.65
-12.16
-9.22
-7.00
-5.40
-4.17
-2.99
-1.61
0.03
1.83
3.57
5.03
6.09
6.73
7.16
7.61
8.33
9.37
10.60
11.77
12.54
12.67
12.07
10.83
9.18
7.40
5.74
4.33
3.20
2.24
1.32
0.28
-1.01
-2.61
-4.46
-6.45
-8.36
-9.98
-11.17
-11.99
-12.64
-13.51
-15.00
-17.41
-20.75
-24.65
-28.45
-31.29
-32.43
-31.42
-28.36
-23.80
-18.59
-13.60
-9.40
-6.17
-3.68
-1.58
0.50
2.70
4.95
7.03
8.73
9.92
10.65
11.07
11.39
11.76
12.23
12.77
13.31
13.83
14.36
14.90
15.41
15.75
15.74
15.26
14.34
13.16
11.94
10.85
9.92
9.01
7.95
6.54
4.70
2.46
-0.06
-2.65
-5.11
-7.29
-9.24
-11.26
-13.74
-17.04
-21.12
-25.45
-29.14
-31.26
-31.21
-28.96
-25.05
-20.26
-15.35
-10.79
-6.79
-3.38
-0.56
1.71
3.48
4.85
6.03
7.25
8.66
10.36
12.29
14.35
16.37
18.17
19.58
20.49
20.90
20.89
20.63
20.29
20.04
19.88
19.72
19.36
18.60
17.31
15.49
13.22
10.67
8.04
5.48
3.09
0.89
-1.19
-3.32
-5.68
-8.47
-11.86
-15.88
-20.31
-24.69
-28.37
-30.61
-30.87
-28.95
-25.14
-20.15
-14.84
-9.95
-5.82
-2.43
0.51
3.24
5.87
8.26
10.25
11.77
12.89
13.86
14.85
15.95
17.12
18.21
19.15
19.89
20.46
20.82
20.93
20.73
20.24
19.53
18.70
17.80
16.77
15.46
13.73
11.51
8.88
6.03
3.13
0.32
-2.42
-5.16
-8.01
-11.01
-14.18
-17.43
-20.67
-23.70
-26.26
-27.98
-28.50
-27.55
-24.98
-20.98
-16.00
-10.63
-5.58
-1.35
1.86
4.15
5.91
7.60
9.52
11.77
14.17
16.50
18.53
20.16
21.40
22.35
23.11
23.72
24.24
24.70
25.12
25.43
25.52
25.24
24.48
23.22
21.54
19.59
17.51
15.36
13.15
10.86
8.51
6.13
3.77
1.45
-0.79
-3.00
-5.21
-7.52
-10.01
-12.79
-15.93
-19.44
-23.18
-26.76
-29.62
-31.09
-30.70
-28.29
-24.24
-19.24
-14.14
-9.58
-5.82
-2.72
0.05
2.80
5.61
8.43
11.10
13.52
15.65
17.47
19.01
20.20
20.99
21.36
21.39
21.25
21.18
21.39
21.95
22.77
23.53
23.88
23.52
22.36
20.58
18.57
16.69
15.18
14.06
13.11
12.07
10.80
9.25
7.51
5.69
3.88
2.07
0.19
-1.88
-4.23
-6.91
-9.89
-13.07
-16.24
-19.02
-20.96
-21.57
-20.46
-17.51
-12.96
-7.38
-1.47
4.14
9.06
13.23
16.83
20.19
23.60
27.27
31.32
35.71
40.32
44.90
49.12
52.75
55.73
58.29
61.00
64.44
69.03
74.64
80.45
85.12
87.08
84.92
77.82
65.78
49.66
31.11
12.34
-4.33
-17.07
-25.14
-29.15
-30.91
-32.71
-36.42
-42.76
-51.09
-59.89
-67.51
-72.86
-75.68
-76.39
-75.60
-73.77
-71.05
-67.42
-62.90
-57.72
-52.26
-46.91
-41.89
-37.15
-32.41
-27.32
-21.70
-15.63
-9.45
-3.62
1.45
5.53
8.64
11.00
12.90
14.61
16.33
18.09
19.87
21.55
23.05
24.36
25.53
26.59
27.45
27.95
27.88
27.13
25.77
24.05
22.30
20.73
19.44
18.36
17.37
16.39
15.40
14.40
13.34
12.12
10.57
8.57
6.05
3.01
-0.44
-4.17
-7.99
-11.71
-15.10
-17.93
-19.93
-20.89
-20.68
-19.32
-16.99
-14.07
-11.00
-8.16
-5.80
-3.91
-2.32
-0.86
0.64
2.21
3.82
5.46
7.19
9.02
10.91
12.70
14.14
14.99
15.11
14.51
13.29
11.52
9.17
6.17
2.47
-1.85
-6.49
-11.10
-15.30
-18.88
-21.81
-24.16
-26.02
-27.44
-28.40
-28.87
-28.90
-28.64
-28.30
-28.09
-28.09
-28.28
-28.57
-28.86
-29.15
-29.42
-29.72
-30.12
-30.79
-31.95
-33.79
-36.43
-39.70
-43.18
-46.21
-48.09
-48.37
-46.95
-44.13
-40.45
-36.45
-32.53
-28.88
-25.49
-22.23
-18.97
-15.67
-12.41
-9.36
-6.77
-4.81
-3.49
-2.67
-2.07
-1.38
-0.45
0.66
1.79
2.72
3.36
3.77
4.11
4.49
4.95
5.40
5.73
5.87
5.87
5.85
5.92
6.16
6.53
6.93
7.26
7.42
7.39
7.16
6.79
6.32
5.75
5.05
4.14
2.98
1.54
-0.10
-1.82
-3.52
-5.09
-6.53
-7.86
-9.08
-10.10
-10.79
-10.97
-10.58
-9.66
-8.38
-6.90
-5.34
-3.74
-2.06
-0.37
1.21
2.52
3.47
4.13
4.72
5.52
6.66
8.07
9.42
10.33
10.53
10.06
9.21
8.41
7.98
7.98
8.24
8.46
8.48
8.28
8.00
7.78
7.66
7.55
7.28
6.83
6.26
5.76
5.48
5.41
5.37
5.03
4.18
2.71
0.83
-1.14
-2.87
-4.14
-4.98
-5.59
-6.24
-7.13
-8.37
-9.96
-11.91
-14.17
-16.58
-18.82
-20.43
-20.90
-19.96
-17.77
-14.86
-12.02
-10.01
-9.31
-10.12
-12.30
-15.49
-19.19
-22.78
-25.69
-27.56
-28.35
-28.45
-28.54
-29.34
-31.47
-35.24
-40.64
-47.38
-54.98
-62.69
-69.62
-74.73
-76.92
-75.38
-69.69
-60.04
-47.25
-32.66
-17.82
-4.17
7.27
15.97
21.95
25.55
27.24
27.56
27.01
26.09
25.20
24.61
24.38
24.30
24.07
23.32
21.85
19.60
16.66
13.30
9.91
6.94
4.87
3.97
4.34
5.80
7.98
10.48
13.02
15.41
17.59
19.56
21.37
23.06
24.74
26.46
28.19
29.82
31.09
31.78
31.74
30.95
29.56
27.80
25.94
24.24
22.96
22.28
22.19
22.49
22.80
22.72
22.01
20.72
19.20
18.03
17.70
18.49
20.26
22.49
24.37
25.04
23.75
20.17
14.45
7.29
-0.20
-6.84
-11.67
-14.34
-15.15
-14.92
-14.62
-15.00
-16.27
-18.14
-20.00
-21.27
-21.65
-21.27
-20.51
-19.74
-19.11
-18.51
-17.62
-16.22
-14.35
-12.29
-10.45
-9.16
-8.44
-8.03
-7.53
-6.59
-5.18
-3.61
-2.38
-1.98
-2.59
-3.97
-5.48
-6.37
-5.99
-4.07
-0.82
3.14
6.85
9.23
9.14
5.58
-2.03
-13.46
-27.33
-41.17
-51.98
-57.22
-55.73
-48.24
-36.94
-24.61
-13.50
-4.68
1.88
6.78
10.46
12.99
14.14
13.84
12.44
10.70
9.42
9.08
9.60
10.53
11.33
11.74
11.87
12.16
13.00
14.62
16.86
19.32
21.54
23.23
24.29
24.86
25.14
25.27
25.25
24.95
24.18
22.82
20.88
18.50
15.96
13.53
11.34
9.38
7.49
5.48
3.24
0.85
-1.47
-3.42
-4.87
-5.99
-7.27
-9.39
-12.88
-17.84
-23.79
-29.78
-34.71
-37.76
-38.79
-38.46
-38.19
-39.79
-44.97
-54.72
-68.70
-84.93
-100.08
-110.20
-112.05
-104.14
-87.28
-64.21
-38.59
-13.74
8.18
26.40
41.03
52.45
60.82
66.02
67.95
66.98
64.08
60.68
58.25
57.70
59.13
61.89
64.97
67.63
69.73
71.73
74.35
78.01
82.61
87.53
92.05
95.69
98.43
100.45
101.83
102.33
101.37
98.30
92.67
84.45
73.93
61.61
47.99
33.59
19.07
5.37
-6.39
-15.18
-20.42
-22.33
-21.91
-20.62
-19.79
-20.19
-21.82
-24.10
-26.28
-27.82
-28.60
-28.82
-28.89
-29.13
-29.73
-30.75
-32.05
-33.37
-34.32
-34.57
-34.05
-33.20
-33.12
-35.37
-41.60
-52.88
-69.07
-88.47
-108.14
-124.59
-134.94
-137.79
-133.54
-124.05
-111.71
-98.57
