1520869878.00
64.000000
-0.00
-0.00
-0.00
-0.00
-0.00
-0.00
-0.00
-0.00
-0.00
-0.00
0.00
0.01
0.01
-0.00
-0.03
-0.05
-0.05
0.00
0.13
0.36
0.66
1.01
1.37
1.72
2.06
2.40
2.79
3.24
3.80
4.42
5.06
5.66
6.20
6.68
7.15
7.68
8.31
9.14
10.09
11.04
11.88
12.56
13.14
13.76
14.65
15.96
17.91
20.32
22.90
25.38
27.58
29.57
31.68
34.32
37.81
42.54
48.15
54.10
59.83
64.97
69.58
74.14
79.34
85.71
93.76
103.00
112.62
121.73
129.77
136.75
143.30
150.75
157.77
166.64
177.95
191.79
206.97
220.57
228.25
225.36
208.53
176.87
132.76
80.05
23.07
-34.94
-92.44
-149.16
-205.23
-260.37
-313.74
-363.87
-409.83
-450.91
-486.50
-515.74
-537.23
-549.22
-549.96
-538.37
-514.21
-478.67
-433.88
-382.45
-327.02
-269.84
-212.63
-156.66
-102.95
-52.37
-5.90
35.58
71.43
101.35
125.50
144.38
158.69
169.15
176.37
180.75
182.57
182.07
179.51
175.23
169.65
163.18
156.15
148.81
141.30
133.69
126.02
118.33
110.69
103.16
95.80
88.68
81.83
75.25
68.95
62.95
57.25
51.86
46.78
42.03
37.59
33.45
29.61
26.07
22.81
19.83
17.11
14.67
12.48
10.54
8.83
7.35
6.07
4.97
4.05
3.27
2.62
2.09
1.65
1.30
1.01
0.79
0.61
0.47
0.37
0.29
0.23
0.19
0.16
0.14
0.14
0.14
0.16
0.18
0.20
0.23
0.27
0.31
0.35
0.40
0.45
0.49
0.54
0.59
0.64
0.70
0.76
0.82
0.89
0.97
1.05
1.15
1.25
1.37
1.50
1.65
1.81
1.99
2.20
2.43
2.68
2.95
3.26
3.60
3.97
4.37
4.80
5.28
5.79
6.33
6.92
7.56
8.23
8.95
9.71
10.52
11.38
12.27
13.22
14.22
15.28
16.41
17.60
18.83
20.10
21.37
22.56
23.61
24.40
24.82
24.75
24.08
22.73
20.65
17.87
14.43
10.45
6.11
1.60
-2.89
-7.16
-11.06
-14.44
-17.19
-19.24
-20.55
-21.11
-21.01
-20.37
-19.34
-18.08
-16.71
-15.32
-13.94
-12.54
-11.06
-9.53
-7.97
-6.47
-5.08
-3.85
-2.76
-1.72
-0.57
0.88
2.58
4.43
6.23
7.77
8.89
9.63
10.20
10.98
12.36
14.28
16.51
18.63
20.16
20.77
20.45
19.60
18.88
19.07
20.11
21.68
23.13
23.62
22.59
19.96
16.24
12.28
9.12
6.74
4.78
2.40
-1.62
-8.78
-20.65
-38.72
-64.27
-92.81
-120.47
-142.66
-155.18
-155.72
-144.68
-125.16
-101.59
-78.17
-57.39
-40.50
-27.14
-16.43
-7.77
-0.96
4.05
7.63
10.56
13.85
17.82
22.45
27.28
31.56
34.58
35.98
35.96
35.09
34.17
33.47
33.04
32.61
31.74
30.12
27.66
24.59
21.36
18.53
16.30
14.64
13.27
11.73
9.69
7.06
3.99
0.84
-2.12
-4.78
-7.26
-9.72
-12.40
-15.42
-18.90
-22.85
-27.12
-31.29
-34.66
-36.42
-35.90
-32.89
-27.74
-21.20
-14.13
-7.32
-1.24
3.84
7.81
10.61
12.34
13.26
13.73
14.13
14.66
15.29
15.89
16.31
16.59
16.93
17.57
18.65
20.15
21.86
23.49
24.73
25.33
25.23
24.52
23.47
22.36
21.42
20.66
19.92
18.91
17.46
15.61
13.56
11.53
9.65
7.85
5.99
3.96
1.72
-0.60
-2.90
-5.13
-7.29
-9.50
-11.80
-14.19
-16.64
-19.14
-21.81
-24.90
-28.63
-33.00
-37.71
-42.06
-45.16
-46.21
-44.72
-40.76
-34.86
-27.87
-20.69
-14.07
-8.43
-3.88
-0.29
2.64
5.20
7.45
9.28
10.47
10.95
10.98
11.09
11.85
13.57
16.04
18.61
20.54
21.38
21.23
20.67
20.34
20.67
21.56
22.61
23.33
23.45
23.01
22.22
21.28
20.22
18.91
17.15
14.85
12.18
9.51
7.19
5.40
3.93
2.35
0.18
-2.82
-6.44
-10.19
-13.50
-16.16
-18.41
-20.81
-23.97
-28.15
-33.12
-38.23
-42.60
-45.46
-46.27
-44.88
-41.46
-36.42
-30.35
-23.78
-17.09
-10.46
-4.02
1.97
7.11
10.96
13.32
14.35
14.64
14.87
15.50
16.55
17.67
18.47
18.74
18.71
18.86
19.65
21.16
23.11
24.88
25.89
25.89
25.00
23.52
21.80
19.97
18.02
15.94
13.85
12.08
10.90
10.29
9.83
8.88
6.88
3.72
-0.20
-4.17
-7.61
-10.29
-12.36
-14.18
-16.16
-18.60
-21.66
-25.41
-29.75
-34.48
-39.19
-43.31
-46.17
-47.17
-45.95
-42.46
-36.99
-30.07
-22.39
-14.64
-7.44
-1.18
3.93
7.87
10.71
12.60
13.74
14.49
15.21
16.24
17.73
19.64
21.70
23.62
25.17
26.28
27.06
27.66
28.17
28.56
28.64
28.19
27.11
25.47
23.48
21.34
19.12
16.74
14.03
10.84
7.16
3.17
-0.89
-4.77
-8.28
-11.35
-14.00
-16.41
-18.81
-21.55
-24.88
-28.82
-32.98
-36.68
-39.05
-39.36
-37.26
-32.87
-26.73
-19.55
-12.08
-4.90
1.61
7.31
12.11
15.99
18.85
20.51
20.86
19.92
18.00
15.64
13.52
12.29
12.27
13.43
15.41
17.69
19.76
21.34
22.36
22.90
23.08
22.81
21.92
20.18
17.55
14.19
10.54
7.09
4.12
1.69
-0.44
-2.57
-4.89
-7.40
-9.84
-11.99
-13.76
-15.28
-16.84
-18.76
-21.24
-24.37
-28.14
-32.44
-37.12
-41.79
-45.90
-48.72
-49.50
-47.68
-43.18
-36.43
-28.30
-19.74
-11.56
-4.16
2.38
8.17
13.34
17.86
21.63
24.48
26.35
27.31
27.66
27.78
28.08
28.89
30.33
32.22
34.18
35.82
36.86
37.32
37.40
37.27
36.92
36.07
34.42
31.87
28.69
25.45
22.71
20.78
19.58
18.69
17.61
16.00
13.75
10.98
7.92
4.76
1.60
-1.55
-4.70
-7.89
-11.16
-14.58
-18.24
-22.31
-26.93
-32.14
-37.73
-43.18
-47.62
-50.08
-49.83
-46.62
-40.86
-33.46
-25.41
-17.53
-10.20
-3.45
2.78
8.39
13.04
16.31
18.06
18.56
18.48
18.57
19.30
20.69
22.33
23.67
24.32
24.27
23.92
23.77
24.27
25.51
27.21
28.87
29.98
30.24
29.56
28.09
26.00
23.54
20.89
18.24
15.78
13.66
11.91
10.40
8.87
7.02
4.68
1.81
-1.44
-4.92
-8.54
-12.28
-16.23
-20.47
-24.99
-29.57
-33.80
-37.03
-38.58
-37.92
-34.93
-29.90
-23.49
-16.44
-9.35
-2.64
3.38
8.49
12.44
15.07
16.39
16.69
16.40
15.95
15.61
15.45
15.39
15.34
15.28
15.29
15.45
15.83
16.42
17.14
17.80
18.25
18.28
17.80
16.80
15.35
13.57
11.54
9.33
6.96
4.39
1.46
-1.99
-6.05
-10.57
-15.09
-19.03
-21.92
-23.74
-25.00
-26.54
-29.20
-33.29
-38.45
-43.73
-47.89
-49.90
-49.25
-46.05
-40.86
-34.37
-27.19
-19.71
-12.18
-4.89
1.77
7.30
11.37
14.04
15.72
17.00
18.30
19.76
21.21
22.49
23.60
24.76
26.21
28.02
29.95
31.56
32.46
32.50
31.82
30.72
29.51
28.33
27.16
25.88
24.32
22.32
19.80
16.81
13.46
9.97
6.60
3.51
0.71
-1.82
-4.21
-6.49
-8.65
-10.70
-12.73
-14.95
-17.64
-21.04
-25.20
-29.97
-35.05
-39.99
-44.36
-47.74
-49.67
-49.77
-47.73
-43.48
-37.29
-29.79
-21.85
-14.33
-7.84
-2.61
1.54
4.97
8.04
10.89
13.52
15.84
17.84
19.64
21.37
23.07
24.67
25.97
26.86
27.37
27.70
28.04
28.55
29.17
29.75
30.19
30.44
30.47
30.31
29.86
29.03
27.75
26.08
24.15
22.08
19.88
17.50
14.91
12.21
9.67
7.55
5.98
4.82
3.74
2.42
0.66
-1.45
-3.74
-6.02
-8.33
-10.88
-13.90
-17.51
-21.58
-25.82
-29.97
-33.96
-38.00
-42.45
-47.52
-52.95
-57.98
-61.49
-62.48
-60.46
-55.62
-48.79
-41.05
-33.31
-26.15
-19.75
-14.00
-8.76
-3.91
0.50
4.38
7.66
10.32
12.42
14.06
15.37
16.47
17.43
18.34
19.28
20.26
21.36
22.51
23.67
24.72
25.50
25.90
25.80
25.14
23.95
22.35
20.51
18.59
16.71
14.84
12.95
10.96
8.84
6.58
4.22
1.72
-0.95
-3.78
-6.73
-9.70
-12.53
-15.10
-17.34
-19.29
-21.22
-23.52
-26.69
-31.07
-36.64
-42.85
-48.69
-52.92
-54.52
-53.03
-48.68
-42.30
-34.95
-27.52
-20.51
-14.03
-7.96
-2.24
3.02
7.55
11.12
13.64
15.30
16.42
17.34
18.26
19.30
20.45
21.70
23.10
24.69
26.39
28.03
29.36
30.14
30.34
30.11
29.73
29.46
29.35
29.30
29.00
28.24
26.86
24.93
22.59
20.04
17.43
14.84
12.36
10.06
7.95
5.96
3.98
1.97
-0.09
-2.13
-4.19
-6.38
-8.87
-11.74
-14.87
-17.93
-20.61
-22.82
-24.83
-27.24
-30.72
-35.65
-41.89
-48.69
-54.95
-59.48
-61.38
-60.17
-55.98
-49.43
-41.44
-33.04
-25.03
-17.87
-11.67
-6.31
-1.63
2.43
5.83
8.50
10.43
11.79
12.82
13.85
15.07
16.56
18.24
20.03
21.84
23.68
25.53
27.37
29.06
30.40
31.24
31.54
31.42
31.05
30.58
29.99
29.20
28.05
26.52
24.67
22.70
20.74
18.77
16.70
14.43
12.03
9.70
7.63
5.86
4.19
2.29
-0.06
-2.90
-6.07
-9.33
-12.55
-15.68
-18.68
-21.52
-24.10
-26.49
-29.01
-32.19
-36.46
-41.85
-47.73
-52.93
-56.17
-56.48
-53.65
-48.19
-41.08
-33.35
-25.73
-18.56
-11.89
-5.73
-0.28
4.16
7.32
9.15
9.96
10.32
10.82
11.82
13.33
15.07
16.70
18.08
19.28
20.51
21.99
23.71
25.43
26.85
27.73
28.00
27.78
27.25
26.52
25.56
24.21
22.38
20.09
17.54
14.95
12.52
10.24
7.93
5.35
2.33
-1.06
-4.57
-7.82
-10.45
-12.36
-13.76
-15.13
-17.03
-19.83
-23.61
-28.15
-33.12
-38.20
-43.17
-47.72
-51.42
-53.58
-53.44
-50.48
-44.76
-36.97
-28.25
-19.78
-12.31
-6.06
-0.75
3.97
8.29
12.07
15.00
16.92
17.99
18.72
19.71
21.28
23.29
25.23
26.59
27.19
27.36
27.72
28.81
30.69
32.89
34.65
35.30
34.65
33.03
31.09
29.39
28.14
27.14
25.97
24.22
21.75
18.79
15.77
13.14
11.10
9.57
8.16
6.43
4.09
1.15
-2.16
-5.46
-8.50
-11.28
-14.00
-16.93
-20.26
-23.99
-28.06
-32.37
-36.92
-41.69
-46.49
-50.78
-53.73
-54.53
-52.66
-48.30
-42.17
-35.29
-28.51
-22.24
-16.46
-10.97
-5.67
-0.70
3.59
6.91
9.14
10.43
11.07
11.44
11.81
12.39
13.34
14.79
16.78
19.27
22.03
24.72
26.86
27.99
27.79
26.24
23.64
20.64
17.96
16.11
15.24
15.07
15.04
14.48
13.02
10.61
7.54
4.32
1.49
-0.62
-1.93
-2.65
-3.19
-4.00
-5.38
-7.47
-10.11
-13.06
-15.99
-18.62
-20.82
-22.60
-24.16
-25.86
-28.13
-31.27
-35.21
-39.40
-42.84
-44.49
-43.54
-39.83
-33.81
-26.37
-18.45
-10.81
-3.90
2.06
6.92
10.68
13.41
15.34
16.81
18.19
19.71
21.39
23.11
24.67
25.99
27.08
28.03
28.89
29.62
30.09
30.19
29.93
29.46
28.97
28.49
27.83
26.70
24.86
22.34
19.55
17.07
15.36
14.47
14.03
13.39
11.96
9.41
5.83
1.59
-2.79
-6.86
-10.36
-13.27
-15.84
-18.46
-21.59
-25.62
-30.65
-36.43
-42.32
-47.43
-50.83
-51.86
-50.31
-46.54
-41.37
-35.80
-30.67
-26.37
-22.77
-19.38
-15.68
-11.36
-6.57
-1.81
2.29
5.28
7.13
8.27
9.41
11.18
13.87
17.27
20.80
23.87
26.17
27.85
29.28
30.79
32.32
33.37
33.23
31.40
27.90
23.31
18.37
13.65
9.24
4.81
-0.03
-5.33
-10.70
-15.39
-18.73
-20.45
-20.84
-20.61
-20.51
-21.11
-22.69
-25.21
-28.42
-31.92
-35.18
-37.58
-38.52
-37.58
-34.61
-29.78
-23.55
-16.48
-9.18
-2.16
4.16
9.52
13.88
17.30
19.97
22.05
23.60
24.64
25.22
25.57
26.01
26.85
28.19
29.94
31.86
33.68
35.27
36.66
37.90
39.04
40.06
40.85
41.30
41.32
40.76
39.44
37.17
33.89
29.72
24.95
19.90
14.84
9.93
5.14
0.48
-4.13
-8.82
-13.79
-19.24
-25.24
-31.50
-37.37
-41.89
-44.15
-43.70
-40.71
-35.92
-30.36
-24.97
-20.29
-16.49
-13.43
-10.88
-8.68
-6.81
-5.27
-4.05
-2.98
-1.86
-0.56
0.86
2.12
2.90
3.03
2.65
2.19
2.15
2.87
4.33
6.18
7.92
9.14
9.60
9.35
8.64
7.73
6.79
5.82
4.71
3.31
1.54
-0.59
-3.04
-5.82
-9.04
-12.75
-16.76
-20.47
-22.96
-23.31
-21.03
-16.32
-10.01
-3.22
3.14
8.57
13.04
16.71
19.70
21.93
23.28
23.69
23.31
22.45
21.54
20.88
20.61
20.63
20.74
20.71
20.41
19.84
19.11
18.33
17.56
16.79
15.88
14.67
12.95
10.65
7.74
4.37
0.74
-2.86
-6.23
-9.35
-12.41
-15.80
-19.83
-24.45
-29.19
-33.08
-35.10
-34.43
-30.94
-25.10
-17.88
-10.32
-3.23
2.99
8.39
13.12
17.26
20.71
23.23
24.54
24.62
23.64
22.07
20.41
19.04
18.16
17.79
17.84
18.20
18.72
19.23
19.50
19.24
18.15
16.05
12.95
9.08
4.88
0.85
-2.59
-5.32
-7.61
-10.05
-13.29
-17.74
-23.28
-29.32
-34.84
-38.86
-40.73
-40.20
-37.55
-33.34
-28.19
-22.68
-17.12
-11.66
-6.26
-0.90
4.32
9.17
13.33
16.55
18.77
20.17
21.06
21.75
22.37
22.97
23.55
24.11
24.76
25.56
26.49
27.40
28.10
28.52
28.65
28.52
28.09
27.20
25.70
23.60
21.15
18.75
16.80
15.55
14.89
14.48
13.95
12.95
11.35
9.25
6.88
4.48
2.21
0.09
-1.91
-3.88
-5.83
-7.74
-9.62
-11.62
-13.94
-16.77
-20.10
-23.69
-27.20
-30.31
-33.06
-35.75
-38.88
-42.87
-47.75
-53.07
-57.94
-61.26
-62.09
-59.92
-54.83
-47.51
-38.96
-30.21
-22.07
-15.00
-9.17
-4.47
-0.75
2.23
4.72
6.96
9.22
11.62
14.14
16.56
18.55
19.80
20.26
20.10
19.75
19.66
20.11
21.13
22.46
23.75
24.70
25.22
25.39
25.39
25.31
25.05
24.47
23.41
21.82
19.80
17.57
15.36
13.43
11.94
10.93
10.28
9.72
8.88
7.47
5.33
2.53
-0.65
-3.89
-6.90
-9.63
-12.22
-14.96
-18.21
-22.23
-27.12
-32.69
-38.47
-43.66
-47.34
-48.69
-47.24
-43.12
-37.02
-29.99
-23.07
-16.99
-11.96
-7.86
-4.36
-1.19
1.69
4.22
6.33
8.09
9.65
11.14
12.53
13.69
14.42
14.67
14.62
14.64
15.10
16.20
17.93
19.98
21.93
23.38
24.03
23.86
22.98
21.63
20.06
18.53
17.20
16.23
15.67
15.42
15.28
14.90
13.90
12.14
9.70
6.95
4.33
2.14
0.46
-0.90
-2.26
-3.96
-6.17
-8.97
-12.22
-15.70
-19.20
-22.62
-26.01
-29.58
-33.66
-38.47
-44.02
-50.06
-56.17
-61.82
-66.52
-69.84
-71.55
-71.59
-70.17
-67.79
-65.10
-62.76
-61.24
-60.72
-61.12
-62.23
-63.88
-65.99
-68.66
-72.01
-76.20
-81.35
-87.56
-94.87
-103.11
-111.88
-120.57
-128.51
-135.07
-139.83
-142.43
-142.58
-139.93
-134.25
-125.71
-115.03
-103.42
-92.06
-81.61
-71.84
-61.69
-49.93
-35.70
-18.82
0.43
21.78
45.19
70.78
98.42
127.28
155.88
182.42
205.33
223.61
236.85
244.95
247.99
246.14
239.82
229.70
216.55
201.07
183.87
165.53
146.82
128.58
111.39
95.33
80.01
65.17
51.34
40.08
33.49
33.07
38.56
47.62
56.49
61.49
60.21
52.25
38.87
22.24
4.69
-11.74
-25.40
-35.19
-40.61
-42.03
-40.54
-37.72
-35.20
-34.17
-35.22
-38.33
-43.02
-48.60
-54.32
-59.56
-63.97
-67.53
-70.80
-74.92
-81.51
-92.41
-109.15
-132.18
-160.24
-190.08
-216.96
-235.75
-242.36
-234.89
-213.97
-182.26
-143.29
-100.29
-55.48
-9.87
36.53
84.05
132.89
182.46
231.21
276.61
315.69
345.72
364.93
372.87
370.40
359.22
341.47
319.45
295.55
272.26
251.88
236.10
225.65
220.08
218.23
218.91
221.41
225.51
230.96
236.77
240.95
240.92
234.54
221.12
201.76
178.99
155.61
133.49
112.97
92.88
71.28
46.40
17.45
-15.13
-49.98
-85.30
-119.63
-152.36
-183.90
-215.63
-249.70
-288.69
-334.90
-389.26
-449.84
-511.02
-563.86
-598.15
-605.90
-584.44
-538.03
-476.95
-414.24
-361.73
-326.82
-311.19
-311.73
-322.85
-338.80
-355.17
-369.16
-378.89
-382.53
-377.95
-363.02
-336.70
-300.00
-256.15
-209.65
-164.71
-123.74
-86.94
-52.84
-19.77
13.17
45.63
76.66
105.41
131.89
156.98
181.99
208.13
236.07
265.92
297.47
330.76
366.55
406.37
451.89
503.59
559.35
613.90
659.61
688.74
695.99
680.40
645.49
597.73
544.03
489.83
438.15
390.02
345.37
303.78
264.68
227.20
190.03
151.72
111.19
68.32
23.92
-20.45
-63.25
-103.74
-142.54
-181.66
-223.70
-270.36
-320.93
-371.50
-415.51
-445.73
-456.67
-446.62
-418.15
-377.18
-331.12
-286.91
-249.75
-222.70
-206.72
-201.07
-203.58
-211.18
-220.39
-228.04
-231.78
-230.27
-223.06
-210.26
-192.43
-170.45
-145.76
-120.32
-96.40
-76.20
-61.17
-51.64
-46.70
-44.54
-43.05
-40.53
-36.14
-29.89
-22.30
-13.87
-4.89
4.61
14.54
24.50
33.74
41.42
47.05
50.69
52.96
54.63
56.23
57.71
58.62
58.39
56.74
53.89
50.46
47.12
44.33
42.10
40.03
37.58
34.32
30.19
25.48
20.82
16.83
13.87
11.88
10.46
9.06
7.36
5.35
3.30
1.42
-0.32
-2.39
-5.42
-9.96
-16.09
-23.36
-30.82
-37.26
-41.57
-42.96
-41.16
-36.50
-29.68
-21.63
-13.24
-5.13
2.37
9.16
15.27
20.64
25.18
28.75
31.33
33.07
34.30
35.39
36.64
38.21
40.07
42.07
44.18
46.39
48.73
51.15
53.40
55.05
55.74
55.28
53.84
51.83
49.73
47.80
46.09
44.35
42.34
39.90
36.97
33.65
30.06
26.28
22.41
18.61
15.04
11.89
9.19
6.79
4.35
1.46
-2.27
-7.01
-12.62
-18.68
-24.50
-29.25
-32.11
-32.41
-29.81
-24.37
-16.61
-7.39
2.23
11.27
18.97
24.93
29.10
31.73
33.20
33.90
34.12
34.02
33.69
33.20
32.72
32.44
32.52
33.00
33.74
34.51
35.03
35.15
34.85
34.27
33.59
32.88
32.11
31.14
29.81
28.04
25.79
23.08
19.91
16.29
12.27
8.04
3.94
0.32
-2.70
-5.22
-7.68
-10.56
-14.19
-18.58
-23.36
-27.92
-31.59
-33.74
-33.86
-31.70
-27.35
-21.22
-14.07
-6.75
0.01
5.79
10.50
14.28
17.28
19.60
21.27
22.27
22.66
22.56
22.20
21.83
21.71
22.04
22.87
24.13
25.54
26.77
27.58
27.83
27.61
27.06
26.39
25.66
24.83
23.77
22.35
20.44
17.92
14.80
11.23
7.43
3.73
0.34
-2.67
-5.46
-8.26
-11.35
-14.91
-19.02
-23.59
-28.34
-32.76
-36.13
-37.69
-36.87
-33.52
-28.12
-21.56
-14.89
-8.86
-3.74
0.66
4.70
8.60
12.26
15.35
17.52
18.64
18.92
18.78
18.63
18.74
19.09
19.54
19.91
20.19
20.52
21.11
22.05
23.23
24.27
24.73
24.23
22.74
20.59
18.29
16.32
14.89
13.84
12.77
11.28
9.19
6.56
3.55
0.38
-2.79
-5.85
-8.63
-10.95
-12.67
-13.96
-15.26
-17.22
-20.39
-24.89
-30.26
-35.52
-39.53
-41.37
-40.63
-37.48
-32.54
-26.55
-20.19
-13.95
-8.08
-2.72
2.03
6.09
9.38
11.87
13.59
14.63
15.12
15.17
14.90
14.48
14.19
14.32
15.11
16.63
18.72
21.02
23.10
24.60
25.36
25.40
24.89
24.06
23.05
21.85
20.36
18.42
15.96
13.07
10.01
7.15
4.79
3.01
1.58
0.07
-1.92
-4.54
-7.70
-11.05
-14.22
-17.03
-19.49
-21.75
-24.06
-26.62
-29.61
-33.15
-37.17
-41.38
-45.21
-47.86
-48.59
-46.99
-43.18
-37.71
-31.43
-25.07
-19.08
-13.64
-8.70
-4.18
-0.06
3.54
6.46
8.61
9.98
10.67
10.86
10.78
10.63
10.60
10.83
11.40
12.34
13.64
15.22
16.93
18.56
19.90
20.80
21.20
21.07
20.38
19.12
17.28
14.91
12.20
9.42
6.84
4.61
2.70
0.95
-0.80
-2.61
-4.43
-6.05
-7.37
-8.37
-9.19
-10.00
-10.94
-12.08
-13.46
-15.07
-16.93
-19.09
-21.64
-24.76
-28.63
-33.24
-38.27
-42.99
-46.44
-47.68
-46.25
-42.26
-36.38
-29.49
-22.41
-15.68
-9.59
-4.33
-0.03
3.16
5.25
6.43
7.09
7.68
8.61
10.07
11.96
13.96
15.62
16.59
16.76
16.31
15.64
15.22
15.40
16.26
17.67
19.32
20.86
21.88
22.08
21.31
19.64
17.40
15.05
13.07
11.69
10.87
10.31
9.59
8.31
6.27
3.46
0.05
-3.62
-7.15
-10.17
-12.40
-13.88
-14.84
-15.74
-17.15
-19.57
-23.30
-28.28
-33.98
-39.47
-43.64
-45.47
-44.41
-40.48
-34.31
-26.86
-19.14
-11.90
-5.65
-0.59
3.28
6.14
8.28
10.06
11.87
13.92
16.18
18.42
20.28
21.46
21.86
21.62
21.09
20.62
20.51
20.83
21.43
21.98
22.13
21.71
20.73
19.41
17.99
16.62
15.28
13.82
12.08
10.00
7.67
5.22
2.78
0.37
-2.04
-4.51
-7.03
-9.57
-12.03
-14.43
-16.88
-19.59
-22.82
-26.72
-31.24
-36.08
-40.68
-44.37
-46.54
-46.80
-45.05
-41.47
-36.47
-30.53
-24.13
-17.65
-11.35
-5.47
-0.14
4.47
8.27
11.18
13.23
14.51
15.14
15.30
15.22
15.11
15.21
15.71
16.67
18.01
19.52
20.94
22.04
22.70
22.96
22.87
22.50
21.82
20.82
19.56
18.19
16.93
15.96
15.25
14.57
13.58
11.98
9.71
6.95
4.05
1.38
-0.88
-2.82
-4.71
-6.87
-9.46
-12.38
-15.35
-18.03
-20.26
-22.09
-23.76
-25.55
-27.70
-30.34
-33.52
-37.28
-41.49
-45.83
-49.66
-52.13
-52.40
-49.99
-45.04
-38.26
-30.58
-22.85
-15.59
-8.97
-2.99
2.31
6.79
10.25
12.59
13.99
14.79
15.42
16.18
17.11
18.05
18.76
19.13
19.24
19.33
19.67
20.36
21.31
22.24
22.84
22.89
22.39
21.48
20.40
19.34
18.39
17.54
16.66
15.66
14.45
12.98
11.31
9.54
7.83
6.38
5.30
4.59
4.05
3.33
2.06
0.01
-2.88
-6.42
-10.25
-13.99
-17.29
-20.00
-22.26
-24.45
-27.10
-30.60
-34.98
-39.81
-44.21
-47.17
-47.81
-45.70
-41.05
-34.51
-27.05
-19.55
-12.60
-6.48
-1.19
3.38
7.33
10.65
13.33
15.40
16.98
18.35
19.73
21.27
22.96
24.61
26.00
26.95
27.42
27.61
27.85
28.46
29.56
31.00
32.29
32.93
32.51
30.95
28.52
25.67
22.88
20.43
18.30
16.23
13.87
10.98
7.58
3.97
0.59
-2.15
-4.12
-5.51
-6.72
-8.14
-10.03
-12.45
-15.37
-18.83
-22.96
-27.83
-33.24
-38.63
-43.08
-45.65
-45.64
-42.92
-37.96
-31.62
-24.77
-18.07
-11.82
-6.04
-0.69
4.17
8.33
11.50
13.54
14.59
15.10
15.63
16.58
18.05
19.83
21.49
22.66
23.22
23.31
23.18
23.08
23.16
23.43
23.88
24.43
24.91
25.10
24.70
23.53
21.68
19.51
17.52
16.05
15.12
14.42
13.50
11.95
9.66
6.85
3.85
0.95
-1.74
-4.37
-7.11
-10.11
-13.31
-16.42
-19.14
-21.30
-23.03
-24.64
-26.54
-29.10
-32.44
-36.48
-40.98
-45.56
-49.67
-52.59
-53.50
-51.73
-47.09
-40.00
-31.49
-22.78
-14.94
-8.48
-3.31
1.02
5.05
9.04
12.90
16.24
18.66
19.96
20.28
20.04
19.69
19.53
19.54
19.52
19.28
18.85
18.54
18.67
19.32
20.27
20.94
20.85
19.84
18.16
16.34
14.87
13.99
13.66
13.62
13.53
13.11
12.22
10.75
8.74
6.33
3.72
1.15
-1.25
-3.41
-5.29
-6.92
-8.34
-9.65
-10.98
-12.56
-14.54
-16.93
-19.58
-22.19
-24.59
-26.83
-29.15
-31.85
-35.00
-38.28
-41.02
-42.38
-41.72
-38.85
-34.10
-28.12
-21.62
-15.11
-8.79
-2.70
3.08
8.28
12.55
15.62
17.45
18.30
18.53
18.46
18.26
18.02
17.94
18.30
19.41
21.37
23.96
26.66
28.87
30.24
30.69
30.39
29.54
28.26
26.60
24.67
22.67
20.86
19.40
18.22
17.12
15.81
14.18
12.29
10.28
8.26
6.25
4.15
1.90
-0.46
-2.80
-5.00
-6.96
-8.67
-10.21
-11.78
-13.63
-16.10
-19.40
-23.64
-28.61
-33.86
-38.72
-42.47
-44.41
-44.12
-41.43
-36.64
-30.42
-23.65
-17.12
-11.32
-6.26
-1.67
2.78
7.14
11.16
14.38
16.48
17.42
17.49
17.15
16.78
16.63
16.85
17.51
18.68
20.36
22.27
23.96
24.90
24.72
23.45
21.50
19.51
18.06
17.40
17.43
17.76
17.93
17.60
16.68
15.30
13.64
11.89
10.15
8.47
6.90
5.45
4.17
3.03
1.87
0.43
-1.50
-4.07
-7.16
-10.45
-13.55
-16.20
-18.31
-20.09
-21.93
-24.25
-27.38
-31.39
-36.11
-41.02
-45.42
-48.61
-50.02
-49.44
-47.00
-43.08
-38.11
-32.48
-26.44
-20.24
-14.10
-8.30
-3.11
1.28
4.79
7.43
9.27
10.46
11.19
11.73
12.33
13.17
14.28
15.60
16.99
18.39
19.75
21.06
22.16
22.92
23.25
23.18
22.94
22.72
22.64
22.61
22.50
22.17
21.61
20.78
19.60
17.94
15.74
13.12
10.49
8.36
7.04
6.51
6.37
6.04
5.04
3.14
0.42
-2.85
-6.33
-9.70
-12.78
-15.51
-17.99
-20.44
-23.08
-26.12
-29.71
-33.89
-38.49
-43.13
-47.12
-49.61
-49.85
-47.48
-42.72
-36.36
-29.42
-22.76
-16.82
-11.66
-7.09
-2.99
0.65
3.76
6.38
8.61
10.67
12.65
14.58
16.32
17.80
18.98
19.92
20.74
21.53
22.28
22.94
23.42
23.70
23.79
23.79
23.75
23.67
23.43
22.88
21.89
20.46
18.75
16.99
15.41
14.05
12.80
11.42
9.72
7.63
5.19
2.52
-0.30
-3.17
-6.00
-8.68
-11.07
-13.12
-14.88
-16.63
-18.72
-21.51
-25.24
-29.91
-35.19
-40.35
-44.47
-46.66
-46.39
-43.67
-39.08
-33.55
-27.83
-22.34
-17.12
-11.97
-6.78
-1.63
3.22
7.51
11.13
14.14
16.67
18.80
20.52
21.79
22.60
23.06
23.36
23.71
24.31
25.23
26.47
27.94
29.43
30.73
31.55
31.72
31.13
29.81
27.92
25.75
23.59
21.72
20.29
19.29
18.49
17.52
16.01
13.73
10.71
7.25
3.82
0.85
-1.42
-3.04
-4.32
-5.65
-7.29
-9.27
-11.45
-13.62
-15.77
-18.07
-20.78
-24.07
-27.93
-32.10
-36.26
-40.04
-43.10
-45.12
-45.77
-44.75
-41.92
-37.38
-31.52
-24.98
-18.44
-12.47
-7.39
-3.21
0.25
3.25
5.96
8.34
10.23
11.48
12.07
12.19
12.16
12.28
12.69
13.33
14.12
15.00
16.04
17.31
18.72
20.02
20.81
20.83
20.07
18.85
17.63
16.76
16.37
16.28
16.22
15.95
15.33
14.27
12.73
10.68
8.14
5.26
2.26
-0.64
-3.33
-5.84
-8.26
-10.66
-12.97
-15.07
-16.82
-18.19
-19.35
-20.52
-22.00
-24.03
-26.79
-30.27
-34.29
-38.33
-41.66
-43.40
-42.86
-39.72
-34.27
-27.26
-19.66
-12.31
-5.65
0.23
5.43
9.98
13.68
16.19
17.28
17.06
16.12
15.22
15.06
15.98
17.81
20.10
22.38
24.32
25.79
26.78
27.34
27.49
27.33
26.93
26.40
25.76
24.97
23.97
22.73
21.37
20.02
18.71
17.36
15.76
13.77
11.39
8.79
6.22
3.80
1.46
-0.99
-3.69
-6.59
-9.52
-12.24
-14.64
-16.87
-19.34
-22.46
-26.47
-31.13
-35.71
-39.21
-40.65
-39.44
-35.61
-29.78
-22.93
-16.03
-9.76
-4.41
0.04
3.80
7.00
9.70
11.84
13.43
14.54
15.34
16.07
16.89
17.85
18.77
19.46
19.74
19.65
19.39
19.25
19.38
19.73
20.10
20.21
19.95
19.37
18.58
17.65
16.57
15.27
13.69
11.92
10.15
8.56
7.17
5.79
4.10
1.91
-0.78
-3.73
-6.58
-9.07
-11.20
-13.23
-15.54
-18.43
-22.03
-26.23
-30.70
-35.01
-38.66
-41.14
-42.02
-41.01
-38.00
-33.23
-27.17
-20.46
-13.77
-7.60
-2.27
2.17
5.76
8.62
10.80
12.36
13.33
13.79
13.86
13.72
13.56
13.53
13.73
14.26
15.12
16.30
17.65
18.98
20.07
20.76
21.06
21.02
20.70
20.09
19.16
17.85
16.27
14.63
13.22
12.24
11.70
11.48
11.35
11.11
10.57
9.62
8.19
6.19
3.62
0.56
-2.80
-6.21
-9.42
-12.24
-14.58
-16.48
-18.20
-20.19
-22.92
-26.63
-31.22
-35.98
-39.92
-41.98
-41.50
-38.46
-33.41
-27.29
-21.01
-15.23
-10.24
-6.04
-2.53
0.48
3.11
5.46
7.57
9.45
11.08
12.34
13.14
13.41
13.19
12.64
12.03
11.65
11.65
11.96
12.39
12.65
12.53
12.01
11.15
10.06
8.77
7.22
5.32
3.06
0.56
-2.00
-4.48
-6.86
-9.29
-11.91
-14.75
-17.68
-20.44
-22.88
-25.06
-27.32
-30.08
-33.64
-37.92
-42.32
-45.93
-47.82
-47.39
-44.50
-39.46
-32.83
-25.18
-17.03
-8.82
-0.98
6.03
11.83
16.25
19.34
21.34
22.63
23.52
24.24
24.89
25.54
26.20
26.93
27.73
28.59
29.45
30.25
30.92
31.43
31.76
31.78
31.34
30.18
28.15
25.26
21.84
18.39
15.40
13.17
11.64
10.44
9.10
7.29
4.88
1.87
-1.63
-5.57
-9.81
-14.10
-17.91
-20.57
-21.39
-19.98
-16.38
-11.12
-5.05
0.89
5.93
9.64
12.09
13.58
14.58
15.35
15.88
15.95
15.33
14.02
12.43
11.15
10.65
11.01
11.90
12.74
13.08
12.74
11.94
11.04
10.37
10.02
9.83
9.44
8.45
6.59
3.87
0.65
-2.50
-5.06
-6.78
-7.91
-9.04
-10.80
-13.57
-17.27
-21.35
-25.08
-27.82
-29.24
-29.30
-28.16
-25.94
-22.66
-18.28
-12.88
-6.77
-0.57
4.97
9.20
11.81
12.95
13.07
12.72
12.30
11.92
11.55
11.09
10.59
10.16
9.96
10.03
10.31
10.66
11.00
11.32
11.63
11.88
11.90
11.38
10.02
7.73
4.76
1.64
-1.00
-2.74
-3.57
-3.88
-4.33
-5.55
-7.85
-11.14
-15.00
-18.83
-22.03
-24.14
-24.82
-23.89
-21.33
-17.26
-12.01
-6.05
0.10
5.98
11.18
15.39
18.38
19.96
20.19
19.26
17.63
15.82
14.26
13.06
12.05
10.90
9.39
7.57
5.77
4.49
4.07
4.55
5.57
6.59
7.04
6.54
4.99
2.43
-0.94
-4.86
-9.03
-13.03
-16.43
-18.91
-20.43
-21.23
-21.72
-22.22
-22.70
-22.82
-21.95
-19.59
-15.59
-10.35
-4.58
0.83
5.22
8.28
10.07
10.94
11.34
11.64
11.98
12.32
12.45
12.19
11.48
10.41
9.18
7.95
6.75
5.55
4.30
3.08
2.08
1.56
1.61
2.13
2.85
3.45
3.82
3.95
3.91
3.64
2.91
1.44
-0.86
-3.75
-6.62
-8.75
-9.54
-8.76
-6.62
-3.52
0.08
3.80
7.39
10.68
13.51
15.74
17.24
17.96
17.95
17.32
16.23
14.86
13.43
12.11
11.12
10.58
10.51
10.74
11.01
10.99
10.47
9.44
8.13
6.87
5.90
5.23
4.62
3.78
2.49
0.83
-0.95
-2.65
-4.24
-5.95
-8.04
-10.54
-13.08
-15.02
-15.70
-14.78
-12.41
-9.06
-5.39
-1.88
1.24
3.88
6.00
7.51
8.31
8.41
8.00
7.37
6.79
6.34
6.00
5.62
5.10
4.51
3.93
3.49
3.17
2.95
2.79
2.74
2.86
3.14
3.40
3.36
2.78
1.61
0.04
-1.61
-3.08
-4.34
-5.53
-6.85
-8.36
-9.95
-11.51
-13.04
-14.75
-16.93
-19.69
-22.79
-25.62
-27.41
-27.51
-25.71
-22.24
-17.70
-12.79
-8.06
-3.87
-0.42
2.25
4.11
5.18
5.55
5.39
4.96
4.47
4.08
3.87
3.83
3.90
4.09
4.35
4.64
4.88
4.97
4.94
4.90
5.07
5.54
6.25
6.87
6.99
6.35
5.03
3.39
1.82
0.60
-0.36
-1.34
-2.56
-4.01
-5.45
-6.56
-7.27
-7.77
-8.41
-9.46
-10.89
-12.41
-13.62
-14.26
-14.34
-14.16
-14.13
-14.58
-15.63
-17.20
-19.11
-21.13
-23.12
-24.93
-26.38
-27.19
-27.04
-25.62
-22.82
-18.79
-13.95
-8.93
-4.35
-0.66
1.94
3.50
4.28
4.60
4.68
4.58
4.21
3.37
2.03
0.31
-1.43
-2.72
-3.16
-2.58
-1.14
0.76
2.60
3.98
4.67
4.69
4.20
3.43
2.56
1.72
0.98
0.40
-0.00
-0.23
-0.34
-0.40
-0.52
-0.77
-1.13
-1.56
-2.00
-2.41
-2.82
-3.30
-3.89
-4.61
-5.46
-6.41
-7.46
-8.60
-9.77
-10.94
-12.12
-13.38
-14.86
-16.67
-18.84
-21.19
-23.45
-25.29
-26.39
-26.53
-25.59
-23.55
-20.51
-16.71
-12.56
-8.48
-4.87
-1.94
0.24
1.68
2.37
2.27
1.44
0.15
-1.12
-1.85
-1.77
-0.95
0.22
1.36
2.31
3.25
4.49
6.21
8.23
10.08
11.22
11.41
10.76
9.68
8.59
7.76
7.15
6.57
5.81
4.80
3.64
2.46
1.40
0.41
-0.67
-2.00
-3.63
-5.36
-6.84
-7.80
-8.16
-8.19
-8.24
-8.67
-9.53
-10.61
-11.64
-12.50
-13.32
-14.39
-15.94
-17.97
-20.26
-22.54
-24.59
-26.32
-27.61
-28.26
-28.02
-26.63
-24.01
-20.35
-16.00
-11.45
-7.12
-3.36
-0.40
1.65
2.83
3.38
3.68
4.10
4.87
5.90
6.82
7.26
7.05
6.42
5.91
6.05
7.10
8.85
10.72
12.15
12.90
13.09
13.08
13.05
12.94
12.45
11.33
9.63
7.72
6.10
5.12
4.78
4.72
4.46
3.72
2.48
1.08
-0.08
-0.71
-0.81
-0.67
-0.78
-1.59
-3.36
-5.96
-9.01
-12.00
-14.55
-16.52
-18.10
-19.66
-21.51
-23.82
-26.57
-29.59
-32.67
-35.59
-38.03
-39.58
-39.63
-37.59
-33.09
-26.32
-18.09
-9.65
-2.36
2.93
6.04
7.54
8.25
8.85
9.55
10.10
10.16
9.61
8.74
8.08
8.15
9.11
10.77
12.66
14.37
15.68
16.68
17.57
18.60
19.85
21.19
22.29
22.79
22.43
21.22
19.44
17.60
16.16
15.35
15.08
14.94
14.45
13.32
11.53
9.34
7.17
5.37
4.15
3.40
2.85
2.07
0.74
-1.28
-3.84
-6.59
-9.16
-11.39
-13.36
-15.36
-17.67
-20.51
-23.91
-27.80
-31.99
-36.25
-40.21
-43.35
-45.02
-44.56
-41.59
-36.13
-28.69
-20.13
-11.42
-3.39
3.41
8.82
12.95
16.01
18.19
19.58
20.23
20.24
19.92
19.65
19.81
20.53
21.65
22.83
23.76
24.33
24.78
25.48
26.75
28.63
30.86
32.99
34.57
35.23
34.89
33.67
31.86
29.81
27.82
26.03
24.40
22.83
21.26
19.73
18.32
17.04
15.74
14.13
11.97
9.19
6.03
2.87
0.06
-2.28
-4.20
-5.93
-7.65
-9.46
-11.41
-13.56
-16.03
-18.98
-22.47
-26.40
-30.52
-34.55
-38.19
-41.20
-43.25
-44.00
-43.00
-39.86
-34.42
-26.81
-17.64
-7.82
1.63
9.85
16.36
21.06
24.18
26.01
26.81
26.75
25.99
24.78
23.53
22.67
22.56
23.30
24.70
26.40
28.05
29.42
30.47
31.27
31.92
32.41
32.66
32.54
32.03
31.15
30.09
29.05
28.14
27.34
26.51
25.46
24.00
22.06
19.69
16.97
14.05
11.09
8.29
5.84
3.85
2.33
1.09
-0.16
-1.79
-4.08
-7.01
-10.38
-13.75
-16.73
-19.12
-21.06
-22.95
-25.36
-28.70
-32.99
-37.75
-42.03
-44.77
-45.03
-42.34
-36.74
-28.75
-19.20
-9.08
0.65
9.17
15.95
20.81
23.88
25.52
26.06
25.78
24.83
23.32
21.46
19.57
18.11
17.41
17.67
18.82
20.66
22.93
25.37
27.72
29.64
30.82
30.93
29.94
28.07
25.76
23.58
21.95
20.98
20.46
19.99
19.10
17.55
15.26
12.43
9.35
6.36
3.74
1.64
0.06
-1.16
-2.24
-3.43
-4.89
-6.65
-8.66
-10.82
-13.03
-15.19
-17.30
-19.44
-21.81
-24.60
-27.92
-31.65
-35.36
-38.33
-39.77
-39.03
-35.91
-30.69
-24.04
-16.80
-9.66
-3.09
2.68
7.54
11.39
14.18
15.86
16.50
16.35
15.71
14.90
14.21
13.79
13.73
14.04
14.63
15.35
15.97
16.35
16.42
16.18
15.67
14.84
13.62
11.94
9.91
7.82
6.13
5.24
5.32
6.18
7.33
8.16
8.18
7.19
5.32
2.87
0.17
-2.57
-5.30
-8.05
-10.86
-13.76
-16.79
-20.02
-23.46
-27.06
-30.55
-33.43
-35.09
-35.00
-32.94
-29.10
-23.93
-18.02
-11.86
-5.81
-0.01
5.34
10.01
13.71
16.17
17.28
17.14
16.03
14.33
12.41
10.56
8.98
7.86
7.35
7.58
8.58
10.30
12.50
14.80
16.78
18.10
18.49
17.93
16.67
15.11
13.73
12.81
12.29
11.76
10.63
8.43
5.04
0.76
-3.92
-8.57
-13.00
-17.35
-21.77
-26.27
-30.57
-34.14
-36.49
-37.30
-36.50
-34.15
-30.38
-25.23
-18.82
-11.35
-3.24
5.01
12.87
19.94
25.89
30.44
33.35
34.41
33.61
31.22
27.82
24.17
21.04
18.96
18.02
17.97
18.31
18.52
18.20
17.19
15.48
13.21
10.51
7.54
4.42
1.28
-1.73
-4.47
-6.82
-8.72
-10.22
-11.51
-12.85
-14.55
-16.85
-19.76
-23.10
-26.48
-29.42
-31.47
-32.30
-31.74
-29.80
-26.59
-22.35
-17.36
-11.99
-6.54
-1.29
3.57
7.89
11.49
14.26
16.07
16.88
16.75
15.83
14.34
12.57
10.86
9.47
8.58
8.15
7.98
7.78
7.36
6.69
5.94
5.38
5.06
4.91
4.58
3.72
2.18
0.04
-2.36
-4.66
-6.63
-8.28
-9.82
-11.52
-13.60
-16.05
-18.77
-21.56
-24.31
-26.96
-29.50
-31.73
-33.19
-33.29
-31.47
-27.54
-21.84
-15.15
-8.42
-2.42
2.47
6.29
9.25
11.50
13.02
13.72
13.61
12.89
11.96
11.25
11.04
11.36
12.03
12.81
13.46
13.92
14.22
14.47
14.73
14.94
15.02
14.83
14.33
13.46
12.27
10.77
8.94
6.80
4.38
1.79
-0.78
-3.18
-5.34
-7.37
-9.46
-11.88
-14.86
-18.51
-22.77
-27.34
-31.74
-35.26
-37.25
-37.21
-34.99
-30.81
-25.25
-18.96
-12.53
-6.31
-0.48
4.87
9.65
13.66
16.67
18.46
18.96
18.29
16.81
15.03
13.57
12.96
13.45
14.94
17.04
19.20
20.97
22.10
22.56
22.48
21.99
21.22
20.31
19.44
18.80
18.49
18.45
18.45
18.18
17.39
16.00
14.13
12.01
9.84
7.83
6.08
4.68
3.64
2.91
2.36
1.85
1.21
0.35
-0.69
-1.80
-2.86
-3.81
-4.73
-5.80
-7.14
-8.81
-10.67
-12.48
-14.13
-15.65
-17.21
-19.00
-21.17
-23.70
-26.52
-29.66
-33.22
-37.31
-41.84
-46.39
-50.31
-52.78
-53.14
-51.01
-46.46
-39.93
-32.13
-23.83
-15.71
-8.30
-1.89
3.37
7.39
10.16
11.74
12.35
12.36
12.23
12.36
13.01
14.25
15.95
17.88
19.87
21.70
23.24
24.42
25.17
25.49
25.41
25.04
24.47
23.86
23.30
22.84
22.50
22.18
21.76
21.16
20.32
19.26
18.09
16.92
15.83
14.85
13.90
12.89
11.81
10.63
9.39
8.06
6.50
4.52
2.06
-0.79
-3.69
-6.19
-7.98
-9.09
-9.90
-10.95
-12.69
-15.22
-18.24
-21.24
-23.80
-25.81
-27.57
-29.65
-32.50
-36.27
-40.50
-44.41
-47.02
-47.59
-45.81
-41.88
-36.41
-30.12
-23.62
-17.33
-11.45
-6.12
-1.42
2.50
5.59
7.90
9.57
10.78
11.71
12.41
12.87
13.10
13.20
13.36
13.78
14.57
15.70
17.05
18.52
20.07
21.75
23.49
25.11
26.30
26.76
26.38
25.27
23.77
22.24
20.95
20.01
19.33
18.75
18.08
17.15
15.83
14.05
11.85
9.40
6.93
4.72
2.91
1.54
0.55
-0.16
-0.62
-0.86
-1.01
-1.32
-2.17
-3.88
-6.60
-10.10
-13.90
-17.46
-20.34
-22.48
-24.22
-26.11
-28.80
-32.67
-37.65
-43.16
-48.22
-51.71
-52.75
-50.97
-46.61
-40.41
-33.30
-26.09
-19.31
-13.12
-7.55
-2.59
1.69
5.19
7.77
9.44
10.32
10.64
10.63
10.52
10.46
10.51
10.72
11.14
11.85
12.90
14.28
15.89
17.50
18.84
19.69
19.96
19.69
19.11
18.46
17.96
17.68
17.56
17.39
16.95
16.03
14.56
12.64
10.49
8.35
6.47
4.94
3.81
3.06
2.59
2.25
1.73
0.73
-1.08
-3.79
-7.22
-10.88
-14.19
-16.66
-18.17
-18.99
-19.74
-21.08
-23.51
-27.12
-31.55
-36.02
-39.59
-41.45
-41.16
-38.69
-34.40
-28.85
-22.59
-16.09
-9.73
-3.87
1.26
5.47
8.70
11.00
12.49
13.27
13.45
13.21
12.83
12.62
12.87
13.65
14.89
16.36
17.88
19.38
20.84
22.20
23.31
24.00
24.10
23.68
22.93
22.12
21.38
20.68
19.82
18.58
16.80
14.51
11.80
8.81
5.68
2.55
-0.38
-2.86
-4.71
-5.89
-6.62
-7.24
-8.12
-9.51
-11.45
-13.81
-16.46
-19.37
-22.63
-26.29
-30.27
-34.22
-37.53
-39.59
-39.93
-38.44
-35.36
-31.10
-26.07
-20.59
-14.82
-8.98
-3.38
1.57
5.51
8.32
10.26
11.79
13.33
15.01
16.59
17.69
18.03
17.76
17.37
17.47
18.50
20.45
22.92
25.30
27.06
27.95
27.99
27.41
26.47
25.36
24.16
22.93
21.74
20.65
19.74
18.99
18.29
17.40
15.99
13.86
11.02
7.69
4.31
1.29
-1.07
-2.76
-3.96
-5.00
-6.20
-7.84
-10.06
-12.89
-16.20
-19.69
-22.99
-25.86
-28.30
-30.66
-33.43
-37.04
-41.48
-46.25
-50.48
-53.15
-53.50
-51.21
-46.45
-39.79
-31.95
-23.65
-15.53
-8.02
-1.37
4.32
9.02
12.72
15.41
17.09
17.84
17.86
17.48
17.11
17.16
17.84
19.14
20.83
22.57
24.04
25.13
25.91
26.54
27.11
27.56
27.63
27.05
25.65
23.50
20.87
18.17
15.74
13.76
12.26
11.08
10.11
9.27
8.57
8.02
7.54
6.91
5.80
3.93
1.17
-2.25
-5.93
-9.33
-12.05
-14.03
-15.55
-17.09
-19.17
-22.13
-26.03
-30.68
-35.70
-40.57
-44.70
-47.47
-48.28
-46.69
-42.54
-36.05
-27.88
-18.96
-10.34
-2.89
2.89
6.99
9.74
11.64
13.11
14.36
15.35
16.01
16.32
16.45
16.66
17.19
18.08
19.20
20.29
21.11
21.61
21.87
22.06
22.26
22.46
22.55
22.40
21.91
21.04
19.83
18.34
16.60
14.61
12.43
10.14
7.93
5.98
4.39
3.07
1.81
0.30
-1.66
-4.10
-6.87
-9.69
-12.33
-14.75
-17.11
-19.70
-22.80
-26.43
-30.30
-33.80
-36.20
-36.83
-35.31
-31.69
-26.31
-19.80
-12.78
-5.82
0.64
6.29
10.85
14.18
16.26
17.27
17.54
17.46
17.41
17.58
18.01
18.61
19.27
19.93
20.61
21.38
22.35
23.48
24.66
25.62
26.10
25.94
25.14
23.91
22.49
21.13
19.92
18.87
17.86
16.82
15.67
14.32
12.70
10.72
8.37
5.76
3.08
0.51
-1.85
-4.10
-6.38
-8.82
-11.40
-13.99
-16.40
-18.54
-20.51
-22.61
-25.20
-28.48
-32.43
-36.65
-40.44
-42.99
-43.61
-41.89
-37.88
-32.00
-24.94
-17.40
-10.01
-3.23
2.63
7.40
11.02
13.53
15.05
15.71
15.68
15.17
14.46
13.94
13.98
14.83
16.45
18.55
20.71
22.54
23.85
24.66
25.12
25.36
25.43
25.30
24.89
24.11
22.93
21.40
19.65
17.85
16.19
14.81
13.73
12.87
12.11
11.36
10.56
9.69
8.75
7.68
6.46
5.07
3.53
1.88
0.10
-1.85
-3.99
-6.27
-8.56
-10.68
-12.59
-14.39
-16.36
-18.79
-21.85
-25.48
-29.44
-33.53
-37.57
-41.47
-45.08
-48.00
-49.66
-49.47
-47.01
-42.37
-36.06
-28.94
-21.92
-15.67
-10.49
-6.32
-2.92
-0.06
2.37
4.32
5.67
6.35
6.45
6.19
5.94
5.99
6.52
7.56
8.96
10.56
12.25
13.99
15.82
17.72
19.59
21.12
22.01
22.11
21.54
20.66
19.91
19.49
19.24
18.71
17.41
15.16
12.22
9.19
6.67
4.97
3.97
3.24
2.30
0.89
-1.02
-3.32
-5.86
-8.51
-11.15
-13.60
-15.70
-17.35
-18.66
-19.92
-21.55
-23.87
-26.93
-30.32
-33.32
-35.07
-34.84
-32.31
-27.67
-21.60
-15.00
-8.76
-3.49
0.53
3.39
5.30
6.49
7.11
7.30
7.27
7.23
7.38
7.81
8.49
9.34
10.28
11.30
12.40
13.56
14.70
15.71
16.52
17.16
17.68
18.05
18.13
17.60
16.23
13.96
11.02
7.83
4.77
1.97
-0.70
-3.50
-6.65
-10.11
-13.61
-16.76
-19.29
-21.14
-22.50
-23.77
-25.38
-27.67
-30.78
-34.53
-38.44
-41.84
-43.98
-44.24
-42.24
-37.83
-31.20
-22.76
-13.19
-3.44
5.49
12.70
17.66
20.35
21.22
21.01
20.43
19.99
19.84
19.92
20.03
20.03
19.90
19.76
19.76
20.02
20.60
21.38
22.20
22.84
23.13
23.00
22.42
21.47
20.26
18.98
17.79
16.77
15.87
14.86
13.47
11.53
9.12
6.62
4.56
3.42
3.38
4.20
5.30
6.02
5.80
4.47
2.26
-0.31
-2.68
-4.51
-5.78
-6.80
-8.08
-10.18
-13.52
-18.28
-24.29
-31.00
-37.43
-42.35
-44.58
-43.32
-38.55
-31.02
-22.06
-13.11
-5.26
1.02
5.83
9.54
12.55
15.01
16.90
18.16
18.85
19.17
19.30
19.29
18.99
18.17
16.67
14.59
12.31
10.30
8.96
8.42
8.58
9.13
9.73
10.08
9.97
9.32
8.15
6.57
4.71
2.72
0.66
-1.45
-3.66
-5.89
-7.98
-9.69
-10.77
-11.15
-11.01
-10.86
-11.33
-13.00
-16.15
-20.64
-25.91
-31.15
-35.47
-38.11
-38.63
-36.86
-32.99
-27.48
-20.91
-13.93
-7.10
-0.79
4.78
9.53
13.39
16.30
18.20
19.14
19.36
19.15
18.85
18.70
18.86
19.45
20.55
22.12
23.99
25.80
27.06
27.35
26.48
24.62
22.21
19.80
17.75
16.20
15.07
14.15
13.27
12.28
11.05
9.40
7.18
4.35
1.16
-2.01
-4.73
-6.77
-8.30
-9.82
-11.95
-15.17
-19.52
-24.62
-29.75
-34.10
-37.00
-38.04
-37.15
-34.41
-30.11
-24.59
-18.22
-11.49
-4.84
1.27
6.46
10.53
13.49
15.43
16.56
17.07
17.20
17.17
17.22
17.49
17.99
18.66
19.36
20.01
20.58
21.12
21.64
22.07
22.27
22.09
21.39
20.12
18.32
16.13
13.71
11.19
8.67
6.13
3.50
0.71
-2.23
-5.17
-7.83
-9.98
-11.56
-12.79
-14.11
-16.02
-18.90
-22.84
-27.64
-32.83
-37.73
-41.54
-43.49
-42.99
-39.83
-34.28
-27.09
-19.23
-11.65
-5.04
0.34
4.59
8.00
10.87
13.41
15.64
17.48
18.77
19.38
19.32
18.79
18.18
17.88
18.18
19.03
20.14
21.11
21.63
21.60
21.13
20.40
19.53
18.52
17.28
15.74
13.93
11.94
9.89
7.83
5.73
3.50
1.01
-1.84
-5.06
-8.62
-12.42
-16.37
-20.39
-24.36
-28.07
-31.09
-32.82
-32.61
-30.07
-25.24
-18.72
-11.44
-4.41
1.67
6.53
10.31
13.26
15.57
17.29
18.34
18.77
18.79
18.80
19.17
20.08
21.40
22.81
23.95
24.62
24.85
24.79
24.61
24.44
24.34
24.36
24.57
24.98
25.47
25.82
25.74
25.08
23.94
22.62
21.47
20.66
20.03
19.25
18.02
16.23
14.08
11.89
9.98
8.52
7.44
6.54
5.49
3.99
1.78
-1.18
-4.77
-8.70
-12.60
-16.19
-19.35
-22.13
-24.71
-27.30
-30.19
-33.65
-37.92
-42.96
-48.31
-53.00
-55.88
-55.97
-52.92
-47.12
-39.54
-31.35
-23.49
-16.46
-10.36
-5.14
-0.71
2.95
5.82
7.96
9.48
10.59
11.49
12.31
13.14
14.04
15.03
16.10
17.21
18.31
19.35
20.29
21.13
21.94
22.70
23.35
23.77
23.85
23.53
22.87
21.98
20.97
19.92
18.81
17.55
16.06
14.32
12.37
10.25
8.02
5.76
3.49
1.24
-1.01
-3.32
-5.75
-8.34
-11.06
-13.86
-16.66
-19.49
-22.47
-25.81
-29.68
-34.15
-39.04
-43.86
-47.92
-50.40
-50.65
-48.29
-43.47
-36.70
-28.85
-20.80
-13.26
-6.66
-1.12
3.38
7.04
9.99
12.32
14.11
15.38
16.17
16.59
16.84
17.17
17.82
18.89
20.28
21.73
22.95
23.79
24.29
24.72
25.28
26.05
26.79
27.08
26.58
25.13
22.97
20.53
18.26
16.43
15.04
13.94
12.91
11.81
10.57
9.24
7.80
6.30
4.71
3.03
1.32
-0.37
-1.98
-3.50
-5.00
-6.66
-8.71
-11.29
-14.39
-17.79
-21.20
-24.36
-27.24
-29.99
-32.95
-36.41
-40.50
-45.09
-49.73
-53.77
-56.42
-57.00
-55.08
-50.65
-44.18
-36.40
-28.15
-20.14
-12.91
-6.76
-1.86
1.71
4.04
5.32
5.85
5.99
5.99
6.07
6.36
6.99
8.01
9.44
11.21
13.13
15.06
16.87
18.58
20.21
21.80
23.24
24.37
25.05
25.22
24.99
24.50
23.91
23.22
22.35
21.20
19.73
18.05
16.34
14.76
13.34
12.02
10.66
9.18
7.68
6.25
4.93
3.61
2.12
0.27
-1.96
-4.42
-6.87
-9.15
-11.28
-13.40
-15.74
-18.50
-21.82
-25.72
-30.09
-34.63
-38.73
-41.65
-42.63
-41.30
-37.80
-32.77
-26.99
-21.08
-15.35
-9.84
-4.58
0.22
4.22
7.07
8.75
9.58
10.20
11.15
12.66
14.49
16.18
17.34
17.91
18.21
18.63
19.44
20.55
21.60
22.28
22.46
22.27
22.01
21.88
21.87
21.77
21.41
20.78
20.00
19.18
18.25
16.96
15.08
12.58
9.73
6.98
4.72
3.03
1.69
0.20
-1.85
-4.63
-7.96
-11.43
-14.54
-17.00
-18.82
-20.21
-21.51
-23.07
-25.21
-28.17
-32.08
-36.73
-41.56
-45.65
-47.91
-47.53
-44.27
-38.62
-31.55
-24.09
-17.01
-10.66
-5.12
-0.41
3.35
6.06
7.74
8.58
8.95
9.20
9.58
10.18
11.00
11.97
13.09
14.30
15.52
16.61
17.45
18.04
18.53
19.09
19.82
20.65
21.30
21.46
20.90
19.65
17.97
16.28
14.89
13.96
13.38
12.89
12.23
11.25
9.97
8.47
6.83
5.06
3.19
1.23
-0.75
-2.64
-4.36
-5.85
-7.14
-8.33
-9.58
-11.09
-13.01
-15.46
-18.39
-21.76
-25.43
-29.34
-33.43
-37.61
-41.71
-45.33
-47.97
-49.02
-48.09
-45.04
-40.19
-34.07
-27.34
-20.58
-14.23
-8.54
-3.59
0.58
4.03
6.73
8.69
9.88
10.33
10.19
9.72
9.26
9.12
9.46
10.32
11.63
13.27
15.10
17.00
18.80
20.32
21.36
21.82
21.75
21.33
20.79
20.31
20.00
19.78
19.53
19.09
18.32
17.16
15.61
13.73
11.63
9.44
7.25
5.11
2.92
0.54
-2.11
-5.09
-8.14
-10.94
-13.13
-14.56
-15.37
-16.02
-17.07
-19.04
-22.14
-26.17
-30.69
-34.99
-38.34
-40.07
-39.71
-37.09
-32.38
-26.13
-19.07
-12.00
-5.57
-0.18
4.07
7.31
9.81
11.83
13.53
14.92
15.84
16.17
15.93
15.33
14.72
14.47
14.75
15.50
16.47
17.41
18.23
18.96
19.70
20.44
21.00
21.14
20.74
19.86
18.70
17.46
16.23
14.87
13.23
11.23
9.02
6.83
4.84
3.02
1.14
-1.07
-3.70
-6.59
-9.40
-11.89
-13.98
-15.81
-17.56
-19.32
-21.11
-22.94
-25.00
-27.58
-30.89
-34.85
-38.91
-42.24
-43.99
-43.66
-41.22
-37.05
-31.74
-25.93
-20.10
-14.63
-9.70
-5.39
-1.68
1.53
4.24
6.39
7.82
8.49
8.51
8.18
7.92
8.03
8.63
9.70
11.15
12.96
15.07
17.38
19.62
21.39
22.40
22.55
22.01
21.16
20.36
19.79
19.44
19.15
18.74
18.07
17.07
15.68
13.88
11.74
9.43
7.22
5.36
3.93
2.83
1.79
0.46
-1.35
-3.64
-6.20
-8.71
-10.90
-12.66
-14.08
-15.52
-17.48
-20.42
-24.57
-29.79
-35.61
-41.24
-45.86
-48.77
-49.49
-47.85
-43.96
-38.21
-31.18
-23.59
-16.10
-9.25
-3.31
1.65
5.68
8.90
11.39
13.23
14.54
15.39
15.81
15.84
15.58
15.26
15.30
16.04
17.68
20.08
22.88
25.54
27.61
28.78
28.96
28.24
26.85
25.08
23.25
21.65
20.45
19.69
19.26
18.96
18.54
17.74
16.43
14.56
12.26
9.77
7.35
5.15
3.13
1.10
-1.21
-3.91
-7.01
-10.44
-14.12
-18.02
-22.11
-26.36
-30.60
-34.55
-37.78
-39.78
-40.12
-38.50
-34.85
-29.44
-22.72
-15.30
-7.83
-0.84
5.34
10.47
14.45
17.32
19.18
20.25
20.79
21.04
21.18
21.33
21.55
21.96
22.65
23.67
24.98
26.41
27.69
28.56
28.89
28.66
27.99
27.05
25.93
24.66
23.19
21.49
19.56
17.40
15.06
12.50
9.70
6.69
3.59
0.64
-1.91
-3.93
-5.48
-6.78
-8.13
-9.79
-11.88
-14.35
-17.05
-19.89
-22.79
-25.88
-29.28
-33.03
-36.93
-40.43
-42.74
-43.08
-40.94
-36.37
-29.98
-22.70
-15.55
-9.22
-3.98
0.24
3.74
6.72
9.22
11.15
12.46
13.26
13.82
14.41
15.15
16.01
16.76
17.29
17.69
18.23
19.28
20.98
23.18
25.40
27.11
27.90
27.62
26.46
24.76
22.93
21.30
20.04
19.11
18.25
17.12
15.51
13.41
11.08
8.85
6.99
5.54
4.28
3.02
1.66
0.25
-1.06
-2.25
-3.47
-4.99
-6.98
-9.37
-11.93
-14.41
-16.77
-19.27
-22.36
-26.39
-31.40
-36.99
-42.36
-46.61
-48.92
-48.78
-46.14
-41.33
-35.03
-28.12
-21.40
-15.45
-10.49
-6.40
-2.90
0.32
3.37
6.19
8.62
10.55
11.97
13.05
13.98
14.91
15.88
16.87
17.89
19.01
20.37
21.98
23.67
25.12
25.94
25.93
25.15
23.97
22.88
22.18
21.93
21.89
21.62
20.83
19.40
17.54
15.58
13.88
12.58
11.65
10.87
10.01
8.87
7.38
5.55
3.43
1.09
-1.44
-4.00
-6.43
-8.55
-10.23
-11.49
-12.53
-13.70
-15.38
-17.82
-21.04
-24.76
-28.46
-31.49
-33.26
-33.33
-31.53
-27.99
-23.14
-17.56
-11.91
-6.72
-2.34
1.13
3.78
5.84
7.58
9.23
10.97
12.77
14.48
15.80
16.48
16.46
15.93
15.32
15.09
15.51
16.56
17.97
19.33
20.30
20.73
20.64
20.20
19.58
18.92
18.22
17.42
16.42
15.15
13.65
12.05
10.51
9.13
7.94
6.83
5.63
4.16
2.33
0.11
-2.42
-5.12
-7.82
-10.38
-12.71
-14.88
-17.02
-19.32
-21.92
-24.90
-28.26
-31.91
-35.75
-39.51
-42.74
-44.87
-45.41
-44.11
-41.15
-37.00
-32.24
-27.34
-22.48
-17.67
-12.89
-8.25
-3.98
-0.35
2.51
4.69
6.35
7.64
8.66
9.45
10.14
10.92
12.02
13.57
15.51
17.60
19.53
21.06
22.07
22.57
22.64
22.36
21.85
21.21
20.56
19.97
19.45
18.92
18.25
17.35
16.18
14.83
13.48
12.25
11.22
10.35
9.54
8.72
7.90
7.12
6.31
5.37
3.99
1.97
-0.79
-4.12
-7.63
-10.94
-13.78
-16.10
-18.07
-19.93
-21.93
-24.28
-27.16
-30.66
-34.73
-39.05
-42.96
-45.56
-46.07
-44.02
-39.56
-33.32
-26.29
-19.47
-13.56
-8.85
-5.20
-2.27
0.34
2.87
5.30
7.46
9.09
10.10
10.58
10.85
11.33
12.35
13.99
16.05
18.18
20.01
21.38
22.32
23.02
23.66
24.29
24.76
24.86
24.46
23.52
22.22
20.81
19.52
18.45
17.63
16.99
16.43
15.81
15.03
13.98
12.70
11.30
9.94
8.76
7.76
6.80
5.63
4.04
1.87
-0.89
-4.11
-7.54
-10.90
-13.99
-16.76
-19.38
-22.24
-25.70
-29.93
-34.69
-39.36
-43.11
-45.21
-45.23
-43.11
-39.15
-33.82
-27.65
-21.14
-14.77
-8.86
-3.62
0.86
4.56
7.45
9.54
10.84
11.54
11.96
12.41
13.17
14.29
15.63
16.92
17.90
18.45
18.66
18.75
18.99
19.57
20.43
21.37
22.04
22.15
21.60
20.51
19.27
18.23
17.57
17.19
16.78
15.98
14.57
12.63
10.46
8.43
6.85
5.81
5.12
4.47
3.63
2.53
1.28
0.01
-1.26
-2.78
-4.87
-7.69
-11.07
-14.53
-17.55
-19.84
-21.58
-23.34
-25.72
-29.11
-33.42
-38.23
-42.88
-46.75
-49.25
-49.96
-48.63
-45.31
-40.32
-34.26
-27.78
-21.49
-15.76
-10.78
-6.64
-3.35
-0.81
1.16
2.81
4.44
6.22
8.13
10.02
11.70
13.07
14.22
15.27
16.39
17.63
18.94
20.25
21.48
22.59
23.58
24.39
24.95
25.18
24.98
24.34
23.37
22.24
21.10
20.09
19.20
18.40
17.59
16.68
15.56
14.14
12.34
10.19
7.88
5.67
3.79
2.37
1.30
0.30
-0.90
-2.50
-4.53
-6.86
-9.36
-11.90
-14.45
-16.91
-19.29
-21.65
-24.18
-27.13
-30.72
-34.89
-39.22
-42.90
-45.03
-44.90
-42.29
-37.52
-31.34
-24.53
-17.78
-11.44
-5.70
-0.65
3.56
6.82
9.03
10.36
11.09
11.65
12.44
13.65
15.29
17.13
18.86
20.24
21.16
21.71
22.12
22.64
23.39
24.24
24.91
25.08
24.55
23.38
21.83
20.26
18.95
17.97
17.17
16.31
15.20
13.77
12.11
10.36
8.56
6.66
4.48
1.88
-1.15
-4.42
-7.54
-10.19
-12.20
-13.60
-14.63
-15.60
-16.74
-18.22
-20.11
-22.46
-25.35
-28.78
-32.63
-36.50
-39.81
-41.83
-41.94
-39.87
-35.77
-30.20
-23.95
-17.77
-12.20
-7.47
-3.55
-0.30
2.38
4.57
6.25
7.48
8.37
9.13
9.97
11.04
12.32
13.69
14.98
16.06
16.95
17.81
18.80
20.06
21.50
22.88
23.83
24.07
23.52
22.36
20.96
19.66
18.63
17.85
17.14
16.31
15.31
14.28
13.46
13.00
12.84
12.69
12.17
11.01
9.25
7.27
5.60
4.56
4.11
3.79
2.90
0.97
-2.09
-5.88
-9.76
-13.19
-15.98
-18.29
-20.46
-22.87
-25.74
-29.19
-33.19
-37.63
-42.24
-46.49
-49.67
-51.07
-50.21
-47.02
-41.87
-35.47
-28.62
-21.99
-16.03
-10.93
-6.62
-2.93
0.33
3.28
5.98
8.39
10.49
12.33
13.99
15.51
16.81
17.73
18.10
17.94
17.52
17.24
17.57
18.65
20.33
22.15
23.58
24.29
24.22
23.60
22.75
21.94
21.25
20.65
20.06
19.47
18.94
18.47
17.98
17.31
16.32
14.96
13.34
11.56
9.69
7.66
5.34
2.78
0.23
-1.96
-3.52
-4.51
-5.37
-6.67
-8.86
-12.03
-15.92
-20.13
-24.43
-28.72
-33.05
-37.34
-41.25
-44.21
-45.60
-45.02
-42.40
-38.10
-32.67
-26.78
-21.00
-15.65
-10.85
-6.51
-2.51
1.19
4.45
7.13
9.11
10.47
11.42
12.26
13.18
14.26
15.47
16.77
18.11
19.53
21.04
22.63
24.15
25.32
25.88
25.67
24.67
23.15
21.50
20.16
19.39
19.21
19.42
19.65
19.54
18.91
17.72
16.08
14.18
12.22
10.36
8.71
7.29
5.95
4.50
2.76
0.64
-1.86
-4.68
-7.72
-10.93
-14.25
-17.64
-20.99
-24.24
-27.36
-30.40
-33.47
-36.54
-39.36
-41.40
-41.98
-40.56
-37.03
-31.74
-25.43
-18.94
-12.87
-7.40
-2.46
2.07
6.18
9.57
11.90
13.07
13.31
13.13
13.12
13.66
14.78
16.29
17.88
19.29
20.47
21.45
22.31
23.06
23.67
24.08
24.21
23.99
23.32
22.23
20.85
19.41
18.22
17.47
17.14
16.95
16.53
15.56
13.90
11.67
9.22
6.94
5.14
3.89
2.97
1.99
0.55
-1.58
-4.37
-7.57
-10.83
-13.90
-16.66
-19.12
-21.32
-23.42
-25.61
-28.23
-31.63
-36.01
-41.16
-46.35
-50.41
-52.23
-51.11
-47.11
-40.99
-33.88
-26.77
-20.26
-14.52
-9.40
-4.79
-0.69
2.85
5.79
8.24
10.43
12.53
14.52
16.22
17.38
17.94
18.10
18.25
18.78
19.91
21.56
23.45
25.27
26.73
27.72
28.16
28.01
27.32
26.23
24.99
23.90
23.17
22.82
22.67
22.44
21.80
20.57
18.73
16.46
14.06
11.90
10.23
9.11
8.35
7.53
6.18
4.07
1.24
-1.95
-5.04
-7.76
-10.12
-12.38
-14.84
-17.65
-20.77
-24.09
-27.58
-31.31
-35.37
-39.60
-43.52
-46.33
-47.25
-45.81
-42.10
-36.77
-30.69
-24.69
-19.16
-14.07
-9.17
-4.23
0.74
5.45
9.48
12.51
14.48
15.56
16.05
16.33
16.69
17.32
18.31
19.63
21.17
22.71
24.11
25.27
26.19
26.95
27.59
28.06
28.20
27.85
26.99
25.74
24.27
22.72
21.10
19.27
17.16
14.87
12.65
10.82
9.60
8.87
8.29
7.40
5.79
3.31
0.09
-3.51
-7.06
-10.18
-12.63
-14.44
-15.89
-17.39
-19.39
-22.30
-26.28
-31.18
-36.49
-41.38
-44.84
-46.00
-44.33
-39.94
-33.51
-26.14
-18.92
-12.62
-7.52
-3.50
-0.25
2.51
4.91
7.05
9.00
10.82
12.49
13.95
15.08
15.86
16.47
17.13
18.09
19.40
20.90
22.39
23.78
25.06
26.29
27.37
28.01
27.86
26.74
24.77
22.40
20.15
18.39
17.20
16.41
15.79
15.17
14.40
13.36
11.94
10.10
7.89
5.50
3.12
0.83
-1.38
-3.60
-5.86
-8.04
-10.06
-11.89
-13.70
-15.73
-18.21
-21.07
-24.11
-27.10
-29.99
-32.96
-36.30
-40.05
-43.90
-47.14
-48.92
-48.59
-45.99
-41.42
-35.48
-28.89
-22.20
-15.78
-9.87
-4.60
-0.08
3.64
6.55
8.74
10.35
11.55
12.50
13.32
14.06
14.77
15.45
16.20
17.12
18.31
19.79
21.42
22.94
24.09
24.67
24.67
24.22
23.53
22.75
21.91
20.95
19.81
18.53
17.28
16.28
15.73
15.59
15.65
15.57
15.02
13.88
12.23
10.37
8.57
6.94
5.42
3.73
1.65
-0.92
-3.87
-6.96
-9.86
-12.40
-14.60
-16.76
-19.37
-22.88
-27.48
-32.90
-38.45
-43.17
-46.15
-46.78
-44.95
-40.96
-35.41
-28.99
-22.36
-16.04
-10.40
-5.58
-1.55
1.81
4.67
7.15
9.31
11.14
12.70
14.02
15.24
16.44
17.68
18.95
20.20
21.30
22.08
22.41
22.23
21.64
20.91
20.34
20.16
20.41
20.90
21.30
21.31
20.80
19.86
18.69
17.57
16.61
15.72
14.71
13.37
11.64
9.58
7.39
5.27
3.31
1.45
-0.48
-2.66
-5.23
-8.23
-11.60
-15.19
-18.84
-22.36
-25.68
-28.86
-32.06
-35.46
-38.99
-42.25
-44.51
-44.95
-43.01
-38.66
-32.43
-25.18
-17.82
-10.99
-5.01
0.08
4.33
7.74
10.33
12.14
13.30
14.03
14.59
15.13
15.64
15.99
16.01
15.73
15.33
15.17
15.58
16.62
18.01
19.25
19.82
19.50
18.51
17.29
16.33
15.89
15.85
15.94
15.86
15.59
15.22
14.88
14.53
14.00
13.04
11.57
9.73
7.78
5.95
4.25
2.53
0.58
-1.71
-4.28
-6.93
-9.48
-11.86
-14.09
-16.29
-18.55
-20.92
-23.45
-26.25
-29.50
-33.30
-37.58
-42.00
-45.93
-48.58
-49.24
-47.50
-43.39
-37.38
-30.25
-22.90
-16.05
-10.22
-5.60
-2.11
0.47
2.46
4.13
5.64
7.03
8.18
9.01
9.55
9.98
10.53
11.40
12.63
14.14
15.74
17.27
18.63
19.75
20.55
20.97
20.96
20.53
19.79
18.98
18.26
17.75
17.44
17.26
17.09
16.87
16.55
16.12
15.57
14.85
13.94
12.79
11.37
9.65
7.64
5.43
3.09
0.76
-1.46
-3.52
-5.40
-7.17
-9.01
-11.19
-13.89
-17.30
-21.46
-26.26
-31.47
-36.58
-40.96
-43.83
-44.54
-42.81
-38.93
-33.66
-27.96
-22.57
-17.75
-13.36
-9.02
-4.54
-0.01
4.20
7.71
10.32
12.04
13.10
13.72
14.19
14.73
15.54
16.75
18.37
20.24
22.14
23.83
25.13
25.94
26.21
25.90
25.01
23.62
21.91
20.15
18.55
17.22
16.11
15.00
13.74
12.23
10.55
8.84
7.17
5.50
3.62
1.33
-1.40
-4.32
-7.03
-9.18
-10.73
-12.02
-13.58
-15.85
-19.00
-22.81
-26.91
-30.94
-34.69
-38.01
-40.69
-42.37
-42.63
-41.14
-37.93
-33.35
-27.95
-22.25
-16.57
-11.04
-5.74
-0.90
3.24
6.41
8.56
9.82
10.55
11.14
11.87
12.85
13.99
15.15
16.17
17.02
17.71
18.39
19.22
20.28
21.58
22.98
24.24
25.10
25.39
25.07
24.20
22.92
21.48
20.10
18.97
18.15
17.48
16.66
15.38
13.45
10.99
8.38
6.06
4.32
3.08
1.93
0.43
-1.65
-4.21
-6.88
-9.31
-11.39
-13.29
-15.33
-17.80
-20.83
-24.32
-28.17
-32.26
-36.53
-40.88
-45.01
-48.40
-50.41
-50.49
-48.35
-44.07
-38.06
-30.96
-23.49
-16.34
-10.04
-4.85
-0.74
2.52
5.25
7.74
10.11
12.29
14.20
15.74
16.90
17.79
18.55
19.29
20.12
21.16
22.42
23.90
25.44
26.80
27.71
28.05
27.82
27.14
26.12
24.81
23.25
21.53
19.86
18.50
17.62
17.16
16.81
16.16
14.94
13.14
11.05
9.04
7.42
6.17
5.04
3.69
1.83
-0.57
-3.28
-5.96
-8.35
-10.37
-12.13
-13.87
-15.81
-18.17
-21.09
-24.72
-29.06
-33.82
-38.30
-41.52
-42.49
-40.66
-36.16
-29.79
-22.65
-15.76
-9.74
-4.74
-0.68
2.57
5.09
6.87
7.99
8.72
9.34
10.14
11.24
12.57
13.97
15.36
16.77
18.32
20.07
21.93
23.64
24.88
25.43
25.19
24.29
22.95
21.37
19.76
18.25
16.97
15.95
15.17
14.43
13.53
12.25
10.55
8.52
6.34
4.19
2.11
0.07
-2.00
-4.10
-6.26
-8.53
-11.04
-14.04
-17.76
-22.33
-27.63
-33.19
-38.25
-41.91
-43.43
-42.43
-39.10
-34.07
-28.13
-22.00
-16.15
-10.77
-5.90
-1.55
2.21
5.37
7.99
10.18
12.07
13.66
14.86
15.55
15.75
15.62
15.44
15.48
15.88
16.68
17.81
19.16
20.64
22.08
23.28
24.00
24.00
23.18
21.58
19.42
17.04
14.74
12.73
11.12
9.82
8.65
7.41
5.93
4.12
2.06
-0.14
-2.34
-4.47
-6.50
-8.47
-10.44
-12.44
-14.50
-16.71
-19.21
-22.18
-25.77
-29.97
-34.52
-38.90
-42.43
-44.53
-44.80
-43.12
-39.71
-34.90
-29.18
-23.00
-16.85
-11.11
-6.07
-1.77
1.88
5.12
8.10
10.83
13.15
14.82
15.71
15.87
15.57
15.15
14.92
15.13
15.82
16.93
18.27
19.68
20.99
22.12
23.07
23.79
24.24
24.35
24.00
23.21
22.03
20.59
19.02
17.38
15.70
13.98
12.22
10.41
8.45
6.28
3.85
1.26
-1.29
-3.53
-5.30
-6.65
-7.81
-9.07
-10.66
-12.71
-15.33
-18.67
-22.86
-27.85
-33.23
-38.18
-41.72
-43.03
-41.77
-38.19
-33.05
-27.21
-21.35
-15.82
-10.71
-6.01
-1.76
1.96
5.05
7.48
9.35
10.82
12.06
13.27
14.53
15.91
17.37
18.85
20.30
21.65
22.88
23.96
24.84
25.40
25.48
24.96
23.79
22.11
20.22
18.42
16.91
15.72
14.69
13.65
12.43
10.99
9.38
7.64
5.71
3.55
1.10
-1.56
-4.19
-6.50
-8.31
-9.65
-10.84
-12.33
-14.58
-17.83
-22.05
-26.84
-31.56
-35.38
-37.55
-37.56
-35.26
-30.90
-25.08
-18.53
-12.01
-6.10
-1.17
2.62
5.30
7.06
8.22
9.12
10.03
11.05
12.09
12.98
13.62
14.13
14.74
15.67
16.99
18.59
20.25
21.74
22.91
23.67
23.94
23.60
22.58
20.89
18.73
16.48
14.47
12.94
11.85
10.99
10.01
8.61
6.68
4.21
1.42
-1.43
-4.00
-6.10
-7.71
-9.05
-10.49
-12.36
-14.87
-17.95
-21.44
-25.14
-28.95
-32.78
-36.45
-39.64
-41.81
-42.38
-40.98
-37.65
-32.89
-27.44
-22.00
-16.94
-12.23
-7.61
-2.87
1.84
6.08
9.29
11.17
11.86
11.90
12.00
12.61
13.77
15.18
16.49
17.51
18.38
19.27
20.31
21.37
22.13
22.30
21.77
20.70
19.37
18.13
17.21
16.70
16.56
16.64
16.74
16.58
15.95
14.75
13.08
11.16
9.27
7.60
6.13
4.71
3.11
1.13
-1.28
-3.98
-6.77
-9.38
-11.63
-13.52
-15.20
-16.93
-18.98
-21.52
-24.61
-28.16
-31.92
-35.52
-38.41
-39.98
-39.66
-37.12
-32.48
-26.26
-19.36
-12.74
-7.04
-2.44
1.32
4.69
7.96
11.08
13.72
15.49
16.17
15.88
15.08
14.24
13.73
13.61
13.81
14.22
14.84
15.82
17.29
19.21
21.31
23.11
24.13
24.06
22.92
21.00
18.76
16.56
14.55
12.65
10.72
8.72
6.77
5.15
4.01
3.26
2.56
1.39
-0.53
-3.10
-5.86
-8.23
-9.87
-10.91
-11.83
-13.27
-15.69
-19.13
-23.27
-27.50
-31.09
-33.39
-33.95
-32.61
-29.58
-25.35
-20.61
-15.97
-11.77
-8.05
-4.64
-1.48
1.35
3.60
5.06
5.81
6.20
6.76
7.87
9.62
11.70
13.68
15.20
16.18
16.71
17.01
17.20
17.27
17.14
16.81
16.42
16.13
16.03
16.08
16.03
15.66
14.89
13.80
12.60
11.44
10.36
9.25
7.97
6.50
4.99
3.67
2.70
2.06
1.51
0.68
-0.69
-2.71
-5.22
-7.86
-10.27
-12.20
-13.72
-15.15
-17.00
-19.67
-23.33
-27.85
-32.77
-37.56
-41.66
-44.60
-46.05
-45.80
-43.80
-40.25
-35.52
-30.20
-24.82
-19.77
-15.12
-10.74
-6.48
-2.32
1.56
4.85
7.26
8.68
9.27
9.36
9.40
9.73
10.48
11.60
12.99
14.54
16.25
18.15
20.13
21.90
23.13
23.57
23.31
22.70
22.26
22.30
22.78
23.33
23.44
22.76
21.29
19.28
17.15
15.26
13.78
12.71
11.87
10.98
9.81
8.22
6.23
3.97
1.66
-0.65
-2.95
-5.32
-7.73
-10.05
-12.11
-13.89
-15.62
-17.73
-20.67
-24.60
-29.28
-34.12
-38.46
-41.78
-43.78
-44.38
-43.54
-41.25
-37.51
-32.56
-26.86
-21.06
-15.87
-11.79
-8.90
-6.94
-5.34
-3.61
-1.49
0.91
3.25
5.11
6.31
6.95
7.40
8.09
9.33
11.17
13.43
15.81
18.03
19.85
21.18
22.02
22.43
22.55
22.48
22.27
21.90
21.30
20.48
19.56
18.70
18.01
17.47
16.81
15.77
14.20
12.21
10.10
8.17
6.51
4.96
3.25
1.17
-1.22
-3.72
-6.12
-8.38
-10.67
-13.18
-16.05
-19.12
-22.22
-25.15
-27.99
-30.95
-34.19
-37.61
-40.75
-42.87
-43.26
-41.59
-37.97
-32.92
-27.11
-21.07
-15.10
-9.27
-3.63
1.66
6.29
9.92
12.40
13.86
14.67
15.27
15.98
16.84
17.76
18.60
19.35
20.15
21.14
22.33
23.49
24.25
24.33
23.68
22.58
21.48
20.76
20.51
20.52
20.35
19.62
18.16
16.11
13.75
11.42
9.33
7.57
6.19
5.15
4.32
3.44
2.14
0.04
-2.98
-6.71
-10.70
-14.39
-17.43
-19.80
-21.77
-23.75
-26.15
-29.20
-32.94
-37.15
-41.43
-45.15
-47.56
-47.96
-45.94
-41.58
-35.35
-28.00
-20.35
-13.04
-6.49
-0.91
3.64
7.21
9.93
12.03
13.74
15.26
16.70
18.00
19.06
19.79
20.23
20.55
20.96
21.60
22.49
23.59
24.77
26.00
27.22
28.35
29.24
29.65
29.39
28.40
26.87
25.10
23.39
21.87
20.47
19.02
17.41
15.61
13.79
12.09
10.59
9.17
7.64
5.76
3.39
0.55
-2.63
-5.90
-9.03
-11.84
-14.25
-16.33
-18.28
-20.36
-22.85
-25.92
-29.66
-34.05
-38.86
-43.72
-48.02
-51.01
-52.01
-50.57
-46.76
-41.07
-34.27
-27.10
-20.03
-13.26
-6.77
-0.62
4.94
9.55
12.87
14.80
15.62
15.88
16.14
16.82
18.02
19.55
21.09
22.42
23.58
24.79
26.33
28.20
30.14
31.62
32.22
31.85
30.82
29.65
28.72
28.12
27.60
26.80
25.52
23.83
22.02
20.28
18.67
16.96
14.90
12.44
9.81
7.37
5.38
3.85
2.43
0.71
-1.66
-4.68
-8.05
-11.36
-14.31
-16.92
-19.44
-22.26
-25.62
-29.55
-33.84
-38.11
-41.91
-44.73
-46.07
-45.45
-42.57
-37.42
-30.38
-22.20
-13.82
-6.17
0.13
4.89
8.31
10.80
12.77
14.47
15.97
17.24
18.21
18.95
19.55
20.13
20.74
21.38
22.04
22.73
23.59
24.68
26.01
27.42
28.60
29.22
29.08
28.18
26.70
24.92
23.12
21.45
19.93
18.50
16.97
15.14
12.87
10.16
7.26
4.54
2.39
0.87
-0.29
-1.63
-3.75
-6.85
-10.77
-14.96
-18.86
-22.22
-25.13
-27.97
-31.15
-34.86
-38.93
-42.88
-46.05
-47.78
-47.60
-45.36
-41.24
-35.69
-29.20
-22.22
-15.07
-8.02
-1.34
4.59
9.44
12.95
15.11
16.15
16.39
16.20
15.88
15.76
16.03
16.82
18.09
19.62
21.03
21.97
22.31
22.19
21.96
21.94
22.26
22.74
23.03
22.76
21.81
20.28
18.52
16.84
15.39
14.12
12.84
11.41
9.86
8.37
7.11
6.14
5.32
4.38
3.03
1.14
-1.23
-3.88
-6.54
-9.04
-11.34
-13.53
-15.76
-18.19
-20.96
-24.19
-27.97
-32.33
-37.12
-42.03
-46.53
-49.92
-51.47
-50.63
-47.23
-41.61
-34.49
-26.84
-19.53
-13.12
-7.79
-3.42
0.16
3.11
5.51
7.46
9.10
10.63
12.22
13.86
15.40
16.66
17.53
18.12
18.65
19.36
20.36
21.64
23.01
24.30
25.40
26.17
26.47
26.24
25.45
24.18
22.64
21.04
19.56
18.25
17.03
15.71
14.18
12.33
10.16
7.75
5.21
2.64
0.19
-2.02
-3.88
-5.35
-6.56
-7.78
-9.40
-11.73
-14.97
-19.10
-23.90
-28.99
-33.94
-38.24
-41.38
-42.88
-42.46
-40.12
-36.15
-31.04
-25.34
-19.55
-14.02
-9.01
-4.60
-0.81
2.50
5.47
8.20
10.64
12.63
13.94
14.51
14.51
14.35
14.51
15.27
16.62
18.29
19.91
21.26
22.25
22.93
23.32
23.42
23.12
22.35
21.11
19.45
17.44
15.18
12.78
10.37
8.13
6.12
4.24
2.20
-0.31
-3.42
-6.94
-10.44
-13.51
-15.97
-18.02
-20.08
-22.56
-25.63
-29.24
-33.14
-36.96
-40.29
-42.60
-43.41
-42.32
-39.20
-34.32
-28.22
-21.58
-14.99
-8.87
-3.39
1.36
5.37
8.65
11.23
13.14
14.37
14.94
14.87
14.43
13.96
13.85
14.38
15.56
17.19
19.00
20.78
22.47
24.11
25.68
27.10
28.25
28.94
29.21
29.19
29.10
29.08
29.13
29.08
28.72
27.81
26.20
23.86
20.86
17.43
13.88
10.56
7.76
5.64
4.14
3.01
1.88
0.32
-1.98
-5.04
-8.58
-12.08
-15.03
-17.17
-18.62
-19.88
-21.61
-24.45
-28.65
-34.16
-40.48
-46.82
-52.24
-55.82
-56.86
-55.11
-50.84
-44.75
-37.72
-30.53
-23.64
-17.28
-11.54
-6.52
-2.33
1.02
3.64
5.76
7.59
9.21
10.55
11.56
12.32
13.02
14.01
15.57
17.81
20.61
23.74
26.86
29.60
31.65
32.75
32.86
32.13
30.83
29.30
27.79
26.41
25.17
24.07
23.10
22.16
21.12
19.73
17.87
15.56
13.01
10.48
8.19
6.14
4.12
1.82
-0.99
-4.30
-7.91
-11.46
-14.63
-17.18
-19.16
-20.82
-22.64
-25.13
-28.57
-32.96
-37.86
-42.50
-46.08
-47.91
-47.64
-45.22
-40.96
-35.29
-28.76
-21.90
-15.19
-9.02
-3.71
0.57
3.78
6.01
7.47
8.41
9.11
9.80
10.64
11.76
13.24
15.09
17.23
19.51
21.70
23.62
25.16
26.26
26.92
27.10
26.84
26.27
25.60
25.04
24.71
24.52
24.24
23.58
22.39
20.65
18.47
15.98
13.24
10.28
7.16
4.00
1.00
-1.77
-4.32
-6.75
-9.16
-11.52
-13.82
-16.10
-18.49
-21.25
-24.54
-28.39
-32.63
-36.92
-40.86
-44.00
-45.87
-46.04
-44.22
-40.39
-34.86
-28.23
-21.21
-14.28
-7.69
-1.42
4.52
9.98
14.58
17.96
19.96
20.74
20.83
20.82
21.12
21.85
22.79
23.66
24.25
24.65
25.13
25.98
27.24
28.67
29.79
30.18
29.65
28.41
26.85
25.39
24.26
23.41
22.60
21.56
20.09
18.15
15.78
13.10
10.21
7.31
4.61
2.30
0.42
-1.17
-2.72
-4.53
-6.76
-9.47
-12.52
-15.71
-18.84
-21.80
-24.62
-27.51
-30.79
-34.70
-39.30
-44.22
-48.81
-52.18
-53.52
-52.35
-48.70
-43.04
-36.07
-28.53
-21.04
-13.99
-7.55
-1.81
3.15
7.22
10.27
12.31
13.48
14.21
15.00
16.24
18.03
20.10
22.01
23.35
23.99
24.10
24.10
24.41
25.23
26.45
27.67
28.44
28.49
27.85
26.85
25.88
25.15
24.49
23.49
21.70
18.94
15.46
11.83
8.67
6.33
4.76
3.59
2.39
0.76
-1.39
-3.99
-6.80
-9.62
-12.28
-14.76
-17.15
-19.57
-22.13
-24.93
-28.02
-31.53
-35.62
-40.31
-45.31
-49.94
-53.23
-54.20
-52.31
-47.70
-41.11
-33.64
-26.37
-20.03
-14.87
-10.72
-7.22
-3.98
-0.76
2.49
5.68
8.64
11.28
13.56
15.51
17.08
18.15
18.64
18.64
18.49
18.76
19.89
21.98
24.66
27.23
29.00
29.63
29.21
28.14
26.88
25.70
24.55
23.26
21.74
20.07
18.55
17.46
16.90
16.65
16.19
14.96
12.66
9.37
5.53
1.71
-1.71
-4.67
-7.32
-9.87
-12.41
-14.90
-17.37
-20.02
-23.20
-27.16
-31.79
-36.45
-40.15
-41.85
-40.93
-37.40
-31.83
-25.15
-18.28
-11.92
-6.36
-1.60
2.53
6.16
9.26
11.69
13.31
14.14
14.47
14.69
15.16
15.95
16.92
17.80
18.47
19.04
19.76
20.77
21.99
23.11
23.72
23.54
22.52
20.80
18.63
16.31
14.09
12.15
10.55
9.25
8.02
6.61
4.84
2.69
0.25
-2.25
-4.64
-6.75
-8.57
-10.14
-11.52
-12.88
-14.39
-16.26
-18.69
-21.77
-25.51
-29.72
-33.94
-37.48
-39.63
-39.81
-37.87
-34.17
-29.29
-23.85
-18.19
-12.48
-6.86
-1.67
2.58
5.47
6.91
7.35
7.53
8.19
9.61
11.53
13.38
14.63
15.10
14.93
14.51
14.21
14.25
14.65
15.37
16.33
17.46
18.66
19.78
20.63
20.97
20.67
19.69
18.13
16.26
14.43
12.94
11.93
11.41
11.18
10.96
10.48
9.49
7.88
5.67
3.08
0.37
-2.20
-4.53
-6.63
-8.63
-10.65
-12.78
-15.02
-17.43
-20.05
-22.97
-26.25
-29.93
-33.89
-37.99
-41.97
-45.46
-48.00
-49.03
-48.13
-45.16
-40.42
-34.54
-28.27
-22.23
-16.74
-11.85
-7.42
-3.41
0.18
3.23
5.72
7.73
9.45
11.09
12.71
14.18
15.26
15.75
15.73
15.53
15.66
16.55
18.30
20.63
23.07
25.09
26.41
26.98
26.95
26.49
25.74
24.73
23.45
21.99
20.47
19.01
17.68
16.44
15.16
13.71
11.99
9.98
7.73
5.41
3.16
1.07
-0.86
-2.77
-4.81
-7.09
-9.58
-12.17
-14.72
-17.24
-19.94
-23.17
-27.22
-32.12
-37.48
-42.56
-46.44
-48.38
-48.01
-45.43
-41.15
-35.84
-30.11
-24.35
-18.70
-13.14
-7.65
-2.36
2.50
6.64
9.87
12.16
13.68
14.66
15.34
15.87
16.35
16.85
17.51
18.40
19.59
21.02
22.51
23.81
24.67
24.94
24.65
23.96
23.16
22.47
21.96
21.49
20.83
19.77
18.27
16.45
14.52
12.61
10.74
8.83
6.80
4.68
2.59
0.67
-1.12
-2.97
-5.21
-8.03
-11.38
-14.97
-18.41
-21.51
-24.37
-27.30
-30.60
-34.26
-37.82
-40.53
-41.62
-40.61
-37.50
-32.73
-26.96
-20.92
-15.13
-9.91
-5.32
-1.30
2.24
5.33
7.93
9.96
11.44
12.53
13.54
14.73
16.19
17.79
19.21
20.23
20.77
21.01
21.30
21.90
22.89
24.11
25.25
25.91
25.81
24.85
23.20
21.20
19.25
17.67
16.58
15.79
14.93
13.65
11.77
9.42
6.93
4.67
2.85
1.38
-0.04
-1.74
-3.82
-6.18
-8.61
-11.00
-13.48
-16.33
-19.74
-23.65
-27.70
-31.48
-34.83
-37.94
-41.27
-45.09
-49.21
-52.87
-54.93
-54.45
-51.08
-45.18
-37.66
-29.58
-21.84
-14.92
-8.92
-3.74
0.72
4.56
7.71
10.13
11.86
13.02
13.81
14.46
15.15
15.94
16.86
17.94
19.21
20.69
22.34
24.05
25.70
27.18
28.45
29.50
30.22
30.45
30.04
28.95
27.43
25.88
24.72
24.11
23.88
23.54
22.61
20.85
18.37
15.52
12.69
10.12
7.83
5.76
3.80
1.85
-0.12
-2.15
-4.30
-6.54
-8.87
-11.26
-13.72
-16.36
-19.28
-22.60
-26.35
-30.52
-34.94
-39.35
-43.27
-46.09
-47.10
-45.82
-42.15
-36.46
-29.53
-22.22
-15.29
-9.20
-4.13
-0.07
3.03
5.33
7.04
8.46
9.89
11.52
13.36
15.23
16.97
18.52
20.01
21.62
23.48
25.53
27.46
28.88
29.44
29.09
28.04
26.67
25.39
24.42
23.79
23.36
22.92
22.31
21.43
20.27
18.83
17.11
15.11
12.85
10.42
7.95
5.66
3.72
2.17
0.91
-0.34
-1.92
-4.07
-6.83
-9.99
-13.21
-16.26
-19.18
-22.24
-25.82
-30.08
-34.77
-39.22
-42.53
-43.94
-43.02
-39.84
-34.85
-28.73
-22.13
-15.61
-9.55
-4.21
0.32
4.05
7.15
9.85
12.28
14.41
16.12
17.32
18.10
18.73
19.49
20.58
21.89
23.12
24.02
24.42
24.41
24.18
23.82
23.34
22.59
21.53
20.26
19.05
18.12
17.55
17.14
16.50
15.28
13.31
10.74
8.01
5.58
3.77
2.57
1.73
0.91
-0.11
-1.40
-2.85
-4.43
-6.21
-8.35
-10.97
-14.01
-17.23
-20.40
-23.53
-26.93
-30.99
-35.94
-41.45
-46.67
-50.39
-51.61
-49.93
-45.66
-39.68
-33.03
-26.49
-20.43
-14.83
-9.49
-4.29
0.65
5.06
8.65
11.27
12.96
13.94
14.52
14.97
15.49
16.22
17.25
18.56
20.11
21.73
23.24
24.45
25.25
25.64
25.71
25.57
25.20
24.57
23.66
22.49
21.18
19.85
18.58
17.34
16.03
14.56
12.93
11.20
9.53
7.96
6.40
4.65
2.52
-0.03
-2.83
-5.51
-7.76
-9.48
-10.83
-12.20
-13.92
-16.19
-19.07
-22.47
-26.37
-30.75
-35.48
-40.19
-44.24
-46.89
-47.49
-45.78
-41.95
-36.53
-30.15
-23.40
-16.71
-10.39
-4.66
0.32
4.50
7.95
10.84
13.37
15.60
17.48
18.86
19.57
19.65
19.34
19.07
19.21
19.97
21.21
22.60
23.80
24.60
24.97
25.04
24.91
24.57
23.93
22.94
21.69
20.45
19.46
18.79
18.23
17.40
15.93
13.72
10.97
8.08
5.40
3.13
1.16
-0.74
-2.76
-4.96
-7.25
-9.45
-11.46
-13.37
-15.44
-18.03
-21.45
-25.78
-30.75
-35.85
-40.32
-43.39
-44.50
-43.43
-40.36
-35.66
-29.86
-23.44
-16.86
-10.53
-4.81
0.03
3.87
6.78
8.94
10.49
11.49
11.94
11.88
11.51
11.13
11.11
11.64
12.74
14.29
16.16
18.27
20.51
22.66
24.37
25.32
25.35
24.69
23.78
23.07
22.74
22.64
22.44
21.75
20.39
18.39
15.93
13.24
10.54
8.01
5.79
3.99
2.58
1.41
0.21
-1.33
-3.48
-6.33
-9.76
-13.51
-17.15
-20.33
-22.83
-24.73
-26.36
-28.27
-30.92
-34.53
-38.86
-43.29
-47.01
-49.18
-49.28
-47.20
-43.20
-37.86
-31.83
-25.72
-19.89
-14.50
-9.51
-4.85
-0.49
3.51
7.03
9.92
12.12
13.70
14.76
15.46
15.91
16.24
16.61
17.24
18.34
20.00
22.04
24.12
25.78
26.74
26.95
26.64
26.08
25.48
24.84
24.01
22.83
21.33
19.71
18.26
17.17
16.37
15.60
14.51
12.86
10.74
8.42
6.25
4.44
2.97
1.64
0.27
-1.25
-2.87
-4.52
-6.22
-8.14
-10.51
-13.52
-17.14
-21.24
-25.65
-30.21
-34.89
-39.64
-44.20
-48.07
-50.57
-51.07
-49.23
-45.17
-39.44
-32.81
-26.05
-19.63
-13.69
-8.11
-2.75
2.35
6.89
10.49
12.83
13.91
13.99
13.58
13.18
13.20
13.81
14.98
16.57
18.35
20.16
21.85
23.36
24.64
25.61
26.22
26.42
26.21
25.66
24.88
23.98
22.99
21.91
20.68
19.32
17.96
16.80
15.95
15.37
14.77
13.83
12.32
10.22
7.79
5.33
3.05
0.94
-1.16
-3.44
-5.93
-8.45
-10.77
-12.80
-14.79
-17.26
-20.77
-25.60
-31.53
-37.82
-43.42
-47.29
-48.74
-47.51
-43.83
-38.23
-31.46
-24.26
-17.22
-10.73
-4.95
0.16
4.71
8.74
12.13
14.67
16.22
16.85
16.88
16.80
17.02
17.73
18.82
20.09
21.38
22.69
24.16
25.80
27.46
28.77
29.33
28.89
27.50
25.52
23.35
21.30
19.45
17.67
15.76
13.65
11.39
9.17
7.15
5.39
3.78
2.10
0.16
-2.15
-4.79
-7.60
-10.36
-12.86
-14.98
-16.74
-18.36
-20.16
-22.57
-25.91
-30.20
-35.08
-39.81
-43.52
-45.41
-45.03
-42.37
-37.76
-31.78
-25.05
-18.21
-11.72
-5.93
-0.96
3.22
6.75
9.67
11.99
13.64
14.62
15.07
15.29
15.57
16.11
16.96
18.03
19.20
20.38
21.56
22.73
23.87
24.90
25.72
26.24
26.39
26.17
25.54
24.53
23.17
21.54
19.73
17.83
15.89
13.88
11.83
9.77
7.78
5.94
4.26
2.67
1.01
-0.93
-3.28
-6.03
-9.04
-12.11
-15.07
-17.78
-20.17
-22.22
-23.97
-25.60
-27.46
-30.02
-33.73
-38.73
-44.63
-50.45
-54.98
-57.10
-56.22
-52.49
-46.59
-39.48
-31.99
-24.73
-17.94
-11.79
-6.40
-1.89
1.60
4.09
5.76
6.90
7.83
8.80
9.94
11.29
12.89
14.76
16.99
19.64
22.67
25.91
29.01
31.57
33.22
33.79
33.30
31.96
30.04
27.86
25.64
23.50
21.47
19.52
17.61
15.68
13.76
11.95
10.41
9.30
8.61
8.24
7.94
7.48
6.66
5.41
3.71
1.56
-1.02
-3.99
-7.22
-10.59
-13.94
-17.26
-20.64
-24.27
-28.37
-32.99
-37.98
-42.84
-46.93
-49.56
-50.24
-48.79
-45.40
-40.50
-34.69
-28.48
-22.21
-16.05
-10.05
-4.25
1.21
6.16
10.38
13.71
16.12
17.75
18.91
19.92
21.08
22.46
23.97
25.40
26.60
27.60
28.53
29.56
30.66
31.68
32.32
32.39
31.88
31.03
30.19
29.58
29.19
28.79
28.03
26.61
24.43
21.60
18.39
15.15
12.20
9.74
7.80
6.25
4.79
3.10
0.93
-1.80
-4.94
-8.23
-11.38
-14.25
-16.90
-19.58
-22.57
-26.07
-30.11
-34.47
-38.75
-42.38
-44.78
-45.41
-43.95
-40.38
-35.05
-28.54
-21.63
-14.94
-8.91
-3.71
0.69
4.28
6.99
8.71
9.49
9.55
9.36
9.41
10.02
11.22
12.80
14.49
16.11
17.60
19.02
20.39
21.63
22.62
23.23
23.37
23.02
22.25
21.14
19.81
18.41
17.06
15.73
14.31
12.60
10.51
8.12
5.75
3.74
2.23
1.07
-0.18
-1.93
-4.39
-7.39
-10.49
-13.20
-15.25
-16.71
-17.96
-19.50
-21.72
-24.84
-28.73
-33.08
-37.35
-40.97
-43.29
-43.81
-42.19
-38.39
-32.80
-26.13
-19.25
-12.95
-7.71
-3.55
-0.26
2.50
4.92
7.04
8.85
10.41
11.94
13.66
15.67
17.78
19.62
20.87
21.55
21.94
22.53
23.64
25.26
27.04
28.45
29.09
28.79
27.63
25.90
23.91
21.96
20.23
18.71
17.32
15.88
14.26
12.42
10.43
8.48
6.68
5.04
3.41
1.56
-0.67
-3.30
-6.25
-9.30
-12.27
-15.01
-17.46
-19.60
-21.45
-23.14
-24.90
-27.07
-30.01
-33.91
-38.70
-43.82
-48.36
-51.27
-51.74
-49.47
-44.78
-38.48
-31.56
-24.82
-18.60
-12.95
-7.71
-2.78
1.74
5.66
8.76
10.99
12.50
13.54
14.46
15.52
16.89
18.56
20.42
22.26
23.89
25.16
26.03
26.54
26.77
26.81
26.68
26.39
25.98
25.54
25.16
24.96
24.95
25.03
25.02
24.67
23.72
22.06
19.77
17.08
14.29
11.69
9.39
7.31
5.31
3.24
1.06
-1.20
-3.44
-5.59
-7.62
-9.56
-11.47
-13.45
-15.63
-18.24
-21.50
-25.55
-30.33
-35.51
-40.46
-44.40
-46.58
-46.42
-43.72
-38.76
-32.26
-25.18
-18.57
-13.06
-8.75
-5.22
-1.82
1.96
6.15
10.24
13.55
15.56
16.24
15.99
15.43
15.07
15.14
15.63
16.45
17.53
18.92
20.60
22.45
24.19
25.50
26.16
26.16
25.68
24.95
24.10
23.14
21.96
20.46
18.56
16.33
13.86
11.36
8.98
6.84
4.97
3.30
1.68
-0.11
-2.24
-4.71
-7.40
-10.00
-12.28
-14.17
-15.89
-17.85
-20.43
-23.82
-27.89
-32.22
-36.24
-39.36
-41.07
-41.09
-39.27
-35.65
-30.48
-24.23
-17.58
-11.20
-5.61
-1.00
2.78
6.02
8.98
11.69
14.00
15.69
16.70
17.13
17.27
17.40
17.69
18.15
18.73
19.42
20.26
21.30
22.53
23.76
24.69
25.01
24.50
23.18
21.30
19.26
17.48
16.20
15.44
14.98
14.48
13.59
12.14
10.19
7.93
5.64
3.55
1.69
-0.01
-1.73
-3.66
-5.90
-8.48
-11.28
-14.16
-17.02
-19.80
-22.54
-25.30
-28.23
-31.40
-34.88
-38.60
-42.31
-45.54
-47.69
-48.21
-46.75
-43.33
-38.29
-32.20
-25.64
-19.10
-12.95
-7.41
-2.62
1.34
4.47
6.79
8.38
9.38
10.04
10.68
11.64
13.11
15.07
17.29
19.41
21.19
22.48
23.40
24.08
24.63
25.07
25.31
25.26
24.91
24.34
23.63
22.86
22.10
21.35
20.54
19.59
18.41
17.01
15.44
13.85
12.31
10.88
9.58
8.40
7.27
6.09
4.62
2.65
0.05
-3.08
-6.42
-9.59
-12.32
-14.59
-16.67
-18.94
-21.67
-24.93
-28.58
-32.43
-36.27
-39.86
-42.91
-45.00
-45.58
-44.17
-40.62
-35.17
-28.51
-21.56
-15.22
-9.96
-5.82
-2.46
0.57
3.53
6.39
8.91
10.87
12.31
13.52
14.83
16.40
18.09
19.47
20.21
20.26
19.95
19.76
20.10
21.03
22.26
23.39
24.10
24.32
24.18
23.82
23.27
22.40
21.11
19.40
17.49
15.66
14.12
12.96
12.07
11.25
10.32
9.08
7.44
5.40
3.03
0.47
-2.13
-4.64
-7.03
-9.40
-11.92
-14.73
-17.89
-21.39
-25.13
-29.05
-33.00
-36.76
-39.94
-42.01
-42.48
-41.04
-37.78
-33.18
-27.92
-22.65
-17.76
-13.29
-9.07
-4.89
-0.61
3.62
7.58
11.02
13.79
15.87
17.26
17.99
18.13
17.86
17.53
17.60
18.46
20.23
22.64
25.15
27.16
28.26
28.34
27.54
26.14
24.39
22.50
20.60
18.85
17.38
16.21
15.25
14.30
13.07
11.36
9.16
6.67
4.17
1.94
0.11
-1.39
-2.73
-4.09
-5.59
-7.23
-9.04
-11.08
-13.44
-16.16
-19.08
-21.89
-24.27
-26.16
-27.87
-29.96
-32.93
-36.83
-41.15
-44.91
-47.09
-47.04
-44.66
-40.35
-34.79
-28.60
-22.28
-16.21
-10.61
-5.65
-1.44
2.03
4.86
7.12
8.93
10.37
11.52
12.53
13.48
14.48
15.48
16.39
17.15
17.82
18.57
19.56
20.88
22.41
23.89
25.02
25.55
25.31
24.28
22.62
20.63
18.76
17.40
16.66
16.39
16.12
15.41
14.01
12.06
9.92
8.05
6.63
5.56
4.42
2.80
0.49
-2.41
-5.48
-8.18
-10.16
-11.36
-12.13
-13.07
-14.75
-17.54
-21.50
-26.34
-31.62
-36.78
-41.23
-44.36
-45.63
-44.73
-41.76
-37.15
-31.66
-25.97
-20.54
-15.48
-10.69
-6.05
-1.57
2.58
6.18
9.15
11.56
13.66
15.60
17.44
19.01
20.13
20.73
20.95
21.12
21.61
22.63
24.14
25.78
27.03
27.47
26.97
25.74
24.23
22.95
22.10
21.59
21.11
20.25
18.85
16.99
14.94
12.97
11.18
9.47
7.71
5.83
3.91
2.10
0.47
-1.15
-3.07
-5.57
-8.72
-12.24
-15.64
-18.41
-20.32
-21.60
-22.85
-24.71
-27.60
-31.41
-35.47
-38.91
-40.92
-41.02
-39.15
-35.62
-30.84
-25.25
-19.19
-13.04
-7.18
-2.03
2.07
4.95
6.66
7.53
7.98
8.44
9.21
10.41
11.96
13.66
15.30
16.68
17.72
18.43
18.95
19.50
20.29
21.45
22.88
24.26
25.16
25.22
24.30
22.59
20.53
18.51
16.76
15.27
13.90
12.48
11.04
9.67
8.49
7.46
6.40
5.12
3.46
1.46
-0.73
-2.90
-4.93
-6.88
-8.87
-11.08
-13.56
-16.22
-18.86
-21.35
-23.74
-26.30
-29.40
-33.30
-37.90
-42.68
-46.85
-49.58
-50.26
-48.62
-44.79
-39.15
-32.29
-24.92
-17.74
-11.35
-6.17
-2.29
0.52
2.62
4.40
6.06
7.61
8.93
9.97
10.83
11.72
12.88
14.40
16.17
17.94
19.53
20.85
22.02
23.22
24.55
25.90
27.03
27.68
27.71
27.21
26.39
25.42
24.38
23.21
21.81
20.20
18.49
16.86
15.41
14.07
12.62
10.88
8.77
6.42
4.02
1.77
-0.31
-2.35
-4.46
-6.72
-9.08
-11.42
-13.69
-15.93
-18.36
-21.21
-24.68
-28.75
-33.13
-37.24
-40.39
-41.94
-41.56
-39.35
-35.72
-31.23
-26.26
-20.90
-15.11
-8.86
-2.36
3.93
9.45
13.76
16.64
18.21
18.76
18.73
18.54
18.50
18.82
19.53
20.57
21.82
23.18
24.57
25.81
26.72
27.13
26.97
26.31
25.36
24.37
23.42
22.43
21.23
19.69
17.83
15.80
13.75
11.74
9.74
7.62
5.36
3.00
0.69
-1.47
-3.41
-5.20
-6.96
-8.88
-11.14
-13.89
-17.20
-21.07
-25.44
-30.13
-34.90
-39.38
-43.06
-45.43
-46.06
-44.78
-41.79
-37.49
-32.39
-26.94
-21.35
-15.71
-10.00
-4.32
1.12
5.97
9.90
12.66
14.25
14.92
15.08
15.16
15.54
16.33
17.49
18.85
20.26
21.62
22.90
23.99
24.72
24.96
24.64
23.87
22.94
22.13
21.59
21.34
21.25
21.02
20.38
19.02
16.84
13.94
10.69
7.59
5.16
3.65
2.98
2.76
2.52
1.89
0.72
-1.05
-3.38
-6.22
-9.37
-12.51
-15.20
-17.11
-18.25
-18.97
-19.97
-21.89
-25.15
-29.76
-35.25
-40.78
-45.33
-47.99
-48.13
-45.65
-41.03
-35.14
-28.98
-23.27
-18.32
-14.03
-10.12
-6.30
-2.50
1.14
4.39
7.07
9.05
10.42
11.36
12.11
12.98
14.12
15.55
17.16
18.75
20.17
21.29
22.11
22.70
23.15
23.56
24.04
24.61
25.13
25.34
24.95
23.82
22.04
19.96
18.01
16.46
15.35
14.44
13.47
12.26
10.76
9.03
7.09
4.87
2.35
-0.36
-3.02
-5.36
-7.23
-8.78
-10.38
-12.44
-15.27
-18.92
-23.30
-28.17
-33.21
-37.96
-41.85
-44.31
-44.94
-43.66
-40.74
-36.65
-31.87
-26.76
-21.52
-16.28
-11.13
-6.09
-1.21
3.47
7.80
11.55
14.40
16.17
16.92
16.97
16.78
16.68
16.83
17.23
17.83
18.60
19.60
20.88
22.34
23.80
24.97
25.58
25.51
24.77
23.53
22.09
20.73
19.60
18.70
17.83
16.72
15.17
13.15
10.80
8.34
5.90
3.51
1.10
-1.45
-4.16
-6.91
-9.54
-11.92
-14.05
-16.14
-18.55
-21.61
-25.49
-30.00
-34.64
-38.69
-41.45
-42.39
-41.32
-38.42
-34.11
-28.92
-23.40
-17.98
-12.91
-8.32
-4.19
-0.48
2.80
5.59
7.82
9.47
10.69
11.67
12.67
13.92
15.49
17.35
19.31
21.10
22.49
23.32
23.61
23.57
23.50
23.65
24.13
24.84
25.51
25.84
25.63
24.83
23.52
21.89
20.09
18.31
16.65
15.15
13.67
11.99
9.87
7.24
4.23
1.15
-1.64
-3.93
-5.75
-7.30
-8.83
-10.49
-12.30
-14.27
-16.36
-18.67
-21.28
-24.23
-27.51
-31.04
-34.77
-38.65
-42.62
-46.41
-49.56
-51.42
-51.35
-49.00
-44.42
-38.16
-31.02
-23.81
-17.12
-11.15
-5.82
-0.97
3.46
7.37
10.55
12.83
14.20
14.85
15.12
15.32
15.72
16.41
17.42
18.69
20.11
21.56
22.91
24.10
25.09
25.94
26.65
27.16
27.38
27.23
26.69
25.83
24.74
23.47
22.02
20.34
18.56
16.83
15.36
14.23
13.26
12.11
10.46
8.17
5.31
2.08
-1.29
-4.66
-7.86
-10.71
-12.99
-14.65
-15.84
-17.03
-18.75
-21.35
-24.85
-28.88
-32.95
-36.59
-39.44
-41.21
-41.61
-40.34
-37.18
-32.21
-25.91
-19.10
-12.60
-7.00
-2.48
1.20
4.44
7.62
10.81
13.85
16.41
18.22
19.23
19.67
19.92
20.37
21.21
22.39
23.76
25.10
26.27
27.23
27.98
28.51
28.75
28.62
28.13
27.34
26.40
25.41
24.43
23.44
22.37
21.11
19.57
17.62
15.17
12.25
9.07
5.95
3.21
0.92
-1.08
-3.14
-5.55
-8.35
-11.36
-14.25
-16.86
-19.32
-21.95
-25.07
-28.76
-32.78
-36.66
-39.91
-42.20
-43.33
-43.17
-41.62
-38.62
-34.31
-29.04
-23.32
-17.63
-12.25
-7.24
-2.52
1.88
5.80
8.97
11.16
12.44
13.14
13.76
14.71
16.09
17.68
19.09
20.02
20.42
20.54
20.80
21.50
22.67
24.03
25.16
25.64
25.33
24.35
23.07
21.82
20.79
19.91
18.94
17.65
15.96
14.00
12.07
10.37
9.00
7.77
6.48
4.93
3.15
1.27
-0.53
-2.18
-3.78
-5.50
-7.49
-9.73
-12.08
-14.36
-16.52
-18.67
-20.98
-23.66
-26.82
-30.42
-34.31
-38.21
-41.70
-44.32
-45.62
-45.25
-43.10
-39.35
-34.40
-28.80
-23.07
-17.66
-12.78
-8.54
-4.83
-1.47
1.73
4.84
7.77
10.31
12.23
13.46
14.18
14.71
15.40
16.48
17.95
19.72
21.59
23.42
25.07
26.46
27.47
28.06
28.28
28.18
27.88
27.46
26.91
26.18
25.19
23.84
22.07
19.85
17.25
14.44
11.74
9.50
7.94
7.10
6.68
6.23
5.26
3.42
0.66
-2.79
-6.49
-10.01
-13.01
-15.39
-17.29
-19.04
-21.01
-23.55
-26.89
-31.04
-35.74
-40.42
-44.31
-46.57
-46.63
-44.32
-39.96
-34.24
-27.93
-21.68
-15.85
-10.54
-5.68
-1.23
2.78
6.25
9.09
11.26
12.83
13.96
14.85
15.65
16.51
17.48
18.58
19.78
21.08
22.47
23.90
25.31
26.59
27.56
28.02
27.88
27.11
25.82
24.21
22.48
20.77
19.07
17.30
15.36
13.24
11.05
8.93
7.01
5.20
3.34
1.20
-1.30
-4.04
-6.71
-8.95
-10.60
-11.78
-12.85
-14.21
-16.17
-18.81
-22.00
-25.55
-29.35
-33.33
-37.40
-41.35
-44.76
-47.11
-47.84
-46.56
-43.17
-37.94
-31.42
-24.40
-17.59
-11.51
-6.36
-2.15
1.28
4.01
6.06
7.54
8.63
9.63
10.83
12.34
14.02
15.57
16.80
17.71
18.60
19.78
21.40
23.25
24.85
25.79
25.85
25.19
24.12
23.01
22.01
21.14
20.30
19.40
18.44
17.48
16.53
15.57
14.53
13.32
11.94
10.39
8.80
7.34
6.17
5.36
4.81
4.23
3.18
1.35
-1.35
-4.67
-8.16
-11.38
-14.09
-16.36
-18.54
-21.11
-24.40
-28.55
-33.36
-38.45
-43.31
-47.41
-50.30
-51.56
-50.84
-47.92
-42.83
-35.96
-28.03
-19.99
-12.74
-6.83
-2.32
1.10
3.94
6.63
9.32
11.92
14.19
15.92
17.02
17.57
17.78
17.88
18.13
18.73
19.80
21.30
23.07
24.88
26.50
27.74
28.44
28.54
27.99
26.90
25.45
23.88
22.40
21.01
19.58
17.86
15.71
13.21
10.65
8.37
6.59
5.31
4.34
3.45
2.51
1.50
0.36
-0.95
-2.65
-4.87
-7.64
-10.83
-14.21
-17.57
-20.90
-24.35
-28.09
-32.11
-36.14
-39.65
-42.09
-43.05
-42.42
-40.32
-36.98
-32.53
-27.06
-20.70
-13.78
-6.80
-0.33
5.20
9.63
13.03
15.57
17.41
18.59
19.24
19.51
19.63
19.79
19.96
20.06
19.97
19.75
19.62
19.91
20.85
22.34
24.00
25.28
25.79
25.36
24.16
22.55
20.96
19.64
18.64
17.76
16.67
15.15
13.11
10.72
8.27
6.09
4.35
3.07
2.11
1.25
0.22
-1.13
-2.96
-5.26
-7.94
-10.80
-13.67
-16.40
-18.97
-21.48
-24.07
-26.86
-29.98
-33.51
-37.50
-41.79
-45.97
-49.29
-50.86
-50.03
-46.57
-40.90
-33.82
-26.26
-18.99
-12.41
-6.65
-1.69
2.43
5.68
8.10
9.88
11.34
12.80
14.40
16.05
17.56
18.75
19.58
20.21
20.89
21.85
23.14
24.69
26.26
27.64
28.65
29.17
29.18
28.63
27.51
25.95
24.10
22.21
20.51
19.18
18.22
17.47
16.66
15.47
13.77
11.57
9.15
6.85
4.96
3.53
2.36
1.08
-0.62
-2.85
-5.45
-8.15
-10.68
-12.97
-15.16
-17.49
-20.18
-23.38
-27.04
-31.06
-35.30
-39.56
-43.51
-46.61
-48.16
-47.42
-44.02
-38.09
-30.41
-22.19
-14.65
-8.62
-4.25
-1.09
1.60
4.41
7.52
10.67
13.41
15.38
16.54
17.19
17.74
18.47
19.41
20.38
21.16
21.67
22.05
22.55
23.41
24.73
26.29
27.69
28.50
28.37
27.28
25.46
23.30
21.17
19.23
17.46
15.68
13.73
11.56
9.32
7.24
5.43
3.88
2.39
0.67
-1.43
-3.86
-6.39
-8.76
-10.83
-12.67
-14.55
-16.74
-19.47
-22.80
-26.68
-30.98
-35.45
-39.74
-43.31
-45.56
-46.00
-44.39
-40.90
-35.96
-30.18
-24.07
-18.04
-12.32
-7.07
-2.43
1.51
4.68
7.14
8.93
10.16
10.94
11.39
11.71
12.14
12.91
14.14
15.80
17.69
19.57
21.13
22.19
22.72
22.82
22.71
22.55
22.39
22.18
21.78
21.10
20.16
19.09
18.04
17.12
16.28
15.49
14.64
13.71
12.67
11.51
10.17
8.60
6.84
4.97
3.06
1.11
-0.99
-3.37
-6.06
-8.96
-11.95
-14.90
-17.90
-21.14
-24.87
-29.18
-33.95
-38.82
-43.36
-47.08
-49.60
-50.64
-50.01
-47.64
-43.66
-38.35
-32.17
-25.64
-19.25
-13.36
-8.15
-3.58
0.46
4.08
7.32
10.03
12.03
13.20
13.64
13.63
13.64
14.09
15.20
16.93
18.98
20.96
22.56
23.71
24.54
25.25
25.92
26.49
26.78
26.64
26.10
25.31
24.49
23.65
22.69
21.38
19.55
17.27
14.78
12.44
10.51
9.05
7.91
6.84
5.60
4.05
2.10
-0.17
-2.63
-5.08
-7.36
-9.46
-11.51
-13.84
-16.78
-20.56
-25.15
-30.27
-35.43
-40.01
-43.47
-45.36
-45.43
-43.70
-40.37
-35.89
-30.78
-25.50
-20.32
-15.32
-10.48
-5.74
-1.16
3.07
6.72
9.56
11.54
12.82
13.73
14.65
15.87
17.43
19.16
20.71
21.79
22.31
22.47
22.64
23.14
24.04
25.09
25.85
25.90
25.07
23.54
21.73
20.06
18.78
17.76
16.71
15.26
13.24
10.83
8.46
6.57
5.36
4.63
3.88
2.52
0.20
-3.03
-6.81
-10.65
-14.16
-17.16
-19.66
-21.77
-23.63
-25.51
-27.70
-30.53
-34.20
-38.58
-43.14
-47.06
-49.45
-49.70
-47.61
-43.46
-37.77
-31.16
-24.12
-16.99
-10.04
-3.53
2.22
6.87
10.26
12.39
13.57
14.21
14.73
15.41
16.28
17.25
18.21
19.13
20.08
21.18
22.49
23.94
25.38
26.62
27.49
27.84
27.57
26.65
25.15
23.27
21.32
19.60
18.27
17.29
16.45
15.51
14.29
12.76
11.01
9.17
7.42
5.80
4.35
3.01
1.66
0.20
-1.43
-3.21
-5.07
-6.89
-8.65
-10.47
-12.55
-15.18
-18.53
-22.60
-27.20
-32.00
-36.62
-40.60
-43.52
-45.03
-44.87
-42.95
-39.43
-34.61
-28.97
-22.97
-17.03
-11.44
-6.37
-1.88
2.01
5.26
7.90
9.97
11.54
12.77
13.82
14.85
15.99
17.27
18.67
20.13
21.57
22.92
24.19
25.35
26.38
27.23
27.80
27.95
27.61
26.82
25.75
24.66
23.71
22.87
21.89
20.42
18.26
15.45
12.34
9.31
6.67
4.48
2.62
0.92
-0.73
-2.37
-3.95
-5.52
-7.16
-9.00
-11.11
-13.53
-16.26
-19.31
-22.68
-26.36
-30.38
-34.59
-38.75
-42.35
-44.77
-45.36
-43.68
-39.71
-33.94
-27.11
-19.98
-13.12
-6.76
-0.98
4.18
8.64
12.32
15.21
17.40
19.04
20.26
21.09
21.56
21.76
21.84
21.99
22.38
23.09
24.09
25.31
26.59
27.74
28.48
28.60
27.99
26.77
25.22
23.69
22.38
21.38
20.53
19.56
18.25
16.45
14.17
11.57
8.96
6.64
4.89
3.75
3.04
2.36
1.26
-0.59
-3.32
-6.73
-10.47
-14.08
-17.24
-19.80
-21.84
-23.66
-25.64
-28.16
-31.45
-35.46
-39.90
-44.23
-47.70
-49.59
-49.32
-46.62
-41.66
-35.01
-27.56
-20.18
-13.52
-7.82
-2.93
1.47
5.63
9.58
13.12
15.97
17.92
19.01
19.46
19.61
19.82
20.34
21.26
22.54
24.06
25.64
27.11
28.32
29.14
29.47
29.21
28.31
26.82
24.95
23.04
21.48
20.49
20.05
19.82
19.34
18.20
16.35
13.97
11.40
8.95
6.73
4.66
2.65
0.66
-1.25
-3.01
-4.67
-6.45
-8.56
-11.11
-13.92
-16.69
-19.14
-21.28
-23.45
-26.16
-29.70
-33.98
-38.36
-41.95
-43.96
-43.94
-41.89
-38.12
-33.13
-27.38
-21.34
-15.40
-9.87
-4.96
-0.72
2.84
5.77
8.05
9.68
10.69
11.26
11.69
12.35
13.47
15.06
16.97
18.88
20.54
21.91
23.06
24.15
25.29
26.39
27.29
27.76
27.69
27.14
26.27
25.24
24.13
22.84
21.22
19.23
16.96
14.60
12.38
10.38
8.53
6.66
4.61
2.34
-0.08
-2.53
-4.89
-7.11
-9.18
-11.12
-12.92
-14.57
-16.12
-17.77
-19.83
-22.67
-26.51
-31.27
-36.44
-41.15
-44.42
-45.37
-43.67
-39.48
-33.47
-26.51
-19.42
-12.88
-7.26
-2.70
0.90
3.73
6.04
8.04
9.77
11.20
12.21
12.78
13.07
13.40
14.10
15.32
16.89
18.48
19.73
20.54
21.14
21.81
22.75
23.81
24.57
24.61
23.73
22.19
20.48
19.10
18.24
17.71
17.02
15.71
13.62
10.92
8.04
5.42
3.35
1.92
1.05
0.59
0.29
-0.09
-0.81
-2.06
-3.89
-6.26
-9.04
-12.05
-15.14
-18.19
-21.09
-23.82
-26.43
-29.10
-32.09
-35.58
-39.50
-43.41
-46.63
-48.43
-48.31
-46.10
-42.04
-36.55
-30.15
-23.38
-16.71
-10.53
-5.12
-0.62
2.93
5.52
7.26
8.27
8.79
9.11
9.59
10.50
11.92
13.70
15.54
17.17
18.49
19.66
20.93
22.50
24.31
26.06
27.37
27.93
27.71
26.96
25.97
24.99
24.00
22.80
21.18
19.09
16.68
14.24
12.05
10.25
8.81
7.59
6.48
5.43
4.48
3.69
3.04
2.40
1.53
0.19
-1.78
-4.33
-7.25
-10.22
-13.03
-15.62
-18.10
-20.74
-23.71
-27.12
-30.94
-35.00
-39.04
-42.69
-45.45
-46.79
-46.24
-43.59
-39.08
-33.30
-26.95
-20.65
-14.75
-9.37
-4.50
-0.18
3.45
6.25
8.25
9.61
10.65
11.68
12.85
14.13
15.33
16.30
16.89
17.10
17.08
17.08
17.38
18.19
19.50
21.05
22.42
23.17
23.02
22.02
20.45
18.74
17.26
16.20
15.52
15.03
14.48
13.59
12.21
10.37
8.19
5.94
3.88
2.15
0.71
-0.57
-1.96
-3.62
-5.69
-8.17
-10.98
-14.00
-17.15
-20.33
-23.53
-26.85
-30.36
-34.08
-37.79
-41.04
-43.28
-43.97
-42.80
-39.83
-35.40
-30.00
-24.11
-18.06
-12.07
-6.32
-1.09
3.30
6.53
8.45
9.21
9.23
9.09
9.27
10.00
11.19
12.63
14.07
15.46
16.88
18.42
19.97
21.33
22.24
22.63
22.63
22.50
22.43
22.42
22.26
21.69
20.58
19.06
17.44
16.00
14.85
13.80
12.54
10.87
8.85
6.80
5.10
3.96
3.19
2.36
0.99
-1.19
-4.06
-7.15
-9.96
-12.20
-13.92
-15.49
-17.35
-19.82
-22.96
-26.64
-30.63
-34.70
-38.64
-42.13
-44.78
-46.08
-45.62
-43.22
-39.02
-33.48
-27.21
-20.86
-14.90
-9.67
-5.25
-1.58
1.49
4.12
6.44
8.53
10.32
11.79
12.90
13.68
14.24
14.75
15.35
16.17
17.30
18.77
20.57
22.57
24.52
26.07
26.86
26.70
25.64
24.02
22.34
21.06
20.35
20.09
19.92
19.38
18.21
16.38
14.06
11.54
9.07
6.79
4.78
3.07
1.61
0.35
-0.82
-2.04
-3.47
-5.22
-7.44
-10.19
-13.41
-16.91
-20.36
-23.43
-25.97
-28.13
-30.34
-33.07
-36.49
-40.22
-43.35
-44.87
-44.02
-40.70
-35.42
-29.08
-22.48
-16.11
-10.10
-4.41
0.91
5.72
9.71
12.64
14.48
15.45
15.95
16.36
17.01
18.02
19.40
21.02
22.67
24.15
25.21
25.65
25.45
24.79
23.98
23.36
23.11
23.10
23.05
22.66
21.78
20.47
18.95
17.39
15.88
14.38
12.83
11.27
9.78
8.46
7.25
5.94
4.27
2.05
-0.72
-3.90
-7.22
-10.42
-13.30
-15.83
-18.12
-20.41
-23.02
-26.25
-30.17
-34.49
-38.65
-41.90
-43.54
-43.14
-40.64
-36.34
-30.72
-24.35
-17.76
-11.36
-5.53
-0.52
3.52
6.53
8.69
10.24
11.47
12.62
13.80
14.98
16.06
16.97
17.67
18.24
18.80
19.44
20.20
21.12
22.17
23.30
24.39
25.25
25.64
25.42
24.57
23.25
21.75
20.32
19.06
17.89
16.62
15.11
13.33
11.41
9.54
7.83
6.28
4.78
3.22
1.52
-0.33
-2.36
-4.54
-6.90
-9.43
-12.09
-14.81
-17.44
-19.99
-22.53
-25.32
-28.68
-32.87
-37.88
-43.29
-48.33
-52.02
-53.54
-52.45
-48.85
-43.30
-36.53
-29.29
-22.07
-15.18
-8.80
-3.11
1.67
5.41
8.18
10.24
12.00
13.78
15.68
17.56
19.13
20.16
20.65
20.82
21.03
21.54
22.49
23.77
25.20
26.59
27.81
28.76
29.31
29.36
28.82
27.80
26.50
25.19
23.98
22.80
21.43
19.65
17.39
14.84
12.39
10.37
8.98
8.11
7.41
6.51
5.09
3.00
0.29
-2.89
-6.34
-9.84
-13.20
-16.24
-18.86
-21.08
-23.06
-25.13
-27.66
-30.92
-34.96
-39.41
-43.62
-46.70
-47.86
-46.64
-43.00
-37.32
-30.21
-22.36
-14.36
-6.74
0.08
5.79
10.20
13.31
15.32
16.59
17.49
18.27
19.03
19.69
20.15
20.37
20.42
20.50
20.79
21.40
22.36
23.61
25.03
26.46
27.72
28.63
29.02
28.79
28.02
26.85
25.49
24.04
22.50
20.77
18.77
16.48
13.98
11.42
8.96
6.69
4.64
2.75
0.86
-1.18
-3.48
-5.99
-8.58
-11.06
-13.39
-15.68
-18.20
-21.22
-24.82
-28.87
-33.08
-37.17
-40.93
-44.22
-46.82
-48.36
-48.35
-46.35
-42.25
-36.37
-29.36
-22.01
-14.99
-8.67
-3.11
1.73
5.96
9.59
12.56
14.91
16.68
18.03
19.10
20.04
20.88
21.61
22.23
22.76
23.26
23.78
24.36
24.97
25.59
26.16
26.68
27.12
27.38
27.35
26.90
25.99
24.72
23.31
21.96
20.82
19.82
18.75
17.39
15.61
13.47
11.21
9.03
7.11
5.45
3.96
2.46
0.83
-1.08
-3.28
-5.81
-8.64
-11.67
-14.78
-17.85
-20.81
-23.65
-26.52
-29.62
-33.13
-37.13
-41.49
-45.80
-49.47
-51.82
-52.29
-50.63
-46.98
-41.82
-35.73
-29.20
-22.47
-15.63
-8.82
-2.28
3.50
8.08
11.19
12.96
13.85
14.36
14.96
15.81
16.91
18.16
19.55
21.05
22.64
24.21
25.65
26.87
27.87
28.67
29.25
29.54
29.46
28.95
28.03
26.81
25.49
24.22
23.13
22.25
21.53
20.73
19.54
17.67
14.97
11.66
8.21
5.19
2.99
1.62
0.67
-0.46
-2.23
-4.75
-7.79
-10.95
-13.80
-16.20
-18.17
-19.95
-21.79
-23.92
-26.48
-29.59
-33.25
-37.34
-41.51
-45.14
-47.43
-47.65
-45.43
-40.89
-34.62
-27.47
-20.28
-13.56
-7.58
-2.32
2.27
6.16
9.26
11.53
13.05
14.09
14.97
15.90
16.92
17.96
18.90
19.72
20.49
21.35
22.40
23.66
25.02
26.33
27.41
28.11
28.30
27.90
26.92
25.50
23.88
22.35
21.09
20.12
19.25
18.19
16.70
14.69
12.26
9.63
7.03
4.58
2.26
-0.06
-2.50
-5.15
-8.00
-10.93
-13.79
-16.49
-19.01
-21.46
-24.07
-27.10
-30.75
-35.02
-39.63
-44.06
-47.63
-49.68
-49.76
-47.75
-43.81
-38.35
-31.87
-24.88
-17.86
-11.19
-5.23
-0.23
3.68
6.51
8.46
9.81
10.86
11.81
12.75
13.67
14.52
15.31
16.19
17.37
18.96
20.89
22.87
24.54
25.63
26.09
26.09
25.87
25.58
25.21
24.61
23.67
22.39
20.92
19.51
18.36
17.53
16.98
16.50
15.84
14.75
13.06
10.79
8.12
5.35
2.78
0.52
-1.47
-3.39
-5.44
-7.72
-10.16
-12.64
-15.05
-17.33
-19.50
-21.67
-24.04
-26.80
-30.22
-34.37
-39.12
-44.04
-48.40
-51.39
-52.33
-50.86
-46.99
-41.20
-34.22
-26.89
-19.97
-13.95
-8.92
-4.63
-0.73
3.03
6.59
9.67
11.97
13.38
14.15
14.73
15.53
16.77
18.30
19.78
20.92
21.63
22.09
22.63
23.54
24.94
26.70
28.54
30.06
30.96
31.13
30.65
29.76
28.65
27.37
25.86
24.01
21.77
19.27
16.77
14.47
12.44
10.60
8.76
6.81
4.77
2.73
0.76
-1.21
-3.35
-5.82
-8.67
-11.77
-14.82
-17.55
-19.84
-21.88
-24.06
-26.84
-30.53
-35.09
-40.11
-44.89
-48.62
-50.59
-50.42
-48.05
-43.74
-37.98
-31.29
-24.18
-17.08
-10.37
-4.39
0.61
4.51
7.33
9.28
10.65
11.74
12.82
14.11
15.76
17.87
20.37
23.05
25.50
27.39
28.52
28.99
29.07
29.03
29.01
28.91
28.55
27.77
26.58
25.13
23.58
22.04
20.52
18.93
17.18
15.17
12.87
10.29
7.56
4.92
2.62
0.84
-0.52
-1.79
-3.43
-5.77
-8.79
-12.13
-15.28
-17.92
-20.01
-21.87
-23.95
-26.59
-29.93
-33.84
-38.05
-42.18
-45.80
-48.45
-49.63
-48.85
-45.92
-40.91
-34.31
-26.86
-19.35
-12.43
-6.52
-1.72
2.03
4.89
7.07
8.77
10.15
11.44
12.78
14.30
15.95
17.62
19.14
20.38
21.33
22.10
22.88
23.82
25.00
26.36
27.73
28.90
29.70
30.08
30.05
29.69
29.00
27.91
26.37
24.31
21.84
19.20
16.64
14.44
12.68
11.25
9.88
8.30
6.27
3.75
0.82
-2.35
-5.56
-8.61
-11.34
-13.66
-15.62
-17.36
-19.13
-21.18
-23.68
-26.70
-30.30
-34.47
-39.11
-43.94
-48.44
-51.90
-53.67
-53.39
-51.11
-47.30
-42.44
-36.94
-30.89
-24.35
-17.42
-10.40
-3.77
2.04
6.75
10.25
12.55
13.72
13.93
13.52
13.02
12.98
13.85
15.76
18.54
21.78
25.05
28.00
30.43
32.22
33.27
33.54
33.02
31.86
30.33
28.81
27.61
26.87
26.43
25.95
25.01
23.30
20.82
17.89
14.97
12.51
10.68
9.34
8.08
6.50
4.33
1.61
-1.46
-4.58
-7.52
-10.23
-12.74
-15.18
-17.67
-20.42
-23.65
-27.61
-32.44
-37.98
-43.73
-48.79
-52.14
-52.96
-50.96
-46.42
-40.13
-33.01
-25.84
-19.07
-12.81
-7.03
-1.76
2.92
6.85
9.94
12.24
14.00
15.45
16.85
18.39
20.14
22.04
24.01
25.85
27.40
28.55
29.31
29.76
30.06
30.33
30.60
30.80
30.75
30.27
29.13
27.21
24.54
21.36
18.02
14.94
12.33
10.14
8.10
5.88
3.28
0.35
-2.73
-5.80
-8.83
-11.92
-15.19
-18.68
-22.26
-25.77
-29.15
-32.48
-35.93
-39.56
-43.22
-46.51
-48.80
-49.45
-48.03
-44.49
-39.12
-32.48
-25.21
-17.89
-11.00
-4.84
0.31
4.36
7.33
9.41
10.92
12.24
13.70
15.45
17.44
19.50
21.46
23.14
24.49
25.48
26.12
26.43
26.48
26.37
26.20
26.08
26.03
26.02
25.93
25.66
25.17
24.41
23.37
22.00
20.24
18.05
15.53
12.78
10.03
7.42
5.01
2.75
0.61
-1.46
-3.43
-5.29
-7.13
-9.12
-11.51
-14.41
-17.77
-21.36
-24.87
-28.07
-30.97
-33.83
-37.05
-40.93
-45.46
-50.26
-54.64
-57.82
-59.06
-57.97
-54.48
-48.86
-41.63
-33.40
-24.75
-16.22
-8.21
-1.05
5.02
9.93
13.78
16.82
19.33
21.51
23.43
24.96
25.95
26.35
26.32
26.12
26.05
26.31
26.95
27.88
28.91
29.79
30.27
30.21
29.56
28.42
26.91
25.19
23.32
21.36
19.38
17.54
15.94
14.65
13.53
12.32
10.69
8.51
5.76
2.63
-0.69
-4.02
-7.20
-10.11
-12.67
-14.96
-17.23
-19.86
-23.22
-27.51
-32.63
-38.18
-43.55
-48.05
-50.96
-51.70
-49.99
-45.91
-39.93
-32.79
-25.27
-17.93
-11.02
-4.55
1.49
7.05
11.92
15.99
19.24
21.88
24.13
26.15
27.94
29.43
30.57
31.46
32.28
33.13
33.96
34.62
35.00
35.12
35.19
35.43
35.89
36.39
36.61
36.31
35.41
34.06
32.43
30.56
28.33
25.55
22.22
18.53
14.89
11.64
8.96
6.72
4.70
2.71
0.71
-1.23
-3.01
-4.70
-6.45
-8.43
-10.80
-13.60
-16.85
-20.60
-24.90
-29.70
-34.79
-39.69
-43.76
-46.43
-47.31
-46.30
-43.71
-40.08
-36.05
-32.21
-28.89
-26.12
-23.61
-21.01
-18.09
-14.96
-12.04
-9.86
-8.82
-8.95
-9.95
-11.28
-12.33
-12.65
-11.94
-10.05
-7.06
-3.15
1.37
6.08
10.55
14.47
17.62
19.94
21.50
22.40
22.79
22.73
22.21
21.15
19.51
17.36
14.91
12.54
10.61
9.34
8.76
8.75
9.12
9.69
10.28
10.62
10.42
9.46
7.67
5.26
2.61
0.07
-2.19
-4.25
-6.34
-8.72
-11.60
-15.17
-19.51
-24.66
-30.37
-36.10
-40.95
-43.97
-44.47
-42.23
-37.48
-30.80
-22.93
-14.51
-6.12
1.73
8.64
14.32
18.76
22.13
24.79
27.03
29.05
30.89
32.45
33.67
34.53
35.13
35.56
35.91
36.19
36.40
36.54
36.62
36.68
