1520264933.00
64.000000
-0.00
-0.00
-0.00
-0.00
-0.00
-0.00
-0.00
-0.00
-0.00
-0.00
0.00
0.01
0.01
-0.00
-0.03
-0.05
-0.05
0.00
0.13
0.36
0.66
1.01
1.37
1.72
2.06
2.40
2.79
3.24
3.80
4.42
5.06
5.66
6.20
6.68
7.15
7.68
8.31
9.14
10.09
11.04
11.88
12.56
13.14
13.76
14.65
15.96
17.91
20.32
22.90
25.38
27.58
29.57
31.68
34.32
37.81
42.54
48.15
54.10
59.83
64.97
69.58
74.14
79.34
85.71
93.76
103.00
112.62
121.73
129.77
136.75
143.30
150.75
157.77
166.64
177.95
191.79
206.97
220.57
228.25
225.36
208.53
176.87
132.76
80.05
23.07
-34.94
-92.44
-149.16
-205.23
-260.37
-313.74
-363.87
-409.83
-450.91
-486.50
-515.74
-537.23
-549.22
-549.96
-538.37
-514.21
-478.67
-433.88
-382.45
-327.02
-269.84
-212.63
-156.66
-102.95
-52.37
-5.90
35.58
71.43
101.35
125.50
144.38
158.69
169.15
176.37
180.75
182.57
182.07
179.51
175.23
169.65
163.18
156.15
148.81
141.30
133.69
126.02
118.33
110.69
103.16
95.80
88.68
81.83
75.25
68.95
62.95
57.25
51.86
46.78
42.03
37.59
33.45
29.61
26.07
22.81
19.83
17.11
14.67
12.48
10.54
8.83
7.35
6.07
4.97
4.05
3.27
2.62
2.09
1.65
1.30
1.01
0.79
0.61
0.47
0.37
0.29
0.23
0.18
0.15
0.14
0.13
0.13
0.14
0.16
0.18
0.21
0.24
0.28
0.32
0.36
0.40
0.44
0.49
0.53
0.59
0.64
0.69
0.75
0.81
0.88
0.96
1.04
1.14
1.24
1.36
1.49
1.64
1.80
1.99
2.20
2.42
2.67
2.95
3.25
3.58
3.94
4.34
4.77
5.23
5.73
6.28
6.86
7.49
8.16
8.88
9.65
10.47
11.32
12.22
13.17
14.18
15.25
16.38
17.55
18.77
20.00
21.20
22.28
23.17
23.77
23.94
23.60
22.66
21.05
18.78
15.88
12.42
8.56
4.45
0.29
-3.71
-7.38
-10.56
-13.13
-15.02
-16.21
-16.70
-16.55
-15.84
-14.65
-13.08
-11.24
-9.24
-7.18
-5.11
-3.06
-1.09
0.81
2.67
4.49
6.31
8.13
10.02
12.01
14.28
16.79
19.57
22.62
25.88
29.18
32.33
35.09
37.33
39.04
40.04
40.35
40.10
39.40
38.33
36.89
35.17
33.38
32.00
31.15
31.21
32.52
35.16
38.87
43.14
47.42
51.36
55.09
58.40
61.49
64.55
67.31
68.91
67.93
62.55
50.64
35.19
17.42
-1.46
-20.46
-39.13
-57.57
-76.37
-96.36
-118.48
-143.49
-172.29
-204.39
-237.40
-267.14
-288.51
-297.16
-291.15
-271.76
-242.96
-210.35
-178.50
-149.90
-124.94
-102.90
-83.10
-65.43
-50.12
-37.17
-26.22
-16.31
-6.41
3.91
14.25
23.66
31.09
35.95
38.32
38.68
37.87
36.70
35.73
35.19
34.96
34.72
34.03
32.56
30.08
26.63
22.61
18.66
15.58
14.10
14.67
17.40
21.92
27.58
33.58
39.18
43.82
47.25
49.49
50.69
51.07
50.80
49.93
48.46
46.44
44.08
41.83
40.20
39.62
40.15
41.45
42.92
43.99
44.39
44.24
44.00
44.04
44.57
45.45
46.52
47.70
49.16
51.19
53.87
56.86
59.33
60.17
58.55
54.21
47.63
39.89
32.29
26.11
22.46
22.26
26.22
34.58
46.77
61.07
74.77
84.79
88.65
85.39
75.87
62.43
47.95
34.85
24.46
17.02
11.98
8.58
6.13
4.07
1.90
-0.73
-3.98
-7.56
-10.76
-12.67
-12.58
-10.32
-6.49
-2.26
1.00
2.10
0.43
-3.96
-10.39
-17.80
-25.05
-31.31
-36.24
-40.06
-43.34
-46.79
-50.87
-55.66
-60.90
-66.15
-71.08
-75.51
-79.37
-82.61
-84.94
-85.91
-85.01
-82.03
-77.21
-71.34
-65.61
-61.21
-58.97
-59.02
-60.76
-63.05
-64.58
-64.26
-61.51
-56.25
-48.67
-39.00
-27.37
-13.87
1.07
16.57
31.29
43.80
53.10
59.02
62.28
64.04
65.41
66.81
67.80
67.27
63.95
57.00
46.40
32.92
17.92
2.95
-10.69
-22.01
-30.25
-35.16
-36.89
-36.18
-34.37
-33.35
-35.05
-40.57
-49.41
-59.27
-66.69
-68.34
-62.53
-49.84
-32.67
-13.99
4.16
21.40
38.70
57.19
77.05
96.97
114.60
127.54
134.25
134.43
128.82
118.64
105.21
89.77
73.33
56.76
40.96
26.76
14.84
5.63
-0.97
-5.61
-9.34
-13.21
-17.81
-22.98
-27.87
-31.18
-31.72
-28.72
-22.08
-12.46
-1.20
9.91
18.86
23.87
23.85
18.68
9.31
-2.57
-15.05
-26.43
-35.54
-41.76
-44.86
-44.84
-41.86
-36.25
-28.51
-19.37
-9.66
-0.30
7.85
13.96
17.36
17.80
15.65
11.97
8.32
6.21
6.54
9.29
13.61
18.31
22.45
25.70
28.24
30.44
32.38
33.64
33.52
31.39
27.05
20.96
14.04
7.33
1.63
-2.74
-5.99
-8.67
-11.48
-15.06
-19.99
-26.57
-34.69
-43.71
-52.47
-59.71
-64.67
-67.60
-69.93
-73.75
-80.88
-91.88
-105.52
-119.13
-129.52
-134.00
-131.39
-122.07
-107.74
-90.76
-73.47
-57.70
-44.52
-34.20
-26.31
-20.27
-15.53
-11.71
-8.68
-6.22
-3.84
-0.83
3.07
7.37
10.86
12.47
12.06
10.79
10.57
12.89
17.76
23.54
27.90
29.14
27.22
23.50
19.77
17.01
14.81
11.81
6.72
-0.69
-9.44
-17.69
-23.56
-25.82
-24.01
-18.64
-10.79
-1.69
7.52
15.95
23.04
28.47
32.14
34.18
34.89
34.84
34.55
34.46
34.67
35.01
35.20
35.13
34.88
34.61
34.34
33.86
32.95
31.55
29.97
28.68
27.97
27.66
26.99
24.97
20.88
14.69
7.11
-0.74
-7.72
-13.10
-16.71
-18.88
-20.14
-21.08
-22.23
-23.89
-26.14
-28.84
-31.74
-34.55
-36.91
-38.41
-38.61
-37.08
-33.56
-28.07
-21.00
-13.02
-4.91
2.65
9.24
14.72
19.18
22.83
25.86
28.49
30.98
33.66
36.93
41.02
45.80
50.70
54.69
56.67
55.83
51.88
45.21
36.70
27.47
18.53
10.62
4.14
-0.81
-4.30
-6.45
-7.48
-7.65
-7.31
-6.91
-6.84
-7.36
-8.52
-10.21
-12.27
-14.63
-17.41
-20.86
-25.12
-30.05
-35.13
-39.46
-42.04
-42.10
-39.32
-34.06
-27.20
-19.90
-13.26
-7.93
-4.03
-1.16
1.32
4.05
7.37
11.31
15.57
19.75
23.41
26.33
28.65
30.75
33.10
36.06
39.56
43.00
45.43
45.82
43.33
37.55
28.59
17.13
4.44
-7.81
-17.86
-24.37
-26.88
-26.06
-23.43
-20.71
-19.12
-18.92
-19.34
-19.16
-17.20
-12.90
-6.61
0.70
7.77
13.60
17.92
21.22
24.45
28.23
32.26
35.28
35.83
33.19
27.99
22.05
17.40
15.11
14.77
14.88
13.85
11.02
6.92
2.89
0.14
-0.86
-0.47
0.46
1.13
1.00
-0.22
-2.74
-6.66
-11.81
-17.64
-23.12
-26.97
-28.25
-26.82
-23.64
-20.53
-19.53
-21.95
-27.74
-35.36
-42.27
-45.99
-44.98
-39.14
-29.64
-18.30
-6.92
3.04
10.61
15.24
16.66
15.04
11.13
6.21
1.72
-1.28
-2.48
-2.28
-1.38
-0.30
0.88
2.32
4.16
6.21
8.05
9.26
9.67
9.38
8.50
6.82
3.75
-1.36
-8.79
-17.92
-27.27
-34.96
-39.50
-40.42
-38.46
-35.29
-32.93
-33.08
-36.77
-44.38
-55.69
-70.06
-86.42
-103.25
-118.57
-130.20
-136.24
-135.51
-127.80
-113.92
-95.57
-75.06
-55.03
-37.95
-25.46
-17.82
-13.69
-10.68
-6.39
0.45
9.37
18.51
25.73
29.92
31.68
32.95
35.90
41.74
50.17
59.80
69.06
77.02
83.67
89.47
94.66
98.95
101.59
101.90
99.82
95.97
91.38
86.97
83.12
79.61
75.90
71.46
66.09
59.99
53.59
47.37
41.64
36.49
31.76
27.20
22.48
17.33
11.58
5.23
-1.59
-8.67
-15.80
-22.86
-29.77
-36.45
-42.58
-47.59
-50.66
-51.00
-48.24
-42.64
-35.17
-27.14
-19.81
-13.89
-9.43
-5.96
-2.85
0.32
3.60
6.71
9.28
11.06
12.09
12.66
13.14
13.80
14.72
15.76
16.72
17.47
17.99
18.35
18.61
18.73
18.57
17.99
16.88
15.31
13.39
11.27
9.02
6.59
3.94
1.01
-2.14
-5.36
-8.45
-11.35
-14.07
-16.81
-19.90
-23.67
-28.32
-33.70
-39.22
-43.97
-46.89
-47.13
-44.34
-38.83
-31.44
-23.35
-15.68
-9.20
-4.15
-0.34
2.72
5.50
8.30
11.18
14.04
16.71
19.11
21.19
23.01
24.58
25.92
26.99
27.79
28.35
28.76
29.07
29.28
29.29
28.92
28.03
26.56
24.59
22.31
19.89
17.43
14.91
12.21
9.25
6.09
2.96
0.14
-2.24
-4.29
-6.37
-8.93
-12.38
-16.82
-22.00
-27.33
-31.92
-34.83
-35.25
-32.83
-27.79
-20.96
-13.47
-6.46
-0.60
3.96
7.57
10.72
13.77
16.78
19.54
21.87
23.65
25.00
26.08
27.02
27.85
28.45
28.75
28.74
28.51
28.24
27.97
27.66
27.11
26.12
24.60
22.67
20.56
18.52
16.64
14.78
12.74
10.34
7.60
4.72
2.01
-0.35
-2.30
-4.02
-5.79
-7.87
-10.50
-13.83
-17.95
-22.73
-27.78
-32.36
-35.49
-36.28
-34.20
-29.46
-22.87
-15.68
-9.05
-3.76
0.02
2.61
4.54
6.32
8.23
10.30
12.43
14.48
16.30
17.80
18.94
19.79
20.44
21.04
21.72
22.51
23.37
24.19
24.82
25.15
25.03
24.36
23.08
21.15
18.71
16.02
13.41
11.17
9.43
8.06
6.71
5.04
2.81
0.10
-2.79
-5.44
-7.62
-9.38
-11.09
-13.35
-16.65
-21.19
-26.73
-32.56
-37.70
-41.10
-41.96
-39.96
-35.40
-29.08
-22.07
-15.41
-9.80
-5.48
-2.31
0.05
1.99
3.76
5.51
7.24
8.91
10.51
12.00
13.38
14.69
15.99
17.26
18.48
19.51
20.22
20.53
20.48
20.14
19.63
18.97
18.11
16.97
15.57
14.02
12.54
11.24
10.05
8.75
7.01
4.62
1.60
-1.79
-5.13
-8.04
-10.31
-12.01
-13.40
-14.87
-16.76
-19.34
-22.71
-26.74
-31.05
-35.00
-37.81
-38.71
-37.25
-33.48
-27.98
-21.67
-15.52
-10.22
-5.99
-2.62
0.23
2.89
5.44
7.81
9.87
11.57
12.96
14.12
15.16
16.09
16.91
17.57
18.10
18.55
19.02
19.53
20.04
20.40
20.43
20.01
19.07
17.69
15.98
14.08
12.13
10.27
8.58
7.06
5.65
4.19
2.49
0.44
-1.92
-4.41
-6.78
-8.84
-10.57
-12.15
-13.91
-16.19
-19.24
-23.08
-27.52
-32.07
-36.00
-38.53
-39.02
-37.21
-33.34
-28.10
-22.43
-17.16
-12.83
-9.54
-7.01
-4.87
-2.77
-0.57
1.68
3.86
5.87
7.67
9.30
10.81
12.20
13.44
14.43
15.15
15.64
15.98
16.26
16.48
16.62
16.63
16.48
16.16
15.70
15.06
14.13
12.84
11.15
9.16
7.05
5.05
3.29
1.84
0.65
-0.41
-1.41
-2.44
-3.55
-4.85
-6.50
-8.65
-11.33
-14.34
-17.10
-18.81
-18.63
-16.00
-10.83
-3.56
4.97
13.83
22.28
29.87
36.51
42.32
47.51
52.33
56.92
61.35
65.58
69.48
72.93
75.85
78.20
79.95
81.11
81.62
81.50
80.74
79.37
77.39
74.71
71.26
66.98
61.95
56.36
50.39
44.10
37.36
30.01
22.01
13.57
5.10
-2.97
-10.38
-17.14
-23.41
-29.38
-35.13
-40.63
-45.90
-51.00
-55.98
-60.73
-64.84
-67.71
-68.71
-67.55
-64.44
-60.03
-55.16
-50.50
-46.43
-42.94
-39.93
-37.29
-35.05
-33.32
-32.13
-31.46
-31.13
-30.88
-30.48
-29.82
-28.93
-28.04
-27.50
-27.59
-28.47
-30.00
-31.73
-33.10
-33.64
-33.17
-31.92
-30.39
-29.13
-28.55
-28.73
-29.52
-30.67
-31.99
-33.41
-35.04
-37.04
-39.58
-42.69
-46.16
-49.54
-52.24
-53.64
-53.30
-51.07
-47.13
-41.93
-36.00
-29.89
-24.07
-18.87
-14.47
-10.91
-8.07
-5.80
-3.96
-2.50
-1.35
-0.41
0.46
1.44
2.61
3.85
4.86
5.34
5.14
4.37
3.41
2.64
2.29
2.28
2.27
1.82
0.57
-1.62
-4.63
-8.11
-11.61
-14.71
-17.16
-18.98
-20.43
-21.96
-24.05
-27.07
-31.06
-35.70
-40.31
-43.98
-45.80
-45.16
-41.86
-36.31
-29.29
-21.75
-14.56
-8.24
-2.96
1.41
5.13
8.48
11.62
14.60
17.32
19.59
21.20
22.10
22.37
22.31
22.25
22.43
22.88
23.39
23.69
23.53
22.93
22.03
21.04
20.06
18.94
17.39
15.10
11.97
8.20
4.18
0.32
-3.16
-6.28
-9.27
-12.37
-15.76
-19.52
-23.72
-28.48
-33.85
-39.64
-45.26
-49.71
-51.82
-50.73
-46.30
-39.18
-30.65
-22.17
-14.87
-9.27
-5.23
-2.20
0.49
3.36
6.59
10.11
13.67
16.96
19.78
22.01
23.68
24.85
25.63
26.17
26.61
27.09
27.65
28.24
28.63
28.55
27.74
26.08
23.62
20.57
17.14
13.53
9.86
6.18
2.50
-1.18
-4.87
-8.58
-12.32
-16.17
-20.24
-24.74
-29.92
-35.86
-42.31
-48.59
-53.71
-56.56
-56.26
-52.52
-45.70
-36.72
-26.82
-17.20
-8.71
-1.74
3.78
8.24
12.13
15.80
19.41
22.89
26.04
28.72
30.90
32.66
34.14
35.47
36.72
37.90
38.95
39.82
40.38
40.50
40.05
38.95
37.21
34.92
32.25
29.36
26.37
23.33
20.23
17.02
13.67
10.21
6.70
3.18
-0.33
-3.95
-7.94
-12.60
-18.20
-24.78
-32.05
-39.31
-45.59
-49.77
-50.93
-48.64
-43.08
-35.02
-25.61
-16.02
-7.23
0.17
6.04
10.55
14.11
17.17
20.08
23.00
25.89
28.54
30.79
32.62
34.16
35.60
37.08
38.52
39.74
40.48
40.61
40.15
39.18
37.79
36.01
33.85
31.32
28.54
25.66
22.84
20.14
17.44
14.55
11.25
7.46
3.30
-0.92
-4.85
-8.29
-11.38
-14.61
-18.70
-24.25
-31.40
-39.50
-47.17
-52.75
-54.82
-52.81
-47.10
-38.94
-29.85
-21.19
-13.77
-7.88
-3.41
-0.06
2.56
4.77
6.87
9.01
11.22
13.36
15.27
16.87
18.21
19.47
20.83
22.40
24.09
25.66
26.85
27.43
27.30
26.45
24.90
22.69
19.89
16.59
12.98
9.29
5.73
2.48
-0.41
-2.99
-5.35
-7.55
-9.52
-11.20
-12.57
-13.79
-15.23
-17.42
-20.82
-25.67
-31.70
-38.06
-43.50
-46.56
-46.07
-41.51
-33.15
-22.04
-9.63
2.64
13.68
22.95
30.49
36.67
41.95
46.68
50.98
54.70
57.60
59.42
59.95
59.12
57.00
53.76
49.61
44.89
39.95
35.13
30.66
26.63
22.89
19.20
15.28
11.02
6.54
2.13
-1.80
-4.89
-7.01
-8.25
-8.95
-9.52
-10.31
-11.40
-12.63
-13.58
-13.79
-13.05
-11.54
-9.89
-9.05
-9.93
-13.02
-18.01
-23.78
-28.59
-30.62
-28.64
-22.50
-13.22
-2.66
7.13
14.49
18.54
19.16
16.84
12.37
6.73
1.06
-3.43
-5.59
-4.59
-0.22
7.09
16.36
26.46
36.36
45.37
53.08
59.15
63.22
64.89
63.85
60.13
54.22
46.96
39.33
32.10
25.75
20.47
16.43
13.89
13.11
14.13
16.49
19.24
21.18
21.31
19.19
14.99
9.26
2.60
-4.63
-12.16
-19.62
-26.35
-31.34
-33.63
-32.65
-28.50
-22.04
-14.50
-7.21
-1.13
3.29
6.15
7.93
9.33
11.04
13.51
16.84
20.78
24.84
28.53
31.58
34.04
36.22
38.44
40.92
43.55
45.96
47.58
47.71
45.65
40.75
32.69
21.64
8.45
-5.39
-18.16
-28.53
-36.02
-41.31
-45.78
-50.93
-57.52
-65.26
-72.93
-78.92
-81.93
-81.31
-77.03
-69.52
-59.37
-47.25
-33.96
-20.45
-7.67
3.58
12.78
19.78
24.72
27.93
29.86
31.07
32.03
32.95
33.52
33.07
30.97
27.05
22.00
17.18
14.03
13.45
15.39
18.96
22.91
26.22
28.33
28.97
27.84
24.38
18.02
8.61
-3.01
-14.96
-24.87
-30.93
-32.84
-32.15
-31.82
-34.93
-43.21
-56.23
-71.43
-85.10
-93.83
-95.64
-90.42
-79.59
-65.36
-50.03
-35.50
-23.17
-13.85
-7.85
-4.85
-4.06
-4.37
-4.65
-4.11
-2.34
0.61
4.43
8.68
12.86
16.59
19.64
22.02
24.00
25.92
28.07
30.47
32.81
34.61
35.30
34.43
31.79
27.56
22.24
16.65
11.65
7.86
5.40
3.77
2.15
-0.16
-3.43
-7.17
-10.40
-11.97
-11.10
-7.61
-1.98
4.88
11.93
18.24
23.16
26.37
27.81
27.64
26.17
23.87
21.39
19.44
18.72
19.59
21.93
25.10
28.16
30.29
31.09
30.75
29.94
29.35
29.33
29.69
29.78
28.73
25.75
20.33
12.36
2.28
-8.88
-19.55
-28.09
-33.34
-35.28
-35.19
-35.23
-37.50
-43.02
-51.25
-60.16
-67.16
-69.98
-67.37
-59.30
-46.59
-30.58
-12.72
5.49
22.55
36.96
47.41
53.05
53.75
50.26
44.04
36.95
30.79
26.68
24.82
24.46
24.24
22.89
19.84
15.40
10.60
6.65
4.32
3.61
3.92
4.36
4.15
2.84
0.20
-3.96
-9.81
-17.41
-26.38
-35.78
-44.18
-50.23
-53.23
-53.68
-53.32
-54.48
-59.28
-68.56
-81.40
-95.27
-106.77
-112.83
-111.56
-102.81
-87.92
-69.13
-48.79
-28.77
-10.20
6.38
20.75
32.82
42.51
49.90
55.25
59.01
61.66
63.47
64.40
64.20
62.77
60.40
57.84
55.88
54.94
54.76
54.61
53.74
51.91
49.53
47.29
45.69
44.63
43.47
41.50
38.32
34.17
29.67
25.44
21.71
18.36
15.21
12.36
10.30
9.64
10.71
13.14
15.92
17.60
16.90
13.21
6.84
-1.07
-9.00
-15.41
-19.10
-19.42
-16.37
-10.64
-3.60
2.88
6.96
7.31
3.58
-3.65
-13.18
-23.61
-33.72
-42.53
-49.20
-53.01
-53.66
-51.63
-48.49
-46.62
-48.53
-55.87
-68.76
-85.49
-102.94
-117.43
-125.69
-125.60
-116.72
-100.22
-78.59
-55.03
-32.83
-14.75
-2.50
3.48
4.30
2.46
1.63
6.01
19.36
43.79
78.73
120.48
162.75
198.19
220.32
225.32
212.92
186.11
149.90
109.71
70.24
34.84
5.61
-16.45
-31.38
-40.35
-45.64
-50.13
-56.47
-66.04
-78.55
-92.26
-104.85
-114.36
-119.88
-121.64
-120.64
-118.14
-115.28
-112.88
-111.34
-110.71
-110.77
-111.20
-111.81
-112.61
-113.74
-115.18
-116.62
-117.35
-116.53
-113.38
-107.33
-98.15
-85.91
-71.24
-55.39
-40.02
-26.75
-16.37
-8.59
-2.16
4.30
11.57
19.54
27.58
35.30
43.03
51.61
61.65
72.78
83.43
91.54
95.41
94.58
89.89
82.98
75.65
69.28
64.79
62.73
63.37
66.67
72.07
78.46
84.48
89.04
91.81
93.46
95.37
98.95
105.02
113.29
122.39
130.12
134.07
132.17
123.18
106.95
84.58
58.29
31.05
6.00
-14.20
-27.99
-35.16
-36.75
-34.61
-30.82
-27.09
-24.42
-23.12
-22.97
-23.68
-25.06
-27.10
-29.84
-33.24
-37.23
-41.86
-47.55
-55.12
-65.57
-79.60
-97.12
-116.98
-137.09
-154.83
-167.68
-173.71
-171.97
-162.52
-146.38
-125.24
-101.21
-76.51
-53.33
-33.63
-19.07
-10.63
-8.49
-11.75
-18.54
-26.29
-32.22
-33.96
-30.03
-20.18
-5.26
12.94
32.18
50.28
65.48
76.78
84.02
87.76
89.06
89.20
89.24
89.75
90.63
91.09
90.02
86.22
78.88
67.63
52.57
34.31
14.09
-6.15
-23.93
-36.77
-43.11
-42.94
-37.92
-30.71
-23.83
-18.77
-15.75
-14.11
-13.12
-12.50
-12.42
-13.04
-14.12
-14.84
-14.21
-11.57
-7.03
-1.36
4.35
9.18
12.81
15.36
17.22
18.60
19.44
19.44
18.34
16.23
13.54
11.05
9.56
9.71
11.76
15.59
20.72
26.48
32.23
37.54
42.35
46.76
50.88
54.62
57.61
59.48
59.98
59.21
57.46
55.05
51.99
48.06
42.99
36.64
29.24
21.22
13.09
5.21
-2.29
-9.41
-16.22
-22.72
-28.93
-34.84
-40.43
-45.76
-50.82
-55.65
-60.32
-64.92
-69.55
-74.27
-79.05
-83.66
-87.67
-90.43
-91.29
-89.75
-85.75
-79.77
-72.74
-65.74
-59.67
-55.07
-52.06
-50.62
-50.66
-52.07
-54.57
-57.58
-60.24
-61.61
-61.10
-58.69
-54.94
-50.60
-46.23
-41.88
-37.12
-31.40
-24.34
-16.07
-7.15
1.58
9.33
15.66
20.59
24.54
28.03
31.46
34.98
38.47
41.68
44.44
46.69
48.44
49.67
50.29
50.26
49.78
49.41
50.02
52.44
57.06
63.59
71.16
78.71
85.49
91.30
96.47
101.57
106.86
112.05
116.13
117.77
115.69
109.17
98.36
84.18
68.11
51.68
36.19
22.43
10.69
0.87
-7.30
-14.16
-20.11
-25.67
-31.59
-38.69
-47.67
-58.68
-71.11
-83.61
-94.43
-102.10
-105.85
-105.98
-103.60
-100.24
-97.16
-95.07
-93.89
-92.99
-91.47
-88.49
-83.49
-76.33
-67.27
-56.87
-45.88
-34.94
-24.52
-14.83
-5.87
2.40
9.96
16.75
22.64
27.58
31.52
34.46
36.31
36.92
36.05
33.61
29.73
24.83
19.54
14.49
10.13
6.56
3.64
1.08
-1.25
-3.32
-4.88
-5.64
-5.27
-3.51
-0.13
5.08
12.21
20.98
30.62
39.82
46.99
50.83
50.84
47.59
42.59
37.75
34.76
34.56
37.21
42.10
48.27
54.86
61.27
67.12
72.17
76.08
78.43
78.76
76.74
72.32
65.77
57.60
48.43
38.78
28.99
19.21
9.46
-0.15
-9.39
-17.84
-25.09
-30.83
-35.05
-38.02
-40.23
-42.11
-43.89
-45.44
-46.37
-46.19
-44.63
-41.81
-38.27
-34.72
-31.84
-29.98
-29.06
-28.60
-27.91
-26.23
-22.86
-17.26
-9.08
1.72
14.84
29.69
45.49
61.49
77.19
92.41
107.31
122.13
137.00
151.53
164.74
175.06
180.88
181.06
175.39
164.85
151.17
136.30
121.78
108.41
96.30
85.21
74.87
65.12
55.90
46.96
37.82
27.84
16.45
3.51
-10.56
-24.69
-37.50
-47.62
-54.28
-57.55
-58.38
-58.22
-58.59
-60.56
-64.50
-70.12
-76.58
-82.81
-87.78
-90.70
-91.33
-90.03
-87.71
-85.61
-84.89
-86.12
-89.09
-92.84
-96.06
-97.52
-96.57
-93.34
-88.72
-84.07
-80.67
-79.37
-80.28
-82.77
-85.67
-87.61
-87.32
-83.99
-77.57
-68.75
-59.12
-50.90
-46.47
-47.70
-55.27
-68.27
-84.38
-100.62
-114.25
-123.66
-128.58
-129.81
-128.53
-125.67
-121.55
-115.83
-107.84
-96.69
-81.56
-61.86
-37.59
-9.64
19.91
48.03
71.37
87.15
94.09
92.74
85.22
74.53
63.46
53.89
46.38
40.34
34.59
28.06
20.31
11.80
3.54
-3.30
-8.03
-10.80
-12.52
-14.73
-19.14
-27.30
-40.17
-57.53
-77.40
-95.84
-107.61
-107.77
-93.70
-66.53
-31.00
6.16
38.71
63.02
78.66
87.50
92.04
94.00
93.98
92.09
88.83
85.54
83.98
85.55
90.34
96.94
102.69
104.91
101.96
93.99
82.93
71.64
62.61
57.00
54.35
53.17
51.96
50.07
47.82
46.00
45.02
44.38
42.83
38.94
31.86
21.76
9.77
-2.49
-13.45
-22.03
-27.77
-30.73
-31.33
-30.23
-28.18
-25.97
-24.20
-23.20
-22.94
-23.12
-23.33
-23.29
-22.91
-22.25
-21.42
-20.45
-19.19
-17.40
-14.85
-11.42
-7.20
-2.58
1.81
5.24
7.07
6.99
5.13
2.09
-1.30
-4.17
-5.80
-5.82
-4.26
-1.49
1.80
4.80
6.74
7.08
5.67
2.81
-0.84
-4.45
-7.27
-8.92
-9.60
-10.04
-11.19
-13.75
-17.72
-22.28
-26.06
-27.72
-26.58
-22.81
-17.36
-11.44
-5.99
-1.43
2.30
5.50
8.35
10.81
12.64
13.60
13.66
13.06
12.18
11.40
10.85
10.45
9.94
9.17
8.15
7.13
6.40
6.16
6.45
7.06
7.71
8.13
8.15
7.67
6.72
5.38
3.74
1.94
0.01
-2.05
-4.34
-6.90
-9.69
-12.41
-14.67
-16.02
-16.15
-14.93
-12.46
-9.05
-5.13
-1.22
2.18
4.74
6.36
7.29
7.97
8.86
10.19
11.86
13.47
14.57
14.84
14.25
13.03
11.55
10.20
9.23
8.77
8.79
9.16
9.58
9.73
9.33
8.21
6.46
4.28
1.96
-0.28
-2.35
-4.24
-6.05
-7.90
-9.93
-12.23
-14.75
-17.28
-19.39
-20.54
-20.31
-18.55
-15.52
-11.81
-8.07
-4.80
-2.14
0.06
2.08
4.08
6.05
7.79
9.06
9.76
9.94
9.76
9.42
9.02
8.58
8.08
7.56
7.15
7.00
7.17
7.58
8.02
8.21
7.96
7.19
5.94
4.36
2.56
0.71
-1.08
-2.73
-4.25
-5.78
-7.53
-9.68
-12.24
-14.96
-17.34
-18.87
-19.11
-17.93
-15.48
-12.15
-8.40
-4.62
-1.16
1.81
4.18
5.93
7.06
7.62
7.68
7.39
6.97
6.64
6.57
6.79
7.14
7.40
7.37
7.04
6.63
6.43
6.63
7.25
8.03
8.67
8.86
8.46
7.45
5.91
3.96
1.71
-0.64
-2.92
-4.93
-6.59
-8.00
-9.45
-11.28
-13.69
-16.56
-19.40
-21.51
-22.20
-21.11
-18.33
-14.43
-10.14
-6.20
-3.04
-0.79
0.66
1.54
2.08
2.44
2.76
3.13
3.65
4.39
5.37
6.53
7.74
8.83
9.63
10.03
10.05
9.86
9.66
9.67
9.93
10.30
10.48
10.10
8.99
7.23
5.18
3.32
1.99
1.31
1.10
1.03
0.72
-0.03
-1.29
-3.07
-5.29
-7.78
-10.20
-11.96
-12.36
-10.87
-7.35
-2.24
3.62
9.28
13.97
17.36
19.53
20.76
21.33
21.40
21.02
20.20
19.04
17.75
16.56
15.70
15.23
15.12
15.22
15.38
15.45
15.40
15.23
15.00
14.77
14.51
14.08
13.31
11.98
10.02
7.51
4.74
2.06
-0.25
-2.11
-3.62
-5.06
-6.70
-8.71
-11.16
-13.94
-16.91
-19.82
-22.36
-24.15
-24.83
-24.16
-22.16
-19.11
-15.51
-11.93
-8.82
-6.39
-4.64
-3.40
-2.55
-2.07
-2.01
-2.40
-3.13
-3.92
-4.40
-4.36
-3.78
-2.89
-2.00
-1.33
-0.88
-0.48
0.04
0.73
1.41
1.78
1.56
0.62
-0.86
-2.50
-3.86
-4.62
-4.74
-4.48
-4.28
-4.58
-5.63
-7.38
-9.57
-11.78
-13.66
-14.97
-15.60
-15.46
-14.50
-12.74
-10.29
-7.45
-4.62
-2.17
-0.34
0.88
1.65
2.20
2.72
3.28
3.87
4.42
4.93
5.38
5.76
6.03
6.12
6.03
5.84
5.66
5.56
5.52
5.41
5.04
4.26
3.03
1.37
-0.58
-2.68
-4.78
-6.74
-8.44
-9.84
-11.00
-12.13
-13.48
-15.25
-17.37
-19.50
-21.07
-21.49
-20.44
-17.98
-14.54
-10.70
-6.99
-3.70
-0.88
1.55
3.65
5.39
6.70
7.52
7.94
8.16
8.38
8.69
9.02
9.18
8.98
8.35
7.38
6.31
5.38
4.74
4.30
3.85
3.08
1.81
0.04
-1.97
-3.84
-5.25
-6.08
-6.51
-6.95
-7.79
-9.31
-11.54
-14.23
-16.92
-19.08
-20.25
-20.04
-18.33
-15.23
-11.19
-6.80
-2.74
0.44
2.53
3.57
3.85
3.68
3.35
2.98
2.66
2.46
2.48
2.80
3.49
4.43
5.42
6.17
6.47
6.22
5.54
4.61
3.64
2.74
1.87
0.88
-0.35
-1.83
-3.43
-4.92
-6.19
-7.30
-8.52
-10.17
-12.47
-15.42
-18.67
-21.71
-23.96
-24.95
-24.42
-22.36
-18.98
-14.72
-10.12
-5.76
-2.09
0.65
2.47
3.62
4.45
5.30
6.41
7.85
9.53
11.23
12.78
14.06
15.11
16.06
17.05
18.09
19.05
19.69
19.81
19.35
18.40
17.16
15.80
14.39
12.94
11.40
9.79
8.21
6.71
5.23
3.55
1.35
-1.68
-5.55
-10.00
-14.44
-18.15
-20.49
-21.01
-19.59
-16.42
-11.90
-6.56
-1.05
4.02
8.18
11.20
13.17
14.46
15.49
16.60
17.84
19.03
19.87
20.18
19.94
19.23
18.20
16.92
15.43
13.74
11.95
10.22
8.69
7.32
5.89
4.11
1.76
-1.15
-4.32
-7.40
-10.14
-12.54
-14.91
-17.69
-21.18
-25.41
-29.99
-34.21
-37.25
-38.42
-37.36
-34.24
-29.56
-24.06
-18.44
-13.11
-8.17
-3.48
1.12
5.64
9.84
13.42
16.11
17.90
19.00
19.77
20.51
21.35
22.26
23.06
23.56
23.62
23.23
22.49
21.65
20.97
20.54
20.30
19.95
19.14
17.59
15.27
12.41
9.38
6.51
3.92
1.53
-0.84
-3.36
-6.14
-9.26
-12.88
-17.04
-21.64
-26.22
-30.02
-32.18
-32.06
-29.58
-25.16
-19.59
-13.67
-8.02
-2.93
1.55
5.48
8.99
12.17
15.14
17.89
20.35
22.34
23.72
24.52
24.93
25.26
25.77
26.59
27.67
28.85
29.91
30.62
30.74
30.09
28.58
26.34
23.71
21.11
18.92
17.25
15.95
14.67
13.06
10.91
8.24
5.23
2.14
-0.81
-3.49
-5.84
-7.93
-9.98
-12.26
-15.12
-18.79
-23.17
-27.74
-31.59
-33.75
-33.45
-30.50
-25.31
-18.79
-11.99
-5.75
-0.53
3.63
6.95
9.77
12.33
14.74
16.99
18.99
20.65
21.94
22.90
23.62
24.21
24.70
25.05
25.19
25.08
24.72
24.21
23.66
23.13
22.56
21.82
20.74
19.30
17.62
15.96
14.56
13.51
12.65
11.62
10.08
7.86
5.04
1.92
-1.10
-3.72
-5.86
-7.64
-9.35
-11.31
-13.83
-17.08
-20.99
-25.15
-28.90
-31.40
-31.91
-30.09
-26.08
-20.59
-14.58
-9.00
-4.43
-1.00
1.61
3.80
5.94
8.11
10.20
12.04
13.56
14.82
15.91
16.93
17.85
18.53
18.91
19.00
18.96
18.98
19.16
19.45
19.66
19.54
18.90
17.65
15.88
13.76
11.55
9.48
7.71
6.29
5.12
4.08
3.00
1.75
0.27
-1.43
-3.30
-5.27
-7.23
-9.08
-10.79
-12.42
-14.15
-16.22
-18.78
-21.82
-25.00
-27.74
-29.37
-29.36
-27.49
-23.95
-19.29
-14.21
-9.39
-5.25
-1.95
0.61
2.61
4.21
5.48
6.44
7.14
7.68
8.23
8.92
9.76
10.63
11.35
11.72
11.69
11.32
10.80
10.36
10.15
10.19
10.37
10.47
10.31
9.74
8.74
7.36
5.65
3.69
1.53
-0.68
-2.76
-4.50
-5.82
-6.78
-7.61
-8.58
-9.92
-11.73
-13.99
-16.53
-19.09
-21.32
-22.77
-23.08
-21.97
-19.48
-15.91
-11.82
-7.83
-4.38
-1.72
0.22
1.66
2.83
3.91
4.88
5.63
6.02
6.00
5.64
5.15
4.79
4.74
5.04
5.59
6.22
6.75
7.09
7.20
7.10
6.87
6.50
5.94
5.08
3.78
2.04
-0.03
-2.20
-4.13
-5.60
-6.52
-7.04
-7.50
-8.29
-9.72
-11.90
-14.70
-17.68
-20.28
-21.90
-22.12
-20.81
-18.20
-14.75
-11.02
-7.46
-4.37
-1.84
0.15
1.68
2.82
3.62
4.13
4.41
4.57
4.70
4.93
5.33
5.87
6.44
6.88
7.10
7.09
6.98
6.92
6.99
7.11
7.08
6.62
5.56
3.93
1.94
-0.09
-1.89
-3.30
-4.36
-5.21
-6.07
-7.08
-8.36
-9.94
-11.84
-14.02
-16.41
-18.80
-20.84
-22.12
-22.31
-21.31
-19.31
-16.71
-13.94
-11.34
-9.05
-7.06
-5.34
-3.90
-2.79
-2.07
-1.73
-1.64
-1.68
-1.77
-1.88
-2.03
-2.17
-2.17
-1.86
-1.14
-0.07
1.08
1.98
2.32
2.03
1.27
0.36
-0.43
-1.05
-1.70
-2.77
-4.60
-7.30
-10.70
-14.35
-17.69
-20.23
-21.69
-22.01
-21.32
-19.88
-17.96
-15.81
-13.57
-11.27
-8.91
-6.53
-4.25
-2.32
-0.99
-0.34
-0.20
-0.14
0.36
1.60
3.54
5.78
7.73
8.92
9.21
8.74
7.91
7.12
6.57
6.25
5.94
5.37
4.34
2.83
1.00
-0.87
-2.47
-3.63
-4.30
-4.62
-4.80
-5.08
-5.58
-6.38
-7.47
-8.81
-10.36
-12.07
-13.85
-15.61
-17.28
-18.84
-20.42
-22.24
-24.49
-27.18
-29.97
-32.18
-33.06
-32.03
-28.96
-24.26
-18.69
-13.08
-7.99
-3.66
-0.01
3.17
6.08
8.79
11.30
13.57
15.53
17.14
18.35
19.19
19.75
20.17
20.58
21.00
21.37
21.54
21.42
20.99
20.35
19.61
18.83
17.97
16.91
15.53
13.83
11.90
9.94
8.13
6.55
5.13
3.72
2.16
0.35
-1.68
-3.82
-5.98
-8.21
-10.75
-13.88
-17.68
-21.88
-25.74
-28.30
-28.76
-26.83
-22.88
-17.77
-12.47
-7.72
-3.80
-0.62
2.07
4.46
6.58
8.37
9.81
11.02
12.22
13.61
15.23
16.90
18.32
19.23
19.59
19.56
19.50
19.71
20.31
21.19
22.01
22.44
22.26
21.38
19.93
18.10
16.12
14.23
12.58
11.27
10.27
9.41
8.49
7.31
5.75
3.85
1.75
-0.36
-2.37
-4.32
-6.37
-8.76
-11.67
-15.12
-18.90
-22.57
-25.57
-27.31
-27.37
-25.61
-22.28
-17.89
-13.16
-8.69
-4.92
-1.96
0.32
2.11
3.64
5.05
6.40
7.73
9.05
10.38
11.68
12.88
13.93
14.81
15.54
16.20
16.81
17.35
17.80
18.06
18.10
17.90
17.46
16.82
16.00
15.04
14.02
12.98
11.96
10.94
9.78
8.31
6.40
4.05
1.43
-1.14
-3.33
-4.93
-5.99
-6.79
-7.76
-9.31
-11.74
-15.03
-18.93
-22.90
-26.25
-28.25
-28.35
-26.37
-22.58
-17.62
-12.32
-7.41
-3.31
-0.10
2.35
4.28
5.86
7.17
8.27
9.23
10.14
11.09
12.08
13.09
14.06
14.98
15.92
16.93
17.99
19.00
19.71
19.94
19.60
18.72
17.48
16.06
14.64
13.28
11.97
10.65
9.23
7.67
5.98
4.22
2.53
0.98
-0.41
-1.73
-3.13
-4.81
-6.92
-9.48
-12.39
-15.38
-18.04
-19.90
-20.52
-19.62
-17.14
-13.36
-8.75
-3.94
0.52
4.25
7.09
9.12
10.53
11.47
12.04
12.25
12.13
11.79
11.42
11.26
11.40
11.85
12.43
12.95
13.24
13.27
13.11
12.83
12.47
12.04
11.47
10.70
9.65
8.29
6.60
4.69
2.79
1.14
-0.08
-0.89
-1.54
-2.43
-3.93
-6.22
-9.25
-12.75
-16.37
-19.73
-22.43
-24.12
-24.45
-23.21
-20.44
-16.47
-11.85
-7.24
-3.17
0.11
2.58
4.41
5.83
7.00
7.97
8.76
9.38
9.81
10.14
10.41
10.67
10.94
11.23
11.46
11.57
11.52
11.28
10.87
10.33
9.66
8.84
7.77
6.44
4.86
3.11
1.38
-0.20
-1.56
-2.78
-4.05
-5.61
-7.65
-10.27
-13.39
-16.70
-19.76
-22.00
-22.87
-22.06
-19.61
-15.89
-11.55
-7.24
-3.43
-0.28
2.26
4.29
5.87
6.91
7.37
7.29
6.95
6.75
7.00
7.77
8.85
9.87
10.49
10.57
10.26
9.80
9.45
9.24
9.03
8.59
7.69
6.25
4.35
2.19
0.06
-1.80
-3.23
-4.27
-5.09
-6.02
-7.37
-9.39
-12.11
-15.32
-18.56
-21.22
-22.64
-22.31
-20.07
-16.22
-11.37
-6.31
-1.76
1.85
4.40
6.03
7.00
7.57
7.96
8.34
8.82
9.45
10.27
11.19
12.12
12.93
13.49
13.73
13.59
13.10
12.41
11.71
11.19
10.90
10.71
10.38
9.66
8.45
6.84
5.04
3.27
1.64
0.14
-1.34
-2.97
-4.85
-7.07
-9.63
-12.50
-15.46
-18.13
-20.02
-20.59
-19.54
-16.94
-13.23
-9.06
-5.12
-1.78
0.87
3.02
4.91
6.71
8.40
9.90
11.16
12.23
13.27
14.37
15.42
16.19
16.35
15.79
14.61
13.20
12.03
11.39
11.31
11.56
11.83
11.84
11.46
10.68
9.52
8.00
6.17
4.12
1.99
-0.05
-1.95
-3.75
-5.61
-7.68
-10.04
-12.61
-15.15
-17.32
-18.76
-19.13
-18.22
-16.00
-12.70
-8.76
-4.69
-0.95
2.21
4.74
6.77
8.41
9.73
10.68
11.19
11.26
11.04
10.81
10.91
11.52
12.60
13.86
14.90
15.41
15.27
14.65
13.82
13.07
12.53
12.12
11.68
11.00
9.93
8.44
6.59
4.56
2.60
0.92
-0.33
-1.18
-1.82
-2.62
-3.86
-5.70
-8.08
-10.66
-12.97
-14.51
-14.77
-13.46
-10.52
-6.26
-1.32
3.42
7.12
9.26
9.82
9.29
8.40
7.84
7.94
8.61
9.48
10.15
10.39
10.20
9.75
9.25
8.86
8.71
8.87
9.38
10.16
11.00
11.58
11.55
10.68
8.95
6.60
3.98
1.53
-0.44
-1.74
-2.40
-2.63
-2.77
-3.17
-4.12
-5.71
-7.85
-10.32
-12.91
-15.50
-18.07
-20.67
-23.22
-25.57
-27.39
-28.37
-28.30
-27.15
-25.17
-22.75
-20.32
-18.18
-16.42
-14.89
-13.31
-11.44
-9.15
-6.53
-3.75
-1.09
1.21
2.97
4.14
4.74
4.92
4.92
5.00
5.36
6.02
6.83
7.51
7.85
7.79
7.44
7.03
6.71
6.50
6.30
5.93
5.29
4.31
3.07
1.63
0.14
-1.27
-2.43
-3.17
-3.45
-3.34
-3.11
-3.16
-3.85
-5.46
-7.97
-11.10
-14.29
-16.85
-18.16
-17.90
-16.11
-13.20
-9.78
-6.49
-3.78
-1.85
-0.66
0.02
0.53
1.20
2.29
3.83
5.65
7.46
8.88
9.68
9.82
9.43
8.75
7.97
7.22
6.54
5.95
5.49
5.14
4.89
4.65
4.32
3.82
3.16
2.43
1.76
1.28
1.00
0.83
0.53
-0.13
-1.35
-3.11
-5.26
-7.53
-9.68
-11.51
-12.94
-14.03
-14.89
-15.75
-16.78
-18.09
-19.58
-20.94
-21.72
-21.49
-20.07
-17.63
-14.64
-11.65
-9.14
-7.28
-5.99
-5.04
-4.23
-3.47
-2.76
-2.14
-1.56
-0.97
-0.31
0.38
1.01
1.41
1.46
1.11
0.46
-0.28
-0.88
-1.16
-1.04
-0.59
-0.03
0.34
0.23
-0.51
-1.80
-3.34
-4.71
-5.58
-5.89
-5.85
-5.80
-6.09
-6.83
-7.87
-8.94
-9.74
-10.17
-10.29
-10.24
-10.21
-10.34
-10.73
-11.47
-12.60
-14.08
-15.69
-17.09
-17.84
-17.56
-16.11
-13.65
-10.59
-7.50
-4.80
-2.72
-1.23
-0.08
0.95
1.99
2.94
3.58
3.73
3.36
2.68
2.01
1.66
1.82
2.47
3.46
4.61
5.72
6.65
7.26
7.36
6.83
5.64
3.90
1.91
0.02
-1.48
-2.46
-2.98
-3.23
-3.45
-3.78
-4.26
-4.81
-5.35
-5.86
-6.41
-7.13
-8.16
-9.54
-11.21
-12.94
-14.42
-15.27
-15.18
-14.04
-11.95
-9.26
-6.39
-3.79
-1.73
-0.32
0.52
0.94
1.11
1.14
1.15
1.30
1.71
2.47
3.52
4.69
5.72
6.44
6.78
6.84
6.79
6.73
6.67
6.51
6.16
5.62
4.92
4.18
3.47
2.81
2.15
1.49
0.86
0.28
-0.20
-0.63
-1.11
-1.75
-2.66
-3.85
-5.25
-6.76
-8.18
-9.31
-9.93
-9.85
-8.96
-7.31
-5.09
-2.59
-0.11
2.14
4.07
5.70
7.02
7.93
8.29
8.02
7.24
6.27
5.52
5.31
5.68
6.42
7.18
7.64
7.72
7.53
7.26
7.09
7.05
7.08
7.08
6.92
6.53
5.83
4.76
3.28
1.48
-0.45
-2.25
-3.71
-4.75
-5.52
-6.29
-7.32
-8.70
-10.30
-11.79
-12.75
-12.86
-11.98
-10.17
-7.67
-4.79
-1.86
0.81
3.00
4.59
5.56
6.02
6.15
6.18
6.30
6.64
7.22
8.01
8.93
9.87
10.75
11.47
11.93
12.09
11.92
11.48
10.87
10.22
9.62
9.08
8.53
7.90
7.07
5.95
4.56
2.94
1.23
-0.43
-1.93
-3.29
-4.61
-6.10
-7.96
-10.30
-13.06
-16.00
-18.81
-21.12
-22.65
-23.19
-22.60
-20.85
-18.07
-14.52
-10.64
-6.85
-3.53
-0.85
1.18
2.67
3.81
4.72
5.50
6.21
6.94
7.72
8.59
9.49
10.35
11.08
11.62
11.94
12.01
11.80
11.32
10.62
9.77
8.86
7.98
7.16
6.33
5.41
4.32
3.05
1.65
0.21
-1.20
-2.52
-3.83
-5.16
-6.59
-8.17
-9.95
-12.00
-14.42
-17.23
-20.31
-23.32
-25.73
-26.99
-26.70
-24.83
-21.65
-17.71
-13.59
-9.75
-6.44
-3.68
-1.31
0.84
2.87
4.80
6.53
7.98
9.17
10.21
11.31
12.61
14.15
15.81
17.44
18.89
20.08
21.02
21.71
22.15
22.30
22.14
21.62
20.76
19.57
18.14
16.60
15.11
13.79
12.62
11.40
9.85
7.76
5.11
2.11
-0.86
-3.45
-5.43
-6.83
-7.88
-8.97
-10.50
-12.77
-15.89
-19.70
-23.79
-27.56
-30.36
-31.70
-31.32
-29.26
-25.88
-21.69
-17.29
-13.17
-9.65
-6.77
-4.37
-2.21
-0.04
2.20
4.47
6.61
8.48
10.04
11.26
12.17
12.79
13.22
13.55
13.96
14.56
15.38
16.21
16.75
16.72
15.97
14.59
12.79
10.90
9.14
7.62
6.34
5.21
4.08
2.83
1.33
-0.48
-2.57
-4.81
-7.00
-8.95
-10.57
-11.93
-13.24
-14.78
-16.78
-19.34
-22.31
-25.27
-27.65
-28.79
-28.24
-25.91
-22.10
-17.46
-12.66
-8.25
-4.44
-1.18
1.70
4.35
6.69
8.59
9.92
10.70
11.12
11.47
11.93
12.55
13.24
13.87
14.36
14.75
15.10
15.45
15.76
15.91
15.75
15.18
14.19
12.82
11.19
9.44
7.72
6.12
4.68
3.37
2.05
0.55
-1.31
-3.61
-6.31
-9.27
-12.29
-15.18
-17.85
-20.34
-22.76
-25.25
-27.84
-30.47
-32.83
-34.52
-35.04
-34.01
-31.32
-27.18
-22.17
-17.00
-12.32
-8.46
-5.44
-3.03
-0.95
0.92
2.53
3.75
4.51
4.96
5.37
6.04
7.13
8.59
10.19
11.66
12.76
13.38
13.53
13.31
12.86
12.29
11.67
11.02
10.33
9.52
8.55
7.39
6.03
4.54
2.99
1.47
0.00
-1.39
-2.78
-4.29
-6.05
-8.17
-10.66
-13.39
-16.11
-18.41
-19.85
-20.03
-18.79
-16.21
-12.66
-8.65
-4.68
-1.03
2.21
5.05
7.49
9.40
10.55
10.82
10.26
9.18
8.05
7.29
7.12
7.50
8.17
8.80
9.09
8.87
8.18
7.19
6.19
5.39
4.84
4.37
3.59
2.19
-0.02
-2.88
-6.07
-9.20
-11.96
-14.21
-15.97
-17.33
-18.49
-19.71
-21.23
-23.24
-25.62
-27.94
-29.50
-29.60
-27.87
-24.38
-19.70
-14.58
-9.70
-5.37
-1.60
1.80
5.03
8.13
10.96
13.35
15.21
16.63
17.93
19.46
21.47
23.98
26.78
29.57
32.08
34.25
36.19
38.12
40.15
42.22
44.09
45.43
46.01
45.84
45.15
44.32
43.67
43.28
43.04
42.67
41.86
40.41
38.30
35.65
32.74
29.93
27.64
26.26
26.00
26.78
28.16
29.50
30.25
30.14
29.40
28.49
27.86
27.67
27.67
27.46
26.68
25.29
23.48
21.58
19.77
18.01
16.11
13.89
11.34
8.62
5.94
3.44
1.09
-1.28
-3.86
-6.72
-9.75
-12.75
-15.49
-17.91
-20.09
-22.30
-24.82
-27.87
-31.42
-35.19
-38.66
-41.22
-42.27
-41.46
-38.69
-34.24
-28.72
-22.95
-17.82
-14.04
-11.92
-11.32
-11.71
-12.38
-12.66
-12.16
-10.81
-8.88
-6.78
-4.97
-3.83
-3.60
-4.30
-5.76
-7.70
-9.71
-11.40
-12.54
-13.11
-13.40
-13.95
-15.38
-18.07
-21.98
-26.53
-30.90
-34.26
-36.15
-36.67
-36.39
-36.18
-36.85
-38.88
-42.21
-46.13
-49.36
-50.39
-47.99
-41.74
-32.30
-21.34
-10.94
-2.82
2.24
4.57
5.34
5.87
7.19
9.74
13.41
17.84
22.64
27.49
31.99
35.62
37.71
37.72
35.51
31.51
26.70
22.20
18.87
16.99
16.21
15.82
15.06
13.45
10.89
7.60
3.96
0.36
-2.93
-5.78
-8.28
-10.66
-13.24
-16.22
-19.58
-23.00
-25.94
-27.79
-28.07
-26.59
-23.55
-19.37
-14.60
-9.75
-5.18
-1.06
2.60
5.90
8.98
11.95
14.87
17.67
20.18
22.17
23.41
23.75
23.19
21.93
20.29
18.68
17.49
16.96
17.19
18.07
19.39
20.90
22.32
23.39
23.81
23.35
21.83
19.20
15.57
11.15
6.23
1.06
-4.14
-9.30
-14.38
-19.39
-24.25
-28.75
-32.52
-35.08
-36.01
-35.09
-32.42
-28.41
-23.65
-18.71
-13.95
-9.54
-5.44
-1.54
2.16
5.51
8.23
10.01
10.71
10.55
9.98
9.67
10.08
11.23
12.76
14.05
14.64
14.40
13.64
12.79
12.23
12.03
12.06
12.09
11.92
11.33
9.99
7.50
3.49
-2.16
-9.17
-16.96
-24.95
-32.92
-41.05
-49.83
-59.49
-69.75
-79.60
-87.62
-92.44
-93.28
-90.26
-84.28
-76.64
-68.53
-60.64
-53.03
-45.28
-36.82
-27.21
-16.33
-4.34
8.42
21.58
34.72
47.35
58.81
68.39
75.47
79.85
81.82
82.12
81.73
81.55
82.12
83.52
85.43
87.30
88.56
88.85
88.06
86.25
83.46
79.66
74.70
68.47
61.15
53.21
45.44
38.63
33.30
29.52
26.98
25.20
23.78
22.53
21.49
20.73
20.23
19.79
19.17
18.21
16.93
15.56
14.38
13.68
13.59
14.14
15.21
16.58
17.88
18.63
18.28
16.30
12.38
6.49
-1.12
-10.05
-19.86
-30.06
-40.15
-49.53
-57.61
-63.91
-68.19
-70.53
-71.29
-71.01
-70.30
-69.68
-69.52
-69.99
-71.06
-72.56
-74.27
-76.05
-77.82
-79.53
-81.00
-81.81
-81.37
-79.10
-74.54
-67.58
-58.30
-46.94
-33.91
-19.79
-5.46
8.01
19.55
28.46
34.60
38.35
40.33
40.99
40.42
38.49
35.12
30.60
25.63
20.98
17.16
14.27
12.08
10.38
9.21
8.87
9.67
11.60
14.09
16.22
17.01
15.91
12.98
8.83
4.42
0.68
-1.73
-2.55
-1.92
-0.29
1.79
3.83
5.56
6.90
7.97
8.93
9.83
10.65
11.32
11.79
12.12
12.40
12.69
13.00
13.30
13.49
13.49
13.24
12.70
11.92
11.02
10.19
9.64
9.43
9.47
9.46
9.12
8.30
7.10
5.83
4.78
4.07
3.53
2.86
1.78
0.26
-1.53
-3.29
-4.79
-6.01
-7.02
-7.91
-8.73
-9.41
-9.90
-10.22
-10.45
-10.70
-11.01
-11.33
-11.56
-11.69
-11.79
-11.98
-12.37
-12.92
-13.43
-13.57
-12.99
-11.47
-8.95
-5.62
-1.85
1.84
5.05
7.52
9.27
10.44
11.20
11.58
11.42
10.61
9.15
7.33
5.61
4.42
3.92
3.92
4.02
3.82
3.20
2.27
1.30
0.58
0.19
0.04
-0.13
-0.63
-1.78
-3.80
-6.85
-10.89
-15.64
-20.62
-25.21
-28.87
-31.23
-32.21
-31.93
-30.62
-28.49
-25.66
-22.22
-18.33
-14.29
-10.46
-7.16
-4.53
-2.43
-0.52
1.55
3.96
6.66
9.40
11.96
14.29
16.49
18.70
20.94
23.02
24.56
25.21
24.80
23.34
21.06
18.26
15.22
12.18
9.33
6.81
4.69
2.91
1.32
-0.21
-1.79
-3.38
-4.91
-6.33
-7.69
-9.11
-10.75
-12.69
-14.83
-16.93
-18.58
-19.39
-19.06
-17.51
-14.92
-11.68
-8.25
-5.03
-2.27
-0.04
1.62
2.72
3.27
3.41
3.33
3.31
3.54
4.03
4.60
4.97
4.94
4.56
4.10
3.91
4.29
5.27
6.66
8.15
9.42
10.23
10.45
10.01
8.97
7.55
6.07
4.88
4.18
3.92
3.79
3.35
2.32
0.73
-1.08
-2.62
-3.58
-4.01
-4.32
-5.04
-6.59
-9.01
-11.92
-14.69
-16.58
-17.08
-15.99
-13.54
-10.26
-6.90
-4.16
-2.56
-2.27
-2.99
-4.11
-4.91
-4.79
-3.54
-1.29
1.56
4.55
7.28
9.51
11.00
11.58
11.07
9.48
7.04
4.24
1.61
-0.34
-1.39
-1.63
-1.38
-1.14
-1.41
-2.57
-4.71
-7.62
-10.75
-13.50
-15.38
-16.23
-16.30
-16.11
-16.24
-17.06
-18.74
-21.16
-24.00
-26.86
-29.25
-30.73
-30.95
-29.82
-27.50
-24.42
-21.11
-18.03
-15.44
-13.40
-11.79
-10.41
-9.07
-7.64
-6.06
-4.34
-2.54
-0.74
1.03
2.81
4.66
6.64
8.76
10.95
13.16
15.28
17.28
19.10
20.63
21.65
21.95
21.38
19.99
18.06
15.97
14.09
12.58
11.38
10.24
8.87
7.04
4.70
1.88
-1.31
-4.70
-8.05
-11.00
-13.03
-13.63
-12.48
-9.63
-5.53
-0.93
3.38
6.86
9.34
11.00
12.14
12.99
13.54
13.65
13.15
12.09
10.74
9.55
8.92
9.02
9.71
10.59
11.30
11.69
11.86
12.08
12.54
13.16
13.63
13.53
12.58
10.80
8.48
6.06
3.91
2.22
0.99
0.11
-0.59
-1.27
-2.12
-3.42
-5.42
-8.28
-11.91
-15.89
-19.52
-21.99
-22.65
-21.21
-17.94
-13.55
-8.91
-4.82
-1.73
0.33
1.65
2.64
3.60
4.60
5.51
5.98
5.65
4.17
1.34
-2.79
-7.85
-13.21
-18.00
-21.39
-22.76
-21.88
-18.89
-14.30
-8.83
-3.20
1.93
6.11
9.11
11.01
12.10
12.78
13.44
14.25
15.08
15.44
14.68
12.21
7.73
1.46
-5.84
-13.03
-18.94
-22.72
-24.05
-23.16
-20.65
-17.19
-13.28
-9.23
-5.16
-1.12
2.82
6.59
10.07
13.06
15.36
16.70
16.87
15.81
13.67
10.82
7.71
4.79
2.31
0.43
-0.86
-1.61
-1.92
-1.99
-2.03
-2.34
-3.13
-4.48
-6.33
-8.43
-10.46
-12.09
-13.11
-13.52
-13.62
-13.82
-14.59
-16.28
-18.96
-22.30
-25.72
-28.44
-29.71
-29.03
-26.30
-21.86
-16.47
-11.01
-6.30
-2.79
-0.45
1.04
2.15
3.28
4.55
5.88
7.10
8.01
8.53
8.68
8.57
8.30
8.04
7.92
8.04
8.41
8.92
9.37
9.57
9.30
8.45
6.96
4.87
2.33
-0.37
-2.91
-4.93
-6.21
-6.74
-6.76
-6.69
-7.09
-8.44
-11.00
-14.61
-18.63
-22.06
-23.82
-23.09
-19.70
-14.18
-7.52
-0.86
4.92
9.45
12.77
15.16
16.94
18.34
19.48
20.46
21.33
22.15
22.85
23.38
23.71
23.91
24.12
24.50
25.09
25.76
26.26
26.36
25.94
25.03
23.65
21.77
19.28
16.14
12.47
8.70
5.28
2.45
0.07
-2.45
-5.85
-10.60
-16.69
-23.54
-30.22
-35.80
-39.57
-41.15
-40.43
-37.64
-33.23
-27.88
-22.34
-17.34
-13.33
-10.46
-8.54
-7.25
-6.16
-4.88
-3.12
-0.73
2.27
5.69
9.23
12.62
15.67
18.34
20.70
22.82
24.74
26.43
27.80
28.80
29.36
29.37
28.66
27.07
24.56
21.27
17.62
14.14
11.31
9.44
8.56
8.42
8.61
8.66
8.21
6.95
4.76
1.75
-1.79
-5.28
-8.07
-9.56
-9.45
-7.90
-5.40
-2.65
-0.20
1.71
3.22
4.61
6.07
7.58
8.88
9.69
9.92
9.67
9.23
8.84
8.65
8.61
8.64
8.71
8.86
9.18
9.66
10.21
10.60
10.63
10.15
9.21
7.93
6.51
5.10
3.77
2.51
1.25
-0.06
-1.40
-2.72
-3.94
-5.05
-6.13
-7.35
-8.93
-10.99
-13.55
-16.40
-19.18
-21.41
-22.62
-22.50
-21.02
-18.38
-15.02
-11.49
-8.27
-5.70
-3.82
-2.48
-1.37
-0.19
1.29
3.10
5.07
6.92
8.39
9.31
9.71
9.74
9.63
9.53
9.48
9.39
9.16
8.67
7.92
6.93
5.79
4.53
3.18
1.79
0.44
-0.71
-1.53
-1.95
-2.06
-2.07
-2.26
-2.85
-3.91
-5.37
-7.02
-8.61
-10.00
-11.22
-12.46
-14.03
-16.16
-18.88
-21.92
-24.74
-26.67
-27.12
-25.81
-22.86
-18.83
-14.49
-10.61
-7.64
-5.59
-4.13
-2.72
-0.99
1.15
3.48
5.61
7.26
8.28
8.77
8.87
8.77
8.59
8.50
8.66
9.19
10.14
11.34
12.54
13.42
13.79
13.62
13.00
12.14
11.17
10.20
9.30
8.52
7.85
7.24
6.61
5.85
4.87
3.64
2.22
0.72
-0.73
-2.02
-3.09
-3.92
-4.55
-5.07
-5.66
-6.54
-7.92
-10.02
-12.86
-16.23
-19.70
-22.68
-24.59
-24.99
-23.77
-21.11
-17.52
-13.66
-10.13
-7.36
-5.45
-4.17
-3.12
-1.87
-0.18
1.95
4.29
6.49
8.20
9.27
9.68
9.59
9.24
8.86
8.62
8.61
8.89
9.43
10.19
11.03
11.76
12.11
11.88
10.97
9.51
7.80
6.24
5.17
4.68
4.58
4.51
4.10
3.14
1.69
-0.02
-1.69
-3.08
-4.12
-4.86
-5.43
-5.95
-6.48
-7.08
-7.76
-8.62
-9.74
-11.22
-13.09
-15.25
-17.46
-19.42
-20.80
-21.35
-21.01
-19.84
-18.02
-15.74
-13.20
-10.59
-8.09
-5.86
-4.02
-2.60
-1.58
-0.83
-0.23
0.38
1.03
1.72
2.35
2.83
3.09
3.18
3.23
3.41
3.86
4.58
5.43
6.19
6.67
6.78
6.65
6.44
6.34
6.39
6.53
6.62
6.50
6.07
5.38
4.47
3.51
2.59
1.79
1.10
0.48
-0.16
-0.93
-1.92
-3.15
-4.54
-5.93
-7.10
-7.92
-8.37
-8.64
-9.00
-9.78
-11.16
-13.10
-15.30
-17.30
-18.55
-18.58
-17.18
-14.43
-10.74
-6.74
-3.06
-0.14
1.95
3.40
4.54
5.63
6.82
8.05
9.24
10.30
11.23
12.01
12.65
13.02
13.03
12.62
11.89
11.08
10.47
10.33
10.72
11.56
12.58
13.49
14.04
14.10
13.69
12.93
11.95
10.86
9.80
8.82
7.98
7.27
6.62
5.94
5.13
4.13
2.91
1.46
-0.22
-2.06
-3.92
-5.69
-7.23
-8.58
-9.90
-11.41
-13.34
-15.76
-18.52
-21.31
-23.64
-25.00
-25.02
-23.49
-20.53
-16.60
-12.36
-8.50
-5.47
-3.39
-2.00
-0.93
0.13
1.27
2.37
3.24
3.82
4.21
4.63
5.24
6.07
6.97
7.75
8.28
8.57
8.74
8.91
9.14
9.35
9.37
9.00
8.09
6.63
4.81
2.88
1.15
-0.18
-1.05
-1.58
-1.97
-2.40
-2.95
-3.55
-4.09
-4.45
-4.72
-5.07
-5.74
-6.93
-8.69
-10.94
-13.51
-16.15
-18.57
-20.44
-21.37
-21.05
-19.31
-16.27
-12.36
-8.20
-4.47
-1.63
0.21
1.26
1.95
2.66
3.62
4.78
5.96
6.95
7.65
8.14
8.58
9.11
9.72
10.33
10.73
10.77
10.39
9.65
8.67
7.62
6.62
5.73
4.95
4.23
3.47
2.57
1.49
0.23
-1.17
-2.64
-4.09
-5.46
-6.72
-7.91
-9.16
-10.67
-12.65
-15.14
-17.96
-20.62
-22.48
-22.95
-21.67
-18.71
-14.50
-9.73
-5.11
-1.24
1.51
3.08
3.66
3.79
4.12
5.37
7.99
12.01
16.96
22.06
26.49
29.66
31.34
31.62
30.72
28.87
26.24
23.02
19.47
15.91
12.63
9.80
7.39
5.18
2.90
0.32
-2.62
-5.81
-9.07
-12.14
-14.87
-17.21
-19.34
-21.53
-24.12
-27.31
-31.05
-35.04
-38.69
-41.35
-42.50
-41.87
-39.63
-36.29
-32.56
-29.12
-26.47
-24.77
-23.85
-23.42
-23.23
-23.25
-23.71
-24.96
-27.21
-30.36
-33.93
-37.24
-39.76
-41.33
-42.28
-43.36
-45.36
-48.83
-53.87
-60.09
-66.84
-73.28
-78.53
-81.61
-81.60
-77.79
-70.02
-58.95
-45.96
-32.85
-21.21
-12.04
-5.59
-1.69
-0.04
-0.53
-3.11
-7.48
-12.86
-17.95
-21.38
-22.20
-20.23
-16.05
-10.64
-4.88
0.68
5.90
10.82
15.51
19.91
23.96
27.60
30.85
33.84
36.64
39.31
41.89
44.39
46.86
49.36
51.96
54.70
57.58
60.54
63.41
65.99
68.00
69.21
69.51
69.01
67.95
66.73
65.69
65.00
64.53
63.83
62.23
59.03
53.84
46.71
38.26
29.43
21.12
13.73
6.99
0.19
-7.38
-15.87
-24.66
-32.47
-38.00
-40.49
-40.12
-37.93
-35.31
-33.42
-32.79
-33.23
-34.06
-34.59
-34.41
-33.49
-32.07
-30.43
-28.73
-26.91
-24.79
-22.23
-19.19
-15.79
-12.21
-8.71
-5.55
-2.98
-1.13
-0.01
0.58
1.01
1.66
2.68
3.90
4.82
4.79
3.44
0.86
-2.37
-5.46
-7.83
-9.30
-10.05
-10.35
-10.32
-9.85
-8.73
-6.93
-4.66
-2.33
-0.24
1.55
3.30
5.39
8.05
11.37
15.29
19.77
24.81
30.32
35.92
40.81
43.83
43.78
39.80
31.83
20.91
9.04
-1.24
-7.57
-8.63
-4.60
2.82
11.20
18.18
22.43
23.83
23.07
20.98
17.95
13.81
8.23
1.20
-6.63
-14.09
-19.97
-23.50
-24.68
-24.11
-22.75
-21.47
-20.84
-21.04
-21.95
-23.20
-24.26
-24.58
-23.74
-21.55
-18.13
-13.76
-8.72
-3.19
2.73
8.86
14.85
20.20
24.48
27.63
30.11
32.73
36.17
40.52
45.07
48.44
49.12
46.06
39.05
28.90
17.21
6.17
-1.89
-4.91
-1.59
8.18
23.13
40.81
58.18
72.49
82.07
86.62
87.05
84.88
81.46
77.58
73.41
68.80
63.57
57.75
51.56
45.33
39.40
34.13
30.04
27.82
28.19
31.62
38.03
46.66
56.21
65.13
72.01
75.94
76.63
74.41
70.13
64.82
59.44
54.61
50.46
46.65
42.69
38.15
32.97
27.42
21.95
16.93
12.44
8.30
4.25
0.11
-4.04
-8.02
-11.64
